##TITLE=DDW02
##FORMAT=SPECTACLE-ASCII V-1.2
##DATA TYPE=ULTRAVIOLET SPECTRUM
##SECOND TYPE=ULTRAVIOLET SPECTRUM
##DATE=05/07/18
##TIME=14:32:53
##SPECTROMETER/DATA SYSTEM=SPECTACLE
##XUNITS=NM EM
##YUNITS=ENERGY
##YFACTOR=1
##FIRSTX=220
##LASTX=410
##NPOINTS=96
##3DDATA=Equidistant
##ZUNITS=NM EX
##FIRSTZ=210
##LASTZ=400
##ZPOINTS=39
##XYDATA=(Y..Y)
##ZVALUE=210
14.991760
14.265776
12.059808
12.291670
10.945797
10.216832
9.923577
8.992553
8.059740
5.419850
4.066825
3.444552
2.785921
3.015995
2.591610
2.908707
2.905726
3.125668
3.562570
3.255606
2.795458
2.939701
3.415942
3.161430
3.900528
3.845692
4.661679
4.496574
4.341602
4.801750
5.243421
5.526543
5.451441
5.644560
5.758405
5.776882
5.960464
6.578565
7.100701
6.722808
6.378889
6.472468
6.894469
8.127689
7.626414
7.945895
7.985830
8.841753
7.924438
8.647442
9.615421
11.660457
11.819601
11.778474
14.482737
11.857748
12.708902
15.038848
13.706684
14.347434
15.447736
14.396906
15.051961
14.338493
14.312863
13.689995
14.975667
14.126897
13.893843
16.985536
16.980767
15.898943
18.499494
18.658638
19.354820
18.164515
19.622445
17.533898
17.716885
15.189648
14.286637
13.329983
13.410449
12.772679
10.731816
9.815693
8.708835
8.374453
9.341836
9.516478
11.303425
13.066530
18.925667
23.012757
25.127530
31.123757
##ZVALUE=215
39.473772
38.791895
31.823516
24.207830
21.902919
19.229650
17.197728
17.072558
16.411543
12.926459
13.055801
9.209514
7.870793
4.975796
4.310608
3.680587
3.450513
3.362894
2.967715
3.569722
3.754497
3.690720
3.956556
4.617572
3.859997
4.209876
4.045963
4.076958
4.922748
4.760623
5.091429
5.786419
7.089972
6.621480
6.808639
7.282495
7.360578
7.918477
7.878542
8.000731
8.524656
9.018779
8.898973
9.123683
9.743571
9.706616
9.861588
10.352731
12.218952
11.393428
11.807680
13.907552
14.202595
14.850497
14.808774
15.662909
15.857816
16.482472
17.803907
17.442703
19.259453
18.785000
17.301440
16.905665
18.169880
17.396808
17.474890
19.519925
18.196702
18.567443
19.661784
19.069910
20.856857
19.640923
20.849705
20.605922
20.407438
20.032525
17.661452
16.406775
15.036464
13.892651
13.634562
12.639761
11.689663
9.897947
9.521842
9.566545
9.249449
8.984804
9.218454
7.795691
8.699894
8.683801
10.803938
12.846589
##ZVALUE=220
80.821514
82.026720
77.789426
68.373680
62.663555
47.599673
37.316680
29.048920
23.819804
26.536584
25.710464
25.015473
23.081899
19.382834
15.077591
11.476874
7.233620
5.136728
3.864765
4.209876
3.921986
4.161596
3.752708
4.012585
3.759861
4.858971
4.943609
4.687905
4.660487
5.025864
5.342960
6.829500
7.297993
7.778406
8.386970
9.277463
9.810925
10.703802
10.439754
11.495948
11.299849
11.665821
11.202693
11.923909
12.649894
13.211966
12.584925
12.892485
14.109612
15.241504
15.750527
18.515587
18.460751
20.250678
18.166900
20.599961
21.954775
21.125674
22.428632
22.655725
25.051832
23.185611
24.676919
23.560524
21.763444
23.365617
23.676753
23.092628
23.048520
23.469925
21.911860
23.354888
23.911595
22.977591
25.161505
24.446845
25.267601
23.111701
23.498535
21.114945
20.241737
17.191768
17.789602
14.382601
16.170740
13.002753
12.681484
11.477470
11.972785
10.102987
11.371970
10.429621
10.044575
9.069443
9.557605
9.437799
##ZVALUE=225
108.411908
109.914541
132.128596
143.792629
144.302845
125.320554
111.594796
76.024532
61.547756
48.714876
39.312840
38.747787
37.136674
41.002631
37.562847
32.815933
25.555491
21.005869
14.822483
10.469556
7.002950
5.577803
4.741549
5.058646
4.351735
5.454421
4.851818
5.556941
4.512668
5.943775
6.368756
7.900000
7.663965
9.360909
10.263920
9.838939
11.581779
12.034774
12.955666
13.193488
13.805628
15.147924
14.961958
16.086698
15.383959
14.949441
16.309619
17.366409
20.849705
20.267963
22.398829
21.394491
22.898912
25.396943
25.223494
26.040673
26.817918
29.727817
30.448437
29.794574
30.355453
32.570958
32.569766
31.399727
32.527447
32.318830
31.903982
31.701922
33.650994
32.748580
31.161904
31.937957
34.322739
33.047795
34.613609
32.322407
31.957626
29.495955
26.833415
24.370551
22.720695
21.426678
20.027757
17.856956
18.068552
15.926957
16.462803
16.011000
14.402866
13.862848
13.904572
12.410879
13.604760
13.232827
11.542439
12.209415
##ZVALUE=230
76.225996
83.339810
122.974515
175.833702
210.969448
244.401693
249.777436
229.637623
196.139812
160.089731
107.326508
77.834725
62.911510
56.896806
60.523748
63.253641
64.272881
63.174963
50.406456
39.151907
28.419495
19.298792
14.226437
8.509755
6.012917
5.227923
5.294681
5.732775
5.759597
5.549788
7.132888
7.924438
7.613897
8.626580
10.168552
9.615421
11.728406
12.490749
13.388991
15.960932
14.730692
15.320778
15.068650
15.163422
16.457438
16.115904
17.568469
17.689466
19.258857
22.164583
23.195744
26.604533
26.681423
29.964447
29.141903
31.244755
34.599900
35.544634
32.665730
37.626624
37.003756
36.453605
39.824843
38.143992
38.015842
35.655499
38.814545
37.544966
37.276745
37.495494
35.810471
37.057996
33.077598
33.737421
33.822656
34.244657
30.791759
29.018521
29.242635
27.424693
25.171638
23.329854
22.227764
21.596551
20.484924
18.398762
17.905831
17.970800
17.924905
16.682744
16.062856
15.143752
15.031695
13.885498
13.594627
12.972951
##ZVALUE=235
21.093488
26.060939
51.320791
107.252002
166.190863
244.053602
301.561952
367.636681
375.528932
367.499590
312.228799
250.403881
168.455839
130.234957
97.450614
77.853799
80.218911
87.846518
94.086528
90.260506
82.359910
72.310567
54.327846
37.923455
26.819706
14.774799
9.686947
7.056594
7.175803
6.936789
6.661415
6.626844
8.135438
7.805824
9.726882
10.352731
9.791851
10.604858
11.443496
10.870695
11.578798
12.621880
12.920499
14.043450
11.484623
13.598800
15.426874
17.552972
18.107891
22.472739
25.342703
28.971434
30.844808
34.803748
35.613775
38.054585
40.002465
41.752458
43.280721
47.757626
47.108531
46.323538
48.882961
44.285655
47.549605
48.400760
46.672821
45.795441
44.582486
44.326782
43.997765
41.842461
40.757656
39.854646
38.754940
38.023591
36.086440
37.618876
36.824942
31.489730
27.974844
28.281808
28.098822
24.540424
24.757981
23.467541
22.946596
21.075606
20.540953
19.183755
19.993782
17.178655
17.124414
17.143488
17.548800
17.420650
##ZVALUE=240
2.564788
2.740622
8.410811
19.674897
44.465661
103.134513
171.670914
287.223458
374.658704
467.977524
504.969954
487.227440
441.409945
340.542793
263.625979
177.439451
129.178762
98.511577
94.506741
100.573897
108.007789
115.547776
106.521845
101.085901
77.335835
62.051415
43.163896
30.196905
19.120574
12.822747
9.088516
8.075833
7.350445
7.263422
7.160902
7.643700
8.338690
8.605719
8.397698
9.355545
8.617640
9.184480
10.144711
10.931492
10.268688
11.734962
13.260841
15.860796
18.354654
21.999478
27.161837
28.650761
32.336712
36.884546
38.295984
41.734576
45.149922
45.765638
52.435994
51.707625
54.887533
52.205920
50.967932
54.836869
51.674843
51.511526
50.821900
49.352646
50.409436
48.728585
49.925447
47.455430
46.314597
45.740604
42.990446
41.375756
40.490627
38.092732
36.975741
35.892725
33.877492
31.691790
29.410720
27.669668
26.214719
25.318861
24.364591
22.914410
21.544695
22.140741
20.693541
19.261837
19.213557
17.348528
18.116832
16.558766
##ZVALUE=245
1.940727
2.001524
2.335906
2.254844
4.482865
13.044477
38.647652
82.220435
178.855658
266.354680
411.175489
501.758456
565.112829
584.750772
551.991463
456.351638
358.031988
252.834558
173.590779
116.328001
95.350742
97.450614
106.128454
121.084452
124.823451
120.732784
104.409456
86.947680
66.054463
50.241947
36.534667
20.404458
13.788939
9.343624
7.871985
7.486939
7.838607
7.387996
7.901788
7.682443
7.701516
7.510781
8.633733
9.700656
9.368658
10.291934
11.584759
14.092922
16.398430
22.209883
23.819804
28.011799
30.371547
34.074783
37.030578
39.772987
42.437911
44.798851
48.156977
51.215887
51.707625
52.643418
52.834749
49.570799
49.711466
51.436424
49.534440
50.083995
51.644444
47.078729
47.125816
44.564605
45.708418
43.253899
39.888620
39.944649
40.114522
36.190748
35.114884
33.274889
31.316876
29.303432
27.044415
24.371743
25.244951
23.228526
24.384856
23.825765
20.725727
19.902587
19.783974
19.381642
17.847419
16.908646
16.558766
17.778873
##ZVALUE=250
1.542568
1.706481
1.778603
1.754761
2.007484
1.981854
2.739429
8.698702
28.772950
62.617660
152.270794
252.436996
363.128781
512.847900
607.544780
671.464801
658.505559
574.926734
485.276580
328.010917
225.555897
152.691007
99.020004
91.114640
100.550652
110.168457
127.849579
134.841800
125.908852
114.118457
100.098848
73.237419
56.074858
32.575727
22.917986
13.316870
11.208653
8.034706
8.092523
8.341670
8.193851
8.174777
8.669496
9.232759
9.267926
10.023713
12.275577
14.074445
16.193986
19.261837
22.244453
24.617910
25.903583
30.626655
32.785535
34.726858
35.663843
37.195683
41.491985
44.575930
43.205619
43.918490
43.858886
43.149590
44.727921
41.520596
42.948723
43.410659
42.831898
41.364431
42.034984
39.821863
37.897825
38.575530
35.265684
34.250617
32.847524
32.190681
30.547976
28.410554
27.803779
25.926828
25.903583
22.071600
21.324754
20.924807
20.927787
19.431710
18.081665
18.354654
18.012524
16.520619
15.633702
16.253591
14.785528
16.439557
##ZVALUE=255
1.692772
1.542568
1.475811
1.570582
1.794696
1.714826
2.156496
2.007484
2.010465
4.564524
20.974874
48.853755
99.155903
216.907859
332.760811
507.202744
615.786910
727.768540
759.953856
702.027678
611.176491
491.820574
310.903788
202.409625
112.765431
84.765553
83.001852
98.062754
120.912790
134.993792
140.031576
134.093761
121.419430
97.695589
76.787472
52.733421
36.687851
22.217631
14.926791
10.074973
9.787679
9.985566
10.260940
10.365844
10.575652
11.413693
12.513995
13.628602
15.772581
18.622875
21.126866
23.188591
24.965405
28.060675
28.550625
30.692816
31.741858
33.934712
36.340952
38.364530
38.144588
38.172603
38.601756
37.638545
37.484765
36.310554
36.228895
38.413405
37.476420
37.788749
35.986900
34.993887
33.997893
32.819510
31.888485
31.351447
30.406713
28.672814
28.366446
24.750829
23.886561
22.752881
22.644997
20.795465
20.627975
19.277930
16.912818
17.783642
16.688704
16.416907
15.656948
15.447736
15.094876
14.355779
14.387965
13.972521
##ZVALUE=260
1.375675
1.237988
0.982881
1.460910
1.364946
1.649857
1.212955
1.485944
1.242757
1.479983
1.650453
2.598763
8.118749
33.685565
73.159933
174.902678
279.591680
460.207462
602.059960
763.627887
830.572844
828.408003
730.827451
596.070886
396.137834
271.566510
156.117678
99.205971
75.981617
78.227520
94.194412
120.362639
136.448741
146.634579
141.659975
124.186873
109.052658
81.125498
59.647560
39.772987
28.947592
19.416809
14.516711
13.332963
12.674928
13.605952
14.556646
16.510487
17.464757
20.096898
21.954775
24.464726
27.642846
29.442906
31.492710
30.997992
34.200549
36.944747
37.871599
38.826466
39.726496
39.472580
40.058494
38.952827
37.869811
40.688515
40.567517
39.298534
38.166642
37.179589
37.859678
36.594868
34.134984
34.366846
33.152699
31.499863
29.890537
29.013753
27.767420
27.581453
24.938583
24.091601
22.586584
20.943880
20.201802
18.188953
18.181801
17.672777
15.973449
16.215444
15.529990
15.027523
15.077591
13.931990
13.557673
13.788939
##ZVALUE=265
1.272559
1.251698
1.465678
1.407862
1.369715
1.412630
1.379848
1.461506
1.813769
1.588464
1.635551
1.425743
1.810789
2.293587
4.224777
21.058917
51.324964
130.483508
230.723023
422.114730
587.503910
736.320615
876.252651
894.185901
797.775984
686.146617
498.998761
357.536674
200.988650
123.694539
82.929730
66.249967
78.627467
105.954409
128.467679
145.952702
150.245428
146.779418
131.762624
109.265447
85.147619
58.859587
44.067502
29.050708
22.724867
19.131899
18.715858
19.678473
20.449758
24.521947
26.882887
30.099750
31.402707
33.502579
35.570860
38.581491
40.608644
43.502450
42.703748
45.205951
47.008991
48.313737
46.824813
46.698451
47.631860
45.224428
44.785738
44.710636
45.576692
43.202639
41.935444
41.163564
39.747953
37.800670
36.188960
34.641623
33.816695
31.542778
30.852556
28.262734
27.823448
26.357770
24.522543
23.809671
22.311807
21.582842
20.107627
18.585920
18.020868
17.253757
16.472936
15.430450
15.761852
15.374422
13.974905
14.790893
##ZVALUE=270
1.349449
0.820756
0.884533
1.038909
1.225471
1.226664
1.174808
1.303554
1.400709
1.287460
1.341701
1.365542
1.416802
1.658797
1.669526
2.070665
2.555847
9.317994
28.363466
90.722442
180.603862
319.994688
548.784733
731.831789
913.844705
968.472958
931.432843
841.468573
644.035935
481.996536
327.015519
172.010660
101.183653
62.863827
61.832666
85.877776
108.790994
136.471987
149.904490
156.346560
154.032707
136.083961
118.478537
88.554621
68.710446
45.671463
36.663413
30.450821
27.970672
29.000640
30.870438
34.353733
37.066936
38.960576
41.673779
44.071674
45.632720
47.818422
50.014853
52.202940
54.217577
54.222941
53.438544
52.481890
52.627921
52.010417
50.172806
50.675869
51.223636
49.521923
48.307776
46.196580
45.423508
42.374730
42.432547
39.450526
38.147569
36.365986
34.628510
31.901598
31.213760
28.271675
28.073788
25.380850
23.531914
22.292733
22.510886
20.324588
19.926429
18.885732
18.001795
16.437769
16.820431
15.562773
15.426874
14.821887
##ZVALUE=275
1.038909
1.062751
1.101494
1.089573
0.993609
1.075864
1.057982
1.103878
1.132488
1.186728
1.133680
1.282692
1.333952
1.179576
1.515746
1.470447
1.660585
1.589656
1.866817
4.820824
16.832948
47.751665
141.982436
263.468027
486.293435
662.509799
868.292451
976.877809
1014.982462
952.526927
828.549862
599.721670
421.921611
226.336718
131.908655
65.972805
53.130984
64.802766
83.009601
114.386678
133.879781
151.157975
159.067512
154.508948
139.703751
114.296675
96.049905
73.895454
58.932900
46.876669
42.458773
39.659739
42.282939
43.554902
46.240687
48.264861
52.075982
54.161549
56.820512
57.963729
59.965849
61.610937
60.785413
60.359836
59.763789
56.675673
57.564974
56.204796
55.137873
54.497719
52.145720
52.054524
48.687458
46.058893
45.579672
43.340921
39.605498
38.360953
36.658645
34.820437
33.144951
30.131936
28.538704
25.769472
25.918484
24.430752
22.482872
21.659732
21.587610
19.228458
18.852949
18.000603
17.192960
16.337633
15.656948
14.984608
##ZVALUE=280
0.915527
0.957847
0.799894
0.964999
0.996590
1.007915
0.947714
0.950694
1.010895
0.944734
0.874996
1.036525
1.037717
1.136661
1.320839
1.431704
1.213551
1.404881
1.237988
1.865625
1.660585
2.298951
10.568500
34.814477
108.699799
199.843645
376.605392
546.483397
775.844455
921.316743
1009.050608
1006.937623
899.878740
685.537457
505.439639
286.755562
173.463821
82.052946
51.616430
47.827959
61.413646
87.273717
108.184814
134.597421
148.847699
155.531764
152.551532
138.428807
123.499632
100.169778
85.252523
68.955421
60.370564
54.730773
52.672625
53.713918
56.404471
59.534907
61.846972
63.826442
65.882802
66.810846
66.415668
66.404939
63.937902
63.662529
62.946677
62.768459
61.002970
58.954954
56.339502
54.623485
52.988529
49.641728
47.601461
45.529604
43.770671
41.968822
39.259791
36.659837
34.667850
31.696558
30.719638
29.494762
27.146935
25.470853
25.516748
22.186637
21.703839
21.083951
19.416809
18.279552
17.573833
16.928911
16.973615
15.999675
##ZVALUE=285
0.979900
0.764728
0.987649
0.842810
0.860691
0.769496
0.821948
0.907779
0.958443
1.032948
1.126528
1.204610
1.184940
1.221895
1.041889
1.107454
1.013875
1.151562
1.216531
1.511574
1.469851
1.449585
1.674891
2.058744
5.629659
17.078519
59.877634
123.134851
264.440775
422.739983
597.528815
832.480788
968.090892
1015.681028
973.260999
790.515542
622.725487
383.785963
241.652727
116.899610
63.629746
36.877990
39.698482
55.971742
77.649951
108.102560
126.912594
147.482753
157.468915
159.525871
151.577592
137.066841
121.313930
99.886656
85.601807
74.164867
68.682432
68.051815
70.154667
71.995854
72.510839
72.143674
73.608756
71.810484
70.749521
70.858002
70.152879
68.222880
67.360997
65.268874
62.376857
60.009956
56.886673
54.896474
51.319599
49.074888
46.374798
44.459701
41.743517
38.399696
36.434531
34.796596
32.549500
30.698776
28.615594
27.029514
25.507808
23.461580
22.771955
21.535754
20.629764
18.972754
18.218756
17.213821
16.934872
15.565753
##ZVALUE=290
0.958443
0.878572
0.925660
0.844598
0.916719
0.927448
0.948906
0.780821
0.816584
0.921488
0.972748
0.899434
1.000762
1.044869
1.041889
1.154542
1.184940
1.097918
1.240969
1.104474
1.287460
1.346469
1.521707
1.329780
1.508594
1.954436
2.647638
7.219911
33.284426
76.898932
152.782798
323.996544
499.742627
751.386881
903.565884
1015.268564
1002.168655
864.138007
707.808733
475.263596
313.508511
156.893730
83.647966
37.319660
28.345585
38.298965
53.004622
79.940557
104.190707
135.316849
157.591701
172.111988
173.957944
164.933801
152.209997
131.061673
115.876794
99.069476
90.931654
84.086657
82.282424
79.142451
77.608824
77.610612
76.976418
74.914694
74.595809
73.019862
73.128939
68.587661
66.661835
63.290000
61.711669
56.522489
54.306984
49.635768
48.228502
47.174692
43.146610
41.194558
38.136840
35.262704
33.327937
31.414628
29.622912
28.257966
26.546717
24.156570
22.951961
22.142529
21.259785
19.755960
18.203855
18.037558
17.069578
16.062856
##ZVALUE=295
0.571609
0.804663
0.865459
0.845790
0.688434
0.701547
0.823736
0.832677
0.764728
0.850558
0.868440
0.866652
0.948906
0.910759
0.962615
0.905991
0.896454
0.999570
1.038909
1.031756
1.137853
1.173615
1.040697
1.429915
1.482964
1.582503
1.541972
1.919866
2.110600
4.114509
13.615489
55.988431
116.912723
265.878439
418.435931
656.521916
830.068588
990.293026
1015.684605
939.318538
800.668001
569.266677
394.377708
208.780766
116.291642
48.076510
30.100942
31.544566
43.433905
66.480637
90.417862
123.003721
144.384503
171.026587
181.774497
182.286501
177.177787
160.903931
147.155523
127.234459
113.060474
98.333955
92.174411
85.143447
82.442760
79.763532
78.247786
76.706409
73.489547
71.174502
68.993568
65.312982
61.640739
57.835579
55.243969
51.978827
49.561858
47.378540
44.353604
41.016936
38.360953
36.495924
34.205914
31.577945
30.201674
27.004480
25.918484
24.148822
22.397637
21.851659
19.372702
19.213557
17.849803
17.443895
15.971661
15.918612
##ZVALUE=300
0.741482
0.769496
0.748634
0.724792
0.812411
0.699759
0.727773
0.690818
0.825524
0.648499
0.705719
0.762939
0.835657
0.819564
0.928640
0.858903
0.749826
1.012683
0.802875
0.943542
0.973940
0.981688
0.893474
1.103878
1.094937
1.067519
1.471639
1.563430
1.322627
1.416802
1.806617
2.175570
6.956458
24.672747
84.492564
167.367458
345.995426
525.190830
771.147013
915.997028
1015.684605
1012.613773
883.557796
722.417831
475.320816
312.747955
160.522461
89.576840
46.231747
38.049817
47.035813
59.908628
81.571937
101.645589
130.712986
152.262449
177.941918
188.453794
192.588568
188.862681
171.690583
153.506994
130.064487
114.113688
99.049807
89.811683
81.121922
77.944994
74.624419
72.605610
68.582892
65.442920
61.409473
58.814883
55.819750
53.004622
48.664808
46.661496
43.510795
41.253567
38.148761
35.849810
33.569932
32.052994
29.002428
27.668476
25.751591
24.609566
22.313595
21.275878
19.553900
18.864870
18.103719
16.846657
15.674829
15.388727
##ZVALUE=305
0.617504
0.579953
0.580549
0.593662
0.648499
0.699759
0.770688
0.760555
0.826716
0.699759
0.846982
0.736713
0.771880
0.681877
0.801682
0.862479
0.860691
0.636578
0.875592
0.854731
0.936985
0.937581
0.916719
0.937581
1.128912
1.077652
1.137853
1.274943
1.082420
1.294613
1.153946
1.355410
1.512766
1.744628
2.979636
16.861558
47.439933
137.595534
244.052410
456.080437
637.611747
863.007903
982.785821
1015.114784
955.827832
756.647587
592.425466
375.120640
240.162611
122.358799
75.762868
51.971674
50.197840
59.750676
70.547462
89.812875
110.508800
137.817860
157.737732
178.030729
186.201930
187.762976
179.279447
159.737468
140.975714
117.856860
101.653934
86.786747
78.515410
69.418550
64.953566
61.064959
56.357980
53.445697
51.209927
47.819614
45.950413
42.763948
39.688945
38.007498
35.967827
32.584667
30.993819
29.004812
27.827621
25.059581
24.043918
22.224784
21.179914
19.639730
18.541813
17.400980
16.648769
15.943646
15.345812
14.231801
##ZVALUE=310
0.561476
0.424981
0.499487
0.484586
0.578761
0.599623
0.518560
0.445843
0.535846
0.713468
0.603795
0.638962
0.598431
0.641942
0.725985
0.527501
0.785589
0.728965
0.533462
0.743866
0.744462
0.862479
0.805855
0.797510
0.701547
0.796914
0.754595
0.872612
0.946522
0.930429
1.103878
1.191497
1.183748
1.477599
1.514554
1.651645
2.053976
7.470846
23.618937
79.913735
159.227848
331.335664
513.304472
760.810971
914.085507
1015.626788
1009.624600
882.361531
726.117492
491.218567
335.269570
181.323886
113.116503
65.379739
51.813722
53.397417
59.195757
71.807504
83.958507
103.751421
122.091770
142.662525
154.683590
164.243579
165.210962
154.145956
142.653584
120.791793
103.668571
81.535578
69.532990
58.164001
51.049590
45.558810
42.193532
39.742589
37.870407
36.139488
33.620000
31.831861
29.086471
27.214885
25.948882
24.718642
23.470521
21.873713
20.946860
19.553900
18.602610
17.558932
16.090870
15.346408
14.290810
13.751984
13.332963
12.746453
##ZVALUE=315
0.560880
0.498891
0.407696
0.500679
0.690818
0.534654
0.770688
0.595450
0.685453
0.636578
0.700951
0.545979
0.583529
0.677705
0.600815
0.583529
0.601411
0.584722
0.690818
0.581741
0.686646
0.765920
0.615716
0.833869
0.836849
0.832677
0.839829
0.804663
0.916719
1.105666
1.076460
0.867844
1.038909
1.224875
1.020432
1.461506
1.370907
1.430511
1.807809
3.432631
11.954904
50.632954
114.391446
263.559818
420.781970
671.660900
842.929482
999.974608
1015.684605
970.317721
836.942792
612.037778
438.068509
242.100954
144.922733
73.133707
52.182674
46.567917
48.370957
53.875446
60.592890
72.605610
84.695816
102.914572
117.426515
134.742856
142.715573
142.014623
135.544538
117.693543
101.924539
82.238913
66.925883
50.293803
41.598678
35.040975
31.715631
28.095841
26.568770
24.486780
23.706555
22.117496
21.623969
20.386577
19.133687
18.192530
17.426610
16.505718
15.659928
14.728904
14.162660
13.173819
12.606978
12.461543
11.534691
11.553764
##ZVALUE=320
0.555515
0.629425
0.678897
0.629425
0.556707
0.410676
0.570416
0.305772
0.541806
0.623465
0.713468
0.607967
0.528693
0.787973
0.695586
0.544786
0.795722
0.695586
0.504851
0.631809
0.693798
0.688434
0.771880
0.579953
0.866652
0.907779
0.816584
0.871420
0.775456
0.725985
0.843406
0.904799
0.870824
1.021624
1.050830
1.165867
1.315475
1.189709
1.246929
1.272559
1.555681
1.937747
5.704761
27.917624
73.090792
192.494988
319.437981
538.874865
721.730590
933.565497
1015.684605
1015.684605
933.237672
722.715855
537.330508
307.141542
185.788870
90.257525
52.942634
34.380555
31.816959
32.568574
34.502745
40.208697
47.970414
61.877966
75.687766
94.855428
106.430650
115.099549
115.581751
109.940767
97.924471
78.478456
63.582659
46.744943
35.872459
26.596785
22.140741
18.455982
16.875863
15.441775
15.154481
13.990998
13.800859
13.426542
12.976527
12.125969
12.052655
11.616945
11.204481
10.978580
10.751486
10.303855
9.943843
9.677410
##ZVALUE=325
0.527501
0.454783
0.618696
0.416636
0.528693
0.469685
0.600815
0.712872
0.584722
0.541806
0.679493
0.495911
0.434518
0.577569
0.593662
0.409484
0.517964
0.566840
0.715852
0.718832
0.590682
0.632405
0.636578
0.627637
0.593662
0.693798
0.709891
0.705719
0.809431
0.819564
0.780821
0.935793
0.864863
0.890493
0.912547
0.904799
0.928640
1.053810
1.091957
1.146793
1.186728
1.379848
1.458526
1.848936
3.462434
19.094944
49.580932
133.444667
238.224864
446.323752
624.765754
849.237442
972.898006
1015.684605
959.411860
765.213966
586.434007
358.357430
219.892859
100.043416
51.224828
22.702813
16.194582
15.156865
15.766621
18.446445
23.165941
32.628775
44.662952
62.227845
75.129867
89.133978
96.283555
96.694827
91.596842
77.530742
64.598918
47.869682
35.910606
24.294853
17.658472
12.788773
11.192560
9.819865
9.468794
9.226799
8.912683
8.979440
8.541942
8.686781
8.649826
8.915663
8.421540
8.557439
8.348823
8.408427
##ZVALUE=330
0.373721
0.419617
0.499487
0.493526
0.427961
0.490546
0.502467
0.526905
0.625849
0.582933
0.410676
0.623465
0.562668
0.423789
0.522733
0.358820
0.524521
0.646710
0.693798
0.580549
0.601411
0.539422
0.590682
0.539422
0.512600
0.789762
0.732541
0.610948
0.748634
0.682473
0.601411
0.842810
0.695586
0.731945
0.909567
0.782609
0.865459
0.936985
0.810623
0.967979
0.847578
1.139641
1.216531
1.320839
1.583695
1.431704
2.241731
8.483529
26.680827
87.568760
169.777870
341.813564
508.235693
741.852522
888.550878
990.379453
965.222716
823.845863
659.670830
425.771475
274.462700
125.748515
63.771605
23.413897
11.447668
8.011460
8.238554
8.936524
11.288524
17.287731
24.205446
37.610531
49.474835
66.868663
78.157783
85.989833
86.471438
80.926418
70.527792
55.572987
43.947697
29.684901
22.119880
14.945865
11.788607
9.184480
8.290410
7.640719
7.609725
7.255673
7.249713
7.679462
7.553697
7.811785
7.799864
8.090734
##ZVALUE=335
0.331998
0.281930
0.454783
0.502467
0.427961
0.594854
0.516772
0.547767
0.401735
0.470877
0.427961
0.604987
0.513792
0.585914
0.611544
0.530481
0.515580
0.555515
0.452995
0.487566
0.498891
0.535846
0.338554
0.694990
0.573993
0.487566
0.581741
0.600815
0.586510
0.744462
0.766516
0.675917
0.778437
0.545979
0.714660
0.803471
0.727773
0.796914
0.787973
0.884533
0.940561
0.822544
0.836849
1.069903
1.069903
1.263618
1.353621
1.429915
1.518726
3.430843
17.664433
47.451854
130.717754
235.274434
438.181758
619.592667
841.618776
943.444967
974.918008
907.739997
722.635984
551.825762
328.052640
195.610523
82.445741
38.111806
13.087988
7.737875
6.628633
6.776452
7.853508
9.887815
15.320778
22.345781
34.605861
45.495629
61.543584
71.965456
80.052614
80.784559
74.696541
66.366792
53.515434
43.128729
30.458570
22.761822
15.742779
12.236834
9.069443
7.939935
7.735491
7.723570
7.424951
7.602572
7.470846
7.766485
##ZVALUE=340
0.387430
0.431538
0.423789
0.432730
0.467896
0.416636
0.393987
0.521541
0.356436
0.367761
0.436902
0.465512
0.440478
0.473857
0.410676
0.454783
0.430942
0.478625
0.497699
0.564456
0.646710
0.495911
0.564456
0.639558
0.542998
0.607967
0.610948
0.497699
0.561476
0.607967
0.558496
0.586510
0.572801
0.700951
0.662804
0.658631
0.672936
0.793934
0.752807
0.821948
0.840425
0.865459
0.691414
0.845790
1.065731
1.110435
1.026988
1.171827
1.338720
1.405478
1.505613
2.148747
6.976724
34.586787
83.974600
206.568837
345.613956
565.997958
730.210543
899.595618
955.411792
898.008943
782.987475
574.843884
406.193733
216.588974
116.353631
44.092536
18.663406
7.843971
6.568432
6.387830
6.578565
7.412434
9.543896
14.651418
20.962954
32.977462
43.608546
57.678819
67.818761
74.424744
75.560808
70.957541
63.797832
50.684810
41.694641
29.098988
22.539496
15.323758
11.764765
9.211898
8.235574
7.783771
7.653832
7.551908
##ZVALUE=345
0.411868
0.410676
0.462532
0.472665
0.489950
0.420809
0.466704
0.455976
0.512600
0.434518
0.458956
0.471473
0.472665
0.492930
0.453591
0.539422
0.351667
0.569820
0.399947
0.503659
0.485778
0.457764
0.476837
0.666976
0.488758
0.595450
0.513792
0.560880
0.513792
0.414848
0.597835
0.694990
0.610948
0.642538
0.641942
0.629425
0.651479
0.454783
0.537634
0.706911
0.736713
0.755787
0.696778
0.732541
0.841618
0.901818
0.903606
0.971556
0.987649
0.996590
1.164675
1.311898
1.273751
1.666546
3.299713
18.646717
51.803589
137.247443
249.751806
460.192561
637.497902
849.203467
947.007537
951.495767
864.335895
661.901832
485.058427
272.048712
153.336525
63.962936
28.686523
10.282993
7.043481
6.393790
6.226897
6.503463
7.071495
9.321570
12.959838
20.502806
28.822422
42.354465
52.312613
62.778592
68.390965
69.924593
67.274570
60.504675
52.530766
41.036606
30.951500
21.342635
16.228557
12.244582
10.033846
8.429885
##ZVALUE=350
0.471473
0.289679
0.369549
0.341535
0.404716
0.391603
0.559688
0.547767
0.526905
0.395775
0.384450
0.401735
0.451803
0.451803
0.355840
0.422597
0.466704
0.551939
0.337958
0.522733
0.407696
0.463724
0.406504
0.645518
0.594854
0.579953
0.480413
0.533462
0.731945
0.582933
0.579953
0.792742
0.650883
0.636578
0.596642
0.710487
0.592470
0.610948
0.555515
0.622869
0.736713
0.707507
0.745654
0.861883
0.747442
0.815988
0.748634
0.931621
0.801682
0.934601
0.931621
0.960827
1.250505
1.205802
1.184940
1.427531
2.174973
11.016726
32.521486
99.071860
187.515616
375.737548
548.753738
772.221684
915.195942
990.958810
936.431885
761.907697
575.524569
338.232517
200.044513
85.685849
38.636923
12.538433
7.376671
6.333590
5.974770
5.758405
5.903840
6.704926
8.439422
13.198853
18.015504
26.341677
34.954548
47.276616
55.170655
62.450767
64.164996
62.783957
58.258772
47.516823
39.333701
28.831959
22.200942
15.716553
##ZVALUE=355
0.336766
0.411868
0.358820
0.316501
0.385642
0.273585
0.489950
0.345707
0.196695
0.318885
0.182986
0.374913
0.434518
0.357628
0.350475
0.313520
0.509620
0.315905
0.501871
0.416636
0.312924
0.408888
0.485778
0.387430
0.429749
0.482798
0.288486
0.322461
0.342727
0.336766
0.404716
0.397563
0.449419
0.361800
0.600815
0.531673
0.493526
0.619888
0.595450
0.349879
0.534654
0.442863
0.527501
0.496507
0.550747
0.584722
0.696778
0.721812
0.910759
0.673532
0.836849
0.774860
0.990629
0.997782
1.050830
1.082420
1.145601
1.220703
1.537800
5.043745
17.433763
65.766573
134.326816
284.200907
448.774695
697.164536
853.846669
967.945457
963.369608
809.721947
646.460652
420.053601
258.356929
112.125874
54.126978
17.294884
8.019805
6.148815
5.786419
5.542636
5.319715
5.660653
6.242990
8.274913
10.634661
16.217828
22.756457
32.417774
40.416718
50.196648
55.982471
59.633851
58.237910
53.440928
46.698451
37.624836
##ZVALUE=360
0.340939
0.319481
0.269413
0.333786
0.357628
0.334978
0.401735
0.400543
0.275970
0.445843
0.464916
0.620484
0.520945
0.367761
0.408888
0.376701
0.388622
0.519753
0.540614
0.355840
0.550747
0.448823
0.464916
0.625849
0.619888
0.408888
0.553727
0.500679
0.515580
0.607967
0.547767
0.430942
0.560880
0.568628
0.616908
0.543594
0.561476
0.637770
0.609756
0.718832
0.586510
0.611544
0.665784
0.786781
0.673532
0.801682
0.655651
0.791550
0.800490
0.788569
0.739694
0.830889
0.868440
0.950694
0.907779
0.985861
1.118779
1.148582
1.270771
1.413822
1.627803
2.590418
8.210540
35.302639
83.011985
199.109912
340.512991
570.527911
745.490789
908.196568
953.664780
885.035992
741.527677
495.667458
324.834585
155.384541
79.281926
28.788447
12.212992
6.451607
5.750656
5.576611
5.395412
5.408525
5.498528
6.089807
6.936789
9.569526
13.078451
19.143820
25.859475
36.092997
42.854548
49.478412
53.231716
53.505898
##ZVALUE=365
0.454783
0.447631
0.472665
0.498891
0.534654
0.496507
0.431538
0.447631
0.423789
0.551939
0.302792
0.398755
0.575781
0.540614
0.452995
0.567436
0.544786
0.413656
0.432730
0.685453
0.486970
0.543594
0.449419
0.416636
0.572801
0.485778
0.513792
0.490546
0.510812
0.541806
0.692606
0.568628
0.437498
0.530481
0.678897
0.747442
0.456572
0.667572
0.724792
0.711679
0.744462
0.540614
0.546575
0.746846
0.774860
0.601411
0.609756
0.591874
0.809431
0.829697
0.788569
0.675917
0.946522
0.869632
0.734925
1.108646
0.845790
1.100898
1.217723
1.150966
1.415610
1.310706
1.492500
1.841784
4.237890
17.552972
69.620013
145.469904
312.373638
485.218763
727.880001
878.780484
997.556448
989.619493
838.199854
660.681725
407.185555
235.822797
99.815726
47.212839
14.871955
7.614493
5.657673
5.491972
5.259514
5.170703
5.046725
5.141497
5.562901
6.192923
7.975698
10.910630
16.369820
22.304654
30.775666
37.076473
##ZVALUE=370
0.508428
0.387430
0.384450
0.445843
0.492930
0.516772
0.436902
0.431538
0.444651
0.412464
0.321865
0.401735
0.342727
0.462532
0.412464
0.623465
0.420809
0.467896
0.547767
0.438690
0.466704
0.330806
0.494719
0.387430
0.514984
0.347495
0.594854
0.465512
0.572801
0.625849
0.454783
0.546575
0.500679
0.668764
0.685453
0.630617
0.534654
0.594854
0.542998
0.502467
0.464916
0.602603
0.567436
0.625849
0.648499
0.785589
0.681877
0.533462
0.681877
0.752807
0.617504
0.566840
0.731945
0.730753
0.853539
0.795722
0.886917
0.832677
0.872612
0.836849
1.023412
1.147985
1.202822
1.333952
1.454949
1.433492
2.043843
9.208918
30.092001
94.701648
181.429982
352.588892
525.549650
762.463808
894.192457
945.995450
873.020887
674.130917
486.885905
265.367627
146.380663
57.186484
26.007891
8.849502
5.576611
5.055666
4.917979
4.731417
4.788637
4.547834
4.654527
5.049706
5.652905
7.317662
9.352565
13.915896
##ZVALUE=375
0.330806
0.417829
0.335574
0.372529
0.325441
0.510812
0.361800
0.353456
0.364780
0.344515
0.339746
0.473857
0.307560
0.518560
0.423789
0.348687
0.492930
0.588894
0.451803
0.389814
0.433922
0.567436
0.296831
0.494719
0.575781
0.537634
0.493526
0.473857
0.532866
0.521541
0.490546
0.504851
0.572801
0.485778
0.491738
0.484586
0.514984
0.501871
0.498891
0.559688
0.546575
0.565648
0.595450
0.677705
0.584722
0.575781
0.670552
0.597835
0.712872
0.585914
0.499487
0.694990
0.511408
0.732541
0.638962
0.662804
0.623465
0.804663
0.852942
0.805855
0.855923
0.958443
0.998974
0.928640
1.020432
1.129508
1.163483
1.317859
1.450777
4.500747
15.309453
55.362582
121.852756
271.528959
424.867868
653.689504
801.236033
913.171768
900.369883
748.707652
574.264526
336.639881
205.256939
97.589493
47.585964
15.974641
7.164478
4.835725
4.754663
4.541874
4.436970
4.276633
4.283786
4.421473
4.435778
5.123615
##ZVALUE=380
0.258684
0.278950
0.379682
0.290871
0.354648
0.276566
0.317693
0.457764
0.486970
0.411868
0.428557
0.416636
0.323653
0.441670
0.391603
0.479817
0.391603
0.303984
0.283718
0.309944
0.380874
0.582933
0.469685
0.352859
0.375509
0.454783
0.582933
0.549555
0.366569
0.628829
0.533462
0.409484
0.452995
0.314713
0.475645
0.330806
0.574589
0.398755
0.524521
0.520945
0.629425
0.495911
0.586510
0.514984
0.543594
0.488758
0.605583
0.539422
0.646710
0.749826
0.601411
0.638962
0.676513
0.669956
0.700951
0.598431
0.621676
0.815988
0.749826
0.783801
0.885725
0.764728
0.807643
0.872612
0.754595
0.814795
0.972748
1.256466
1.166463
1.540780
1.539588
2.779961
8.618832
39.412975
91.897845
216.813684
345.907807
543.860793
689.685941
816.229582
836.141706
734.750032
604.074597
405.420661
269.573927
132.326484
68.421960
23.897886
10.563731
5.089641
4.427433
4.354715
4.115701
4.113913
4.149675
4.014969
##ZVALUE=385
0.278950
0.364780
0.457764
0.317693
0.320673
0.327826
0.180602
0.323653
0.352859
0.301600
0.303984
0.408888
0.285506
0.262856
0.442863
0.364780
0.437498
0.484586
0.452995
0.441670
0.364780
0.297427
0.395775
0.283718
0.254512
0.437498
0.466704
0.412464
0.462532
0.551939
0.521541
0.426769
0.456572
0.382662
0.512600
0.637770
0.612736
0.494719
0.511408
0.550747
0.612736
0.655651
0.687838
0.572801
0.442863
0.568628
0.489950
0.678897
0.686646
0.567436
0.696778
0.620484
0.697970
0.569820
0.576973
0.565648
0.744462
0.673532
0.759959
0.718832
0.557899
0.597835
0.640750
0.790954
0.790954
0.825524
0.899434
0.957847
1.029968
1.141429
1.253486
1.429915
1.408458
1.705885
4.207492
22.098422
57.671666
146.886706
261.326432
458.107591
608.822703
754.874945
799.074769
768.779516
685.525537
528.600812
397.667885
240.265727
147.916675
69.041848
29.748678
7.464886
4.516840
3.962517
4.090667
4.036427
##ZVALUE=390
0.242591
0.322461
0.344515
0.423789
0.397563
0.333786
0.348687
0.359416
0.404716
0.240803
0.330806
0.306964
0.328422
0.284910
0.348687
0.182986
0.354648
0.441670
0.370741
0.327826
0.343919
0.241995
0.321865
0.282526
0.465512
0.425577
0.500679
0.423789
0.496507
0.461936
0.586510
0.511408
0.494719
0.391603
0.399947
0.451803
0.475645
0.656843
0.604987
0.595450
0.602603
0.457764
0.700951
0.656843
0.571609
0.752807
0.505447
0.660419
0.736713
0.789762
0.755787
0.753999
0.726581
0.507832
0.670552
0.708699
0.735521
0.525713
0.879765
0.810623
0.629425
0.786781
0.706911
0.818968
0.632405
0.912547
0.862479
0.872612
1.025796
1.150966
1.228452
1.204610
1.289845
1.374483
1.369715
1.353621
2.097487
11.205673
34.832954
105.500817
200.117826
379.480720
526.677966
692.970753
775.247812
800.045729
748.207569
617.122650
495.662689
337.840915
220.825672
110.909939
59.756637
17.632842
6.034970
3.861785
##ZVALUE=395
0.299811
0.334978
0.088811
0.188947
0.362992
0.144839
0.370741
0.266433
0.327826
0.223517
0.198483
0.244975
0.227690
0.360608
0.302792
0.337958
0.319481
0.254512
0.343919
0.217557
0.253916
0.296831
0.330806
0.192523
0.314713
0.238419
0.304580
0.364780
0.437498
0.323653
0.433922
0.372529
0.459552
0.422597
0.591874
0.459552
0.582933
0.484586
0.444651
0.544786
0.581741
0.741482
0.739694
0.545979
0.649691
0.620484
0.726581
0.582933
0.640750
0.482798
0.603795
0.747442
0.663996
0.547767
0.679493
0.597835
0.614524
0.696778
0.699759
0.687838
0.851750
0.839829
0.740886
0.784993
0.729561
0.887513
0.700951
0.909567
0.949502
1.041889
1.013875
0.956655
1.033545
0.975728
1.119971
1.155734
1.153946
1.438856
1.680851
5.037785
27.250648
66.132545
160.216689
270.570517
459.412932
605.826974
761.079788
816.344023
786.421895
699.290037
536.699891
398.909450
239.751935
146.696568
66.230893
31.295419
##ZVALUE=400
0.469685
0.462532
0.370741
0.379682
0.328422
0.210404
0.324845
0.433922
0.300407
0.373721
0.401735
0.336766
0.453591
0.341535
0.372529
0.267625
0.374913
0.417829
0.339746
0.325441
0.346899
0.318885
0.382662
0.288486
0.387430
0.324845
0.429749
0.559688
0.632405
0.514984
0.508428
0.481606
0.417829
0.532866
0.269413
0.536442
0.458956
0.784993
0.465512
0.632405
0.534654
0.456572
0.630617
0.708699
0.460744
0.511408
0.693798
0.591874
0.781417
0.651479
0.622869
0.752807
0.678897
0.649691
0.729561
0.724792
0.691414
0.902414
0.870824
0.696778
0.760555
0.890493
0.818968
0.925660
0.885725
0.947714
1.031756
0.858903
0.993609
1.227856
0.996590
1.068711
1.210570
1.174808
1.103878
1.206994
1.083612
1.167655
1.141429
1.474619
1.277924
3.842711
12.379885
44.912696
98.005533
221.584439
351.564884
546.662807
675.871968
779.902935
792.431831
701.235533
583.007932
400.976539
279.358625
156.641006
##END
