##TITLE=DWF25
##FORMAT=SPECTACLE-ASCII V-1.2
##DATA TYPE=ULTRAVIOLET SPECTRUM
##SECOND TYPE=ULTRAVIOLET SPECTRUM
##DATE=12/19/17
##TIME=15:55:02
##SPECTROMETER/DATA SYSTEM=SPECTACLE
##XUNITS=NM EM
##YUNITS=ENERGY
##YFACTOR=1
##FIRSTX=220
##LASTX=410
##NPOINTS=96
##3DDATA=Equidistant
##ZUNITS=NM EX
##FIRSTZ=210
##LASTZ=400
##ZPOINTS=39
##XYDATA=(Y..Y)
##ZVALUE=210
15.186667
15.393496
12.775660
11.959672
11.312962
9.592772
9.477735
7.199645
6.517768
5.479455
4.004836
3.251433
2.446771
2.205968
2.161860
2.312660
2.548695
2.419949
2.209544
2.539754
2.901554
3.182888
3.257990
3.115535
3.558993
4.695654
4.617572
5.518794
7.381439
8.148551
9.149909
10.154843
11.052489
12.214780
12.047887
13.194680
11.984706
12.277961
12.798905
13.337731
13.222694
12.505651
11.447668
11.797547
10.946989
10.262728
11.137724
10.606647
9.114742
9.358525
11.382699
8.876920
9.720922
9.188652
8.856654
7.881522
8.732677
7.917881
8.770823
8.960962
8.320808
8.709431
7.658601
7.116795
7.286668
7.353425
7.760525
7.917881
9.550452
9.232759
9.914637
11.079907
12.699962
14.610887
14.413595
16.958714
15.130639
14.051795
14.267564
14.278889
14.324784
13.019443
11.704564
10.769963
8.780956
8.614659
6.995797
6.070733
7.622838
7.094741
9.370446
12.286901
15.747547
19.582510
25.311708
30.477643
##ZVALUE=215
40.330887
38.759708
33.462644
26.071668
21.927953
17.706752
16.189814
15.571713
15.918612
13.394952
10.665655
9.587407
6.070733
5.313754
3.953576
3.511906
2.356768
2.220869
2.808571
2.828836
3.063679
3.154874
2.575517
2.926588
3.612638
4.898906
5.863905
6.934404
8.667707
9.213686
10.559559
12.562871
10.391474
14.319420
14.258623
14.797449
16.696453
15.636683
16.351938
16.164780
16.053915
14.697909
14.777780
15.870929
13.504624
13.175607
12.928843
11.657476
11.422634
10.432601
10.264516
11.537671
11.239648
10.249615
10.383725
9.981990
9.624958
10.441542
8.689761
9.602904
10.055900
9.630919
9.234548
8.872747
8.021593
7.604957
8.362532
8.437634
8.591413
9.179711
10.217428
10.791421
11.898875
11.446476
12.084842
13.946891
14.427900
13.569593
14.150739
11.237860
11.473894
9.235740
8.841753
8.203983
8.142591
5.927682
5.548596
5.704761
5.824566
5.446672
4.792809
4.531741
3.890991
6.098747
6.765723
12.193918
##ZVALUE=220
84.794760
86.296797
81.776977
68.575740
58.973432
46.225786
35.466552
27.542710
27.598739
24.390817
24.777651
24.551749
22.350550
17.870665
14.162660
10.817647
6.558895
4.809499
3.805757
3.347993
3.173947
3.478527
3.468990
3.060699
3.935695
4.816651
5.803704
7.152557
9.591579
10.375977
11.953712
14.574528
16.068816
18.004775
16.929507
18.557906
19.091964
18.477440
18.970966
18.693805
18.907785
18.352866
18.547773
15.497804
15.713573
14.534593
13.694763
13.839602
14.345646
13.363957
11.248589
14.303923
13.639927
12.931824
12.986660
13.048649
12.283921
11.614561
12.754798
10.995865
12.551546
11.679530
11.215806
10.248423
10.127425
9.592772
9.530783
9.350777
10.411739
10.523796
10.273457
10.672808
12.443662
12.644529
12.695789
13.031960
12.300611
11.614561
11.821985
10.555983
9.578466
8.723736
8.438826
6.802678
6.213784
6.562471
5.949736
4.278421
4.868507
4.459620
4.746914
4.983544
5.308986
5.965829
4.644990
4.742742
##ZVALUE=225
107.204914
108.232498
124.355555
140.274763
135.545731
125.631690
102.163553
79.560876
60.599446
43.867826
38.839579
36.729574
38.602948
37.784576
36.908984
33.060908
24.767518
20.482540
14.898777
8.607507
7.478595
4.761815
3.493428
4.016757
4.995465
4.641414
6.540418
7.517934
8.884668
10.983944
12.308955
14.083982
16.124845
17.209649
18.881559
19.006729
19.265413
19.462705
19.248724
18.294454
20.405650
17.766953
18.336773
17.254949
15.850663
15.095472
15.926957
15.694499
14.188886
14.495850
14.027953
14.357567
14.809966
14.775991
15.792847
15.929937
15.026927
15.456676
15.186667
13.894439
14.371872
13.504624
13.467669
13.469458
14.214516
12.246966
13.701916
12.112856
11.732578
12.255907
13.294816
11.503696
12.365580
12.966990
11.295676
11.495948
11.602640
11.336803
11.347532
11.201501
10.424852
8.711815
9.577870
8.130670
7.909536
6.947517
6.350875
6.122589
5.861521
5.484819
5.106926
5.130768
4.767776
5.840659
4.549623
5.528927
##ZVALUE=230
66.487789
72.807670
108.614564
161.286592
190.411806
227.038860
233.777761
216.078758
190.125704
150.396824
105.008483
75.944662
61.601996
55.640936
57.757497
59.188604
62.147975
56.764483
50.878525
41.516423
31.223893
19.746423
13.299584
8.539557
6.131530
6.026626
6.215572
8.568764
8.271933
11.369586
12.287498
12.154579
14.693737
14.515519
15.696883
16.063452
16.693473
17.100573
17.786622
18.845797
16.948581
17.455816
17.343760
16.649961
15.167594
14.507771
14.423728
14.118552
13.836622
12.829900
14.859438
16.254783
15.758872
14.869571
15.743971
16.449690
17.395616
16.397834
17.747879
16.060472
16.643405
16.620755
17.303824
15.949607
15.899539
14.229417
13.732910
13.938546
13.416409
13.311505
14.445782
14.065504
14.469624
14.583468
13.725758
13.860464
12.978911
13.010502
11.847615
11.479855
9.540915
11.440516
8.525848
8.111596
9.206533
7.972717
7.317662
7.384419
6.627440
5.685687
6.390810
5.275607
6.141663
6.937981
6.413460
5.686879
##ZVALUE=235
17.426610
21.955967
44.173598
95.942616
150.484443
218.676925
280.020833
336.135626
359.712839
342.384577
307.257771
235.148668
174.742937
115.349889
92.660785
81.339478
83.392859
82.857609
95.118880
91.236830
85.064769
70.173740
51.304698
38.007498
22.956729
16.736984
11.849999
8.533597
8.311868
9.728670
9.246469
10.151863
10.737777
11.760592
10.404587
12.011528
13.922453
12.439489
12.051463
12.560487
12.498498
12.638569
11.235476
12.614727
13.020635
12.278557
11.533499
10.683537
11.558533
12.421608
12.020469
12.971759
13.466477
13.836622
13.790727
15.124679
13.329983
15.461445
15.105605
14.040470
15.184879
14.576912
13.684630
14.342666
14.850497
14.410615
13.971925
13.856888
13.808608
13.707876
12.490749
14.020801
14.371872
14.756918
15.017986
15.100837
13.324618
13.184547
11.995435
12.255907
11.156797
10.964870
9.816885
9.027719
8.622408
9.056926
8.768439
8.015633
7.953644
8.411407
7.061958
7.779598
7.770658
6.940961
7.325411
7.593632
##ZVALUE=240
2.119541
2.414584
6.723404
16.240478
50.293803
89.573860
166.417956
252.593756
358.279943
425.516963
468.969941
463.519692
433.873534
337.250829
267.435908
177.598000
130.357742
98.435879
93.698502
97.822547
106.675625
115.560889
108.596683
101.554990
79.464912
61.855912
41.524768
31.051636
18.798709
12.624860
9.696484
8.751750
7.942915
9.152889
8.972883
8.434653
8.840561
8.243918
10.127425
8.938909
9.929538
8.999705
9.583831
8.918643
9.089708
8.779764
8.437634
9.194613
10.133982
8.860826
9.391904
9.808540
10.412931
10.961890
10.604858
12.044907
10.899901
10.941625
10.674596
12.228489
10.660887
11.757612
10.731816
11.424422
11.322498
10.485649
11.655688
10.954738
10.663867
11.951923
12.217760
12.324452
12.328625
12.737513
13.237596
12.826920
12.969971
12.325644
11.830926
11.396408
10.877848
10.806918
10.140538
9.833574
9.481907
8.826852
8.415580
8.631945
9.586811
8.015633
7.690787
7.569790
7.213950
7.846951
6.891489
7.909536
##ZVALUE=245
1.496673
1.530647
1.471639
1.658797
3.709793
11.882782
36.429763
76.259971
157.344937
240.965486
372.600555
463.753939
523.744822
544.802547
528.856516
431.751013
353.099704
239.760876
172.568560
111.891627
95.654726
91.279745
106.962919
118.724704
126.302838
122.579932
109.287500
93.063712
65.980554
52.037835
36.988854
22.474527
14.831424
11.186600
9.364486
8.876920
9.141564
9.096861
8.617640
8.781552
9.022951
8.998513
9.038448
8.676648
9.046793
8.283854
9.240508
8.820891
9.377599
9.093881
8.985996
9.060502
8.253455
8.851886
9.490848
8.833408
10.162592
9.886622
8.002520
9.661913
10.062456
9.250641
8.842945
8.765459
9.585619
8.411407
9.198785
9.737611
9.411573
9.878874
10.999441
10.433793
10.939837
10.183454
10.413527
10.371804
11.235476
10.273457
10.565519
9.920597
9.348989
8.551478
8.953810
8.078814
8.265972
7.470846
7.321835
6.993413
7.318854
7.205606
6.631613
6.676912
7.268786
6.151795
6.476641
6.398559
##ZVALUE=250
1.114607
1.371503
1.565814
1.230836
1.541972
1.625419
1.966953
7.444620
21.739602
52.743554
121.014714
213.433504
349.398851
453.506708
557.539463
608.131886
601.459742
549.136996
473.466516
335.505009
231.342912
137.164593
100.757480
87.836981
98.983645
114.830732
130.629539
134.980679
128.296614
114.604831
99.463463
72.625875
57.763457
36.620498
26.250482
17.524958
12.617707
10.187626
10.809898
11.033416
10.285974
10.268688
9.613633
10.315776
10.002851
9.375811
9.739995
8.930564
8.718967
9.309649
10.447502
8.936524
8.641481
8.285642
8.692741
9.396672
9.015799
8.812547
8.698702
8.359551
8.351803
8.971691
8.580685
7.902980
8.582473
8.445978
8.353591
7.915497
8.597970
8.573532
9.864569
9.228587
9.147525
8.779764
9.842515
9.331703
9.334683
8.916855
8.466840
7.675886
8.499622
7.294416
6.618500
6.726980
6.989837
6.328821
6.375909
6.976724
6.183982
6.345510
6.434917
5.696416
5.828738
5.610585
5.255938
5.342960
##ZVALUE=255
1.058578
1.172423
1.112819
1.232624
1.151562
1.179576
1.460910
1.530647
1.664758
3.874898
16.959906
42.346716
89.011788
189.488530
292.009711
446.484685
558.291674
652.841926
683.174729
642.059445
555.227995
438.697934
282.206535
184.598565
108.075738
86.810589
83.855987
96.381903
122.006536
133.898854
140.973926
139.577985
124.604702
105.184913
84.731579
58.681965
41.477680
26.283860
19.011497
14.832616
13.294816
12.085438
13.286471
11.611581
11.815429
12.206435
10.994673
10.016561
10.919571
10.449886
10.446906
10.202527
9.850860
10.765791
9.732842
10.006428
9.886622
9.622574
9.266734
9.630919
8.993745
8.854866
8.682609
8.415580
8.454919
7.622838
7.777810
8.127689
8.420944
8.391738
8.072853
8.575916
8.467436
8.792877
8.675456
8.622408
8.502603
7.739663
7.636547
6.656647
7.244945
6.465912
6.288886
5.928874
5.304813
5.962849
5.152822
5.256534
5.185604
5.465746
5.560517
5.067587
4.590750
4.636645
4.852414
4.918575
##ZVALUE=260
0.895858
1.064539
0.830889
1.126528
1.081824
1.238585
1.123548
1.242757
1.355410
1.489520
1.541972
2.026558
6.610751
28.128624
63.131452
150.360465
243.985653
397.992730
529.036522
679.703951
748.905540
750.932693
665.149689
550.802946
370.329618
252.895951
152.273774
99.030733
75.447559
79.941750
96.096992
124.112964
141.326785
151.425600
149.948597
133.707523
115.769506
87.606907
68.946481
45.693517
33.469796
23.571849
18.863678
15.558600
14.062524
14.450550
12.761950
12.838840
11.735559
12.761950
13.255477
11.585951
12.600422
11.505485
11.880994
10.802746
10.275841
10.631680
10.029674
9.537935
10.199547
9.473562
9.828806
9.135604
9.625554
8.860826
8.895993
8.273721
8.012652
8.296967
8.001924
8.147955
8.056760
8.063912
8.356571
7.637739
7.950664
6.853938
6.832480
7.229447
6.521940
6.312728
6.042719
5.232692
5.439520
5.031824
4.440546
4.559755
4.832745
4.580617
4.602671
4.367828
4.634857
3.860593
4.459620
4.126430
##ZVALUE=265
1.107454
0.753999
1.247525
1.145601
0.997782
0.951886
0.884533
0.967979
1.139641
1.312494
1.342893
1.443624
1.434684
1.803637
3.509521
17.106533
43.462515
111.820698
197.169781
369.452834
508.707762
647.709966
782.618523
813.324451
741.294026
641.173720
477.213860
342.593789
196.828842
126.479864
84.027648
70.410967
82.517862
111.383796
131.642818
154.067874
157.912970
152.899623
139.039755
115.490556
91.906786
66.539645
50.046444
33.396482
25.149584
19.262433
16.576648
16.079545
15.363693
15.037656
14.622808
13.894439
13.666749
12.990832
13.451576
11.659861
13.077855
11.528730
11.231899
11.868477
11.105537
10.630488
10.073781
10.049939
9.210706
9.039640
8.813739
9.026527
8.330941
9.014606
8.474588
8.068681
8.429885
8.530617
8.429885
7.573962
7.277727
6.916523
6.712675
6.251931
5.888939
6.086826
5.227923
5.244613
5.369782
5.058646
4.862547
4.637837
4.339814
4.450679
4.222989
4.117489
4.493594
4.367828
4.096627
4.067421
##ZVALUE=270
0.916719
0.946522
0.851750
1.069903
1.003742
0.976920
1.002550
1.050830
1.040697
1.058578
1.143813
1.293421
1.113415
1.149774
1.341701
1.643896
1.871586
8.624792
23.867488
78.265667
157.232881
273.444653
472.028852
631.688833
797.637701
853.883028
836.388469
755.121708
590.925813
446.789861
278.649926
170.463920
104.950666
66.712499
67.104697
89.624524
113.387704
139.744878
153.243542
160.571933
159.152746
141.734481
120.982528
90.982914
68.862438
45.997500
34.609437
23.913980
20.116568
16.399622
14.969707
14.800429
14.406443
14.478564
13.662577
13.598800
13.025999
12.908578
12.039542
12.013912
11.991858
11.638999
10.506511
10.317564
10.246634
9.773970
9.321570
9.102821
9.434819
8.721948
9.049773
8.969903
8.162856
8.209944
7.544756
8.129478
7.544756
6.875992
7.064939
6.069541
5.960464
5.751848
5.744696
5.397797
5.011559
4.853606
4.811883
4.877448
4.505515
4.008412
4.219413
3.951788
4.006624
4.017949
3.970861
4.000664
##ZVALUE=275
0.949502
0.776649
0.788569
0.899434
0.877976
0.858903
0.902414
0.884533
0.906587
1.103878
0.991821
1.039505
1.071692
1.139641
1.234412
1.098514
1.294613
1.346469
1.524687
3.803968
14.706850
42.375922
123.621821
231.734514
419.726968
568.036437
741.681457
835.415721
886.054635
838.525891
736.450553
553.131700
396.513939
219.478607
131.884813
69.957972
55.762529
65.979958
84.594488
111.085773
131.149888
151.402950
157.239437
150.611997
139.717460
111.406446
91.419816
65.885782
48.077703
31.448603
24.151802
17.727613
14.953613
13.925433
13.541579
13.231635
13.653636
13.216734
12.968779
12.086630
11.649728
11.559725
11.355877
10.650754
10.597706
10.105968
9.992719
9.103417
9.095669
8.959770
9.006858
8.861423
7.848740
8.279681
7.932782
7.465482
7.011890
7.050633
7.075667
6.313920
6.215572
5.411506
5.560517
4.764795
4.706979
4.679561
4.906654
4.448891
4.228950
4.319549
4.507899
3.916621
3.598928
4.006624
3.959537
3.795624
##ZVALUE=280
0.829697
0.920892
0.839829
0.850558
0.881553
0.614524
0.854731
0.772476
0.880957
0.971556
0.728965
0.936985
1.040697
0.843406
0.853539
1.031756
0.831485
1.207590
1.373887
1.298785
1.585484
2.051592
9.298921
31.824708
97.510815
178.549886
329.011679
477.239490
678.030849
805.308819
880.347490
880.534649
797.683597
617.145896
456.796885
267.203450
162.607431
79.961419
50.997734
45.459867
57.692528
82.616806
102.691650
127.920508
141.018629
147.267580
141.392946
128.199458
108.307004
82.262754
63.380599
41.900873
31.159520
19.923449
15.786886
13.041496
12.116432
12.136698
11.645555
11.076927
10.813475
10.865927
10.607839
10.324717
10.165572
9.876490
9.547472
9.190440
8.995533
9.177923
8.561611
8.482933
8.619428
7.687807
7.707477
7.711649
7.299781
6.805658
6.891489
6.223917
5.929470
5.436540
5.429983
5.373955
5.202889
5.220771
4.520416
4.285574
4.340410
4.366636
4.139543
4.143715
4.285574
4.015565
3.930926
3.900528
##ZVALUE=285
0.774860
0.657439
0.737906
0.823736
0.746846
0.780821
0.883937
0.815988
0.668764
0.746846
0.849962
0.765920
0.846982
0.869632
1.027584
1.117587
0.893474
1.004934
1.198649
1.259446
1.152754
1.305938
1.356602
1.607537
4.430413
15.385747
54.345727
113.114715
245.737433
378.424525
525.151491
725.474954
844.836831
908.167958
866.472721
714.356899
562.216640
351.130962
225.409865
107.859969
59.354901
33.951998
35.136938
51.242709
69.999695
98.964572
116.786957
132.163763
140.801668
138.015747
126.861930
105.737448
85.750818
60.040951
42.887926
26.874542
19.645691
13.599992
11.813641
10.559559
10.354519
9.496808
9.553432
9.106994
9.063482
8.493662
8.276701
8.728504
8.612871
8.085966
8.425713
7.861853
7.563829
7.545948
7.152557
6.564856
6.825924
6.009936
5.864501
5.497932
6.115437
5.262494
5.001426
4.853606
5.135536
4.695654
4.503727
4.292727
4.427433
4.482865
4.034638
3.816485
4.018545
3.948808
4.126430
3.621578
##ZVALUE=290
0.635982
0.582933
0.774860
0.640750
0.760555
0.723600
0.801682
0.885725
0.882745
0.960827
0.791550
0.894666
0.944734
0.982881
0.796914
0.871420
1.046658
0.953674
0.821948
0.947714
0.989437
0.992417
1.260638
1.121759
1.297593
1.713634
2.250671
6.658435
29.220581
70.729852
138.641596
291.364789
443.022847
668.327808
803.928971
909.444690
911.273956
791.177750
653.066635
439.661741
294.038653
148.179531
79.551935
33.483505
23.774505
32.131672
44.512749
66.243410
86.137652
110.896826
125.143528
134.174824
133.342743
121.705532
103.651881
78.510642
59.214830
39.461851
27.023554
16.902685
12.742877
9.813905
8.919835
7.802844
8.003712
7.776618
7.146597
7.534623
7.414818
7.212758
7.364750
7.061958
7.019639
6.786585
6.630421
6.103516
6.256700
5.668998
5.457997
5.248785
5.026460
4.898906
4.856586
4.264712
4.748702
4.505515
4.292727
4.147887
4.249811
4.101992
3.927946
3.713965
3.955960
3.772974
3.529787
3.523827
##ZVALUE=295
0.703931
0.719428
0.740886
0.734925
0.713468
0.600815
0.747442
0.696778
0.685453
0.616908
0.827909
0.751615
0.806451
0.735521
0.710487
0.906587
0.744462
0.917912
0.963807
1.055598
1.039505
0.951886
1.094937
1.135468
1.164675
1.512766
1.441836
1.478791
1.710653
3.045797
9.992719
43.443441
97.554922
228.645802
369.163752
585.416555
734.679699
876.568556
915.822983
846.771002
732.558966
527.599454
372.098684
199.628472
109.193921
42.206645
22.964478
19.132495
26.356578
43.160915
58.818460
84.010959
101.008415
122.156739
126.915574
126.346946
115.758777
94.993711
78.568459
55.413842
39.721727
24.710894
17.196536
10.805726
8.998513
7.100701
6.634593
6.701946
6.304979
6.086826
6.436706
6.330609
6.261468
6.066561
5.812645
5.462766
5.448461
5.334616
5.436540
5.004406
4.704595
4.502535
4.210472
4.347563
4.385710
4.240870
4.006624
4.171729
3.950000
4.015565
3.647804
3.909469
3.779531
3.490448
3.392696
3.525615
##ZVALUE=300
0.640750
0.714660
0.515580
0.570416
0.687838
0.746846
0.761747
0.613928
0.611544
0.682473
0.670552
0.780821
0.605583
0.573993
0.791550
0.690818
0.861883
0.756979
0.819564
0.838637
0.810623
0.839829
0.919700
0.841618
1.159906
0.930429
1.255870
1.136661
1.267791
1.122952
1.467466
1.881719
6.819963
23.317933
76.389909
148.978829
302.627683
456.186533
671.914816
798.303485
899.519920
898.864865
781.869888
648.061633
432.868600
283.464789
142.892003
77.586770
30.059814
16.635656
17.148852
23.520589
39.151907
52.653551
76.683760
95.165968
113.200545
120.986700
120.426416
111.839771
93.898773
77.269673
54.741502
39.740801
24.222732
16.223788
9.925961
7.753968
6.225705
5.913973
5.854964
5.398989
5.510449
5.323887
5.259514
4.960895
4.684925
4.984736
4.634857
4.627705
4.446507
4.168749
4.287958
4.142523
3.922582
3.895760
3.818870
3.892779
3.879666
3.856421
3.668666
3.576875
3.745556
3.304482
3.363490
3.584623
##ZVALUE=305
0.560880
0.712872
0.586510
0.533462
0.890493
0.745654
0.767708
0.803471
0.784993
0.749826
0.759959
0.754595
0.665784
0.757575
0.711679
0.605583
0.699759
0.815988
0.753999
0.954866
0.787973
0.740886
0.803471
0.789762
0.935793
0.938773
0.982881
0.922680
1.121759
1.184940
1.438856
1.347661
1.467466
1.741648
2.595782
14.889836
42.617917
116.537809
211.585760
394.442677
549.852848
747.326612
859.843493
903.033614
845.524669
684.275627
533.361435
336.606503
212.667584
99.179745
48.920512
18.327832
13.103485
15.875697
22.755861
36.342740
51.955581
73.991418
89.773536
106.660724
113.845468
111.974478
105.119944
90.025663
72.300434
50.360560
36.484599
22.321939
15.216470
9.084940
6.857514
5.943775
5.195737
5.101562
4.891753
4.846454
4.605651
4.221797
4.421473
4.262924
4.236698
3.988743
3.892779
3.803968
4.060864
4.015565
4.046559
3.944635
3.969669
3.662705
3.602505
3.493428
3.626943
3.569722
3.300905
3.313422
##ZVALUE=310
0.581741
0.409484
0.627637
0.802875
0.608563
0.597835
0.547767
0.591874
0.590682
0.620484
0.501871
0.743866
0.589490
0.746846
0.602603
0.665784
0.720620
0.880957
0.685453
0.555515
0.753999
0.808835
0.728965
0.896454
0.919700
0.985861
0.966787
0.935793
0.943542
1.067519
0.949502
1.005530
1.127720
1.148582
1.319647
1.441836
1.929998
5.119443
26.001930
62.351823
155.230761
267.698765
465.990901
624.343753
801.118016
883.032680
881.505013
801.588893
625.427961
462.219715
267.615914
160.458684
69.495440
33.289790
12.741685
10.907650
14.063716
19.845963
31.645894
44.320822
64.781904
80.046654
96.778870
105.038881
108.079910
102.138519
86.548924
71.203709
49.288869
34.568906
21.400452
14.559627
8.882880
6.935596
5.148649
4.797578
4.391670
4.278421
3.967881
3.712773
3.773570
4.026890
3.553629
3.759861
3.777742
3.649592
3.699660
3.693700
3.571510
3.416538
3.469586
3.624558
3.433824
3.291965
3.304482
3.196597
##ZVALUE=315
0.450611
0.535846
0.628829
0.478625
0.606775
0.518560
0.650883
0.589490
0.481606
0.488758
0.520945
0.553727
0.699759
0.609756
0.679493
0.601411
0.631809
0.677705
0.758767
0.703931
0.682473
0.811815
0.737906
0.725985
0.708699
0.820756
0.765920
0.809431
0.973940
0.889897
0.935793
1.010895
1.170635
1.068711
1.254678
1.301765
1.206994
1.441836
1.805425
2.705455
13.148785
37.729740
109.819770
200.290680
379.208922
537.700653
730.784535
835.172534
891.915560
840.345621
695.315003
545.659661
338.404775
213.196874
100.402832
48.745871
16.241670
10.008812
9.397864
12.115836
18.339753
26.991963
43.126941
56.449771
76.534748
90.051889
100.264549
100.695491
93.527436
81.661940
63.257813
49.167871
32.915473
22.305846
12.822747
8.623600
5.980730
4.622936
3.929734
3.765821
3.608465
3.397465
3.574491
3.468990
3.490448
3.550649
3.590584
3.690720
3.336668
3.447533
3.350973
3.631711
3.315806
3.208518
3.210902
3.436804
##ZVALUE=320
0.582933
0.559688
0.595450
0.512600
0.502467
0.557899
0.500679
0.630617
0.604987
0.711679
0.648499
0.531673
0.675917
0.470877
0.631809
0.567436
0.736713
0.546575
0.599623
0.590682
0.785589
0.776649
0.707507
0.620484
0.666976
0.632405
0.794530
0.691414
0.977516
1.009703
0.848770
0.802875
0.932813
0.930429
1.006722
1.159906
1.061559
1.139641
1.306534
1.131892
1.440644
1.751781
4.258752
23.336411
62.602758
161.098838
271.220803
451.144576
608.049631
751.958489
869.972706
871.136785
764.271617
629.829764
420.127511
275.996923
137.929916
71.678758
25.011897
12.188554
7.817745
8.090734
10.808706
15.196800
24.583936
36.267638
53.382516
69.178939
85.809827
93.230605
95.941424
89.993477
76.578856
62.474608
45.821667
33.711791
20.265579
13.237596
7.769465
5.617738
4.413724
3.649592
3.381968
3.062487
3.094673
3.160834
3.372431
3.259778
3.113747
3.052950
3.337860
3.039837
3.191829
3.187656
3.126860
3.179908
##ZVALUE=325
0.618696
0.531673
0.671744
0.537634
0.661612
0.688434
0.637770
0.702739
0.768900
0.874996
0.778437
0.863671
0.512600
0.754595
0.635982
0.535846
0.715852
0.634789
0.675917
0.745654
0.768900
0.729561
0.774860
0.848770
0.707507
0.849962
0.893474
0.825524
0.863671
0.828505
0.747442
0.983477
0.907779
1.123548
0.893474
1.005530
0.984669
1.037717
1.064539
1.206994
1.272559
1.340508
1.345873
1.674891
2.736449
15.908480
42.086840
110.083818
199.975967
380.043983
531.261563
716.009736
816.920996
858.034492
801.136494
638.999939
487.732887
298.356414
184.845924
82.514882
39.581656
14.192462
7.804632
6.683469
7.029772
10.308623
14.154911
23.693442
34.725666
52.593946
65.001845
78.991652
85.852742
87.791681
82.974434
69.421530
57.212710
41.136742
29.369593
17.868876
11.813641
6.650686
5.138516
3.689528
3.779531
2.915859
3.009439
3.209710
2.982616
2.993941
3.064871
2.847910
3.059506
2.871752
3.041625
3.052950
##ZVALUE=330
0.573993
0.670552
0.610948
0.612736
0.783801
0.633597
0.748634
0.650883
0.667572
0.761747
0.671744
0.565648
0.796914
0.773668
0.670552
0.764728
0.564456
0.651479
0.668764
0.638962
0.703931
0.758767
0.735521
0.724792
0.703931
0.719428
0.616908
0.727773
0.860691
0.861883
0.700951
0.815988
0.877976
1.118779
0.884533
0.912547
0.871420
0.930429
0.987649
0.998974
1.001954
1.229644
1.317859
1.269579
1.427531
1.550913
1.807809
6.765723
21.981001
72.465539
140.941739
285.278559
422.939658
619.354844
747.491717
830.014944
813.452601
689.010620
559.574962
370.484591
240.917802
111.438632
56.406856
20.881891
9.625554
5.792975
5.795956
6.781816
8.905530
14.358759
21.158457
34.352541
46.962500
63.726902
73.790550
81.243515
81.863999
76.382756
67.034960
51.075816
39.084554
25.152564
17.926693
11.395812
7.767677
5.018711
4.054904
3.480911
3.251433
3.067851
2.946854
3.049970
2.994537
3.052950
2.906919
2.950430
##ZVALUE=335
0.486970
0.478625
0.419617
0.537634
0.425577
0.597835
0.529885
0.629425
0.482798
0.510812
0.555515
0.467896
0.382662
0.560880
0.383854
0.579953
0.513792
0.609756
0.652671
0.663996
0.631809
0.477433
0.655651
0.643730
0.684857
0.643730
0.666976
0.736713
0.760555
0.675917
0.647902
0.776649
0.782609
0.558496
0.627637
0.769496
0.856519
0.886917
0.744462
0.856519
0.791550
0.967979
0.961423
1.027584
0.990629
1.082420
1.195669
1.180768
1.319647
3.139973
11.214018
43.732524
94.171762
210.672021
340.930820
538.956523
672.307014
786.518455
809.618831
729.953647
615.726709
425.122976
288.391709
150.694847
79.783797
27.954578
12.109876
6.200671
5.409718
5.321503
5.975962
8.400679
12.044907
21.040440
30.532479
45.509934
57.002902
69.453716
75.056553
75.864792
71.468949
60.004592
50.516725
37.228465
27.999878
17.506480
11.878610
7.363558
5.094409
3.476739
3.125668
2.845526
2.745986
2.563000
2.615452
2.692938
##ZVALUE=340
0.532866
0.540614
0.742674
0.581741
0.696778
0.633597
0.604987
0.719428
0.569820
0.436902
0.543594
0.597835
0.455976
0.485778
0.550747
0.628829
0.655651
0.439882
0.754595
0.646710
0.610948
0.691414
0.721812
0.622869
0.712872
0.734925
0.709891
0.810623
0.693798
0.712872
0.605583
0.683665
0.770688
0.849962
0.777841
0.758767
0.789762
0.871420
0.865459
0.824928
0.786781
1.029968
0.917912
0.883937
0.883937
0.895858
0.954866
1.034737
1.060963
1.220703
1.358986
1.848936
5.427599
27.124882
66.588521
166.211724
276.696682
452.732444
592.702627
733.071566
785.049796
747.819543
657.588840
490.558743
347.613692
181.590915
99.460483
41.265488
17.006993
6.535649
5.475879
5.250573
5.076528
5.906820
7.767677
12.876987
18.904805
30.068755
40.540695
54.929852
64.277649
71.172714
71.454644
66.579580
59.489608
47.681928
37.843585
25.716424
18.401742
11.307597
7.593632
4.786849
3.758669
2.937913
2.650619
2.788901
##ZVALUE=345
0.635982
0.579953
0.615716
0.586510
0.555515
0.633597
0.615716
0.690818
0.632405
0.756979
0.753999
0.655651
0.606775
0.658631
0.574589
0.757575
0.809431
0.738502
0.701547
0.569820
0.542998
0.612736
0.778437
0.667572
0.798702
0.675917
0.724792
0.760555
0.674725
0.726581
0.731945
0.694990
0.734925
0.886917
0.742674
0.807643
0.856519
0.912547
0.839829
0.738502
0.818968
0.870824
0.927448
0.880957
0.862479
1.027584
0.985861
1.054406
1.009703
1.063943
1.237988
1.270771
1.357794
1.477599
2.646446
14.797449
41.963458
113.762617
199.916959
356.906652
493.757725
661.401749
742.480755
757.844448
694.657564
537.412763
402.487516
238.322616
135.893822
54.507852
24.787784
9.065866
5.751848
4.869699
4.837513
4.790425
5.086660
7.196665
10.546446
18.256903
26.000738
39.205551
48.383474
58.157444
63.715577
66.043735
63.483715
55.663586
47.756433
35.492778
26.805997
17.568469
11.723638
7.124543
4.936457
3.558993
##ZVALUE=350
0.480413
0.344515
0.433922
0.519753
0.566840
0.466704
0.543594
0.506639
0.626445
0.596642
0.626445
0.393987
0.664592
0.573993
0.496507
0.398755
0.545979
0.393987
0.395775
0.694990
0.599623
0.696778
0.541806
0.437498
0.526905
0.542998
0.515580
0.573993
0.706911
0.633597
0.607967
0.582933
0.619888
0.730753
0.585914
0.748634
0.530481
0.596642
0.702739
0.710487
0.805855
0.651479
0.892878
0.528693
0.700951
0.702739
0.785589
0.800490
1.030564
0.843406
0.858903
1.077652
0.970960
1.106858
1.165867
1.182556
1.601577
7.206798
22.818446
73.464513
139.967799
279.651880
408.439636
575.504899
678.084493
739.217997
708.233714
589.595437
455.857515
274.611712
168.617964
77.706575
36.023855
11.056662
5.972981
4.559755
4.465580
4.243851
4.047751
4.843473
6.460547
10.232925
15.248656
23.704767
31.672716
43.028593
50.816536
58.036447
59.770942
58.352947
52.771568
42.790771
34.827590
25.134683
18.093586
11.397600
##ZVALUE=355
0.417829
0.450611
0.411868
0.507832
0.341535
0.520945
0.398755
0.528693
0.560880
0.417829
0.508428
0.498891
0.529885
0.366569
0.544786
0.537634
0.543594
0.554919
0.596642
0.647902
0.377893
0.487566
0.507832
0.648499
0.668764
0.645518
0.554919
0.576973
0.640750
0.570416
0.501871
0.689626
0.580549
0.489950
0.594854
0.521541
0.547767
0.617504
0.579953
0.692606
0.550747
0.632405
0.780821
0.590682
0.615716
0.709891
0.702739
0.781417
0.827909
0.793934
0.842810
0.860691
0.863671
0.968575
0.983477
0.968575
1.069903
1.206994
1.362562
3.314614
12.147427
48.428774
98.997951
205.885768
323.818922
500.781536
616.814494
708.100796
706.637502
614.666939
498.090982
328.789949
209.857821
93.299747
45.340657
14.397502
6.799698
4.674792
4.241467
3.908873
3.768802
3.835559
4.381537
5.445480
8.262992
13.563633
19.577742
27.832985
36.070943
45.984983
51.484704
54.499507
53.392649
48.993826
42.344928
32.882690
##ZVALUE=360
0.466704
0.533462
0.572801
0.432730
0.482798
0.583529
0.527501
0.669956
0.624657
0.593662
0.466704
0.549555
0.461936
0.624657
0.546575
0.506639
0.647902
0.596642
0.658631
0.565648
0.540614
0.582933
0.603795
0.635982
0.537634
0.565648
0.554919
0.567436
0.608563
0.582933
0.641942
0.746846
0.575781
0.620484
0.720620
0.641942
0.615716
0.718832
0.689626
0.611544
0.710487
0.653863
0.751615
0.734925
0.703931
0.730753
0.859499
0.812411
0.812411
0.851750
0.940561
0.859499
0.857711
0.970960
0.918508
0.925660
0.998974
0.990629
1.098514
1.196861
1.362562
1.883507
5.402565
24.473667
60.222745
149.241686
246.481895
403.297544
535.187721
662.940741
694.577694
647.271872
552.708507
380.608439
254.511833
126.421452
65.782666
24.744868
10.433793
4.745722
4.078746
4.057884
3.801584
3.634691
3.607869
3.719926
4.447699
6.807446
9.865761
15.992522
22.591949
32.381415
39.047599
46.112537
49.203634
49.025416
##ZVALUE=365
0.429749
0.473857
0.603795
0.510812
0.579953
0.594854
0.561476
0.567436
0.500679
0.420809
0.451803
0.543594
0.327826
0.537634
0.553727
0.529885
0.569820
0.593662
0.535846
0.498891
0.521541
0.486970
0.555515
0.531673
0.532866
0.544786
0.586510
0.498891
0.533462
0.570416
0.625849
0.628829
0.573993
0.597835
0.591874
0.649691
0.579953
0.693798
0.603795
0.531673
0.550747
0.692606
0.721812
0.682473
0.799894
0.787973
0.829697
0.695586
0.719428
0.673532
0.695586
0.612736
0.847578
0.730753
0.942945
0.849962
0.923872
0.894666
0.974536
1.052618
1.083612
1.226664
1.343489
1.514554
2.642870
12.401938
36.286712
102.557540
184.740424
333.057642
460.886955
600.792766
662.573576
657.368898
579.875708
426.974893
306.060910
168.644786
93.251467
34.956932
14.574528
5.462766
4.123449
3.840923
3.649592
3.260970
3.281832
3.063679
3.178716
3.997684
5.208850
8.637905
12.347698
19.582510
25.718808
34.086704
##ZVALUE=370
0.464916
0.460744
0.489950
0.438690
0.479817
0.583529
0.521541
0.548959
0.479817
0.399947
0.624657
0.464916
0.502467
0.398755
0.415444
0.598431
0.532866
0.482798
0.540614
0.423789
0.422597
0.499487
0.406504
0.533462
0.566840
0.525713
0.523925
0.489950
0.552535
0.475645
0.558496
0.627637
0.833869
0.581741
0.589490
0.397563
0.576973
0.731945
0.642538
0.634789
0.658631
0.466704
0.665784
0.581741
0.632405
0.616908
0.654459
0.692606
0.751615
0.743866
0.746846
0.556707
0.669956
0.710487
0.563860
0.793934
0.662804
0.783801
0.697970
0.928640
0.992417
0.919700
0.931621
1.066923
1.072884
1.233816
1.643896
6.649494
22.507906
73.277950
137.291551
264.446735
385.905504
545.447469
629.612803
657.456517
609.734654
484.258533
362.909436
204.828978
116.140842
46.050549
21.116734
7.816553
4.468560
3.828406
3.460646
3.129840
3.002882
2.709627
2.644658
2.902746
3.318787
4.974604
7.131696
11.246800
##ZVALUE=375
0.456572
0.620484
0.595450
0.589490
0.466704
0.573993
0.491738
0.528693
0.557899
0.432730
0.666976
0.421405
0.610948
0.613928
0.404716
0.514984
0.615716
0.488758
0.588894
0.493526
0.449419
0.524521
0.515580
0.474453
0.621676
0.621676
0.762939
0.712872
0.596642
0.643730
0.648499
0.698566
0.677705
0.581741
0.567436
0.593662
0.641942
0.658631
0.739694
0.785589
0.759959
0.669956
0.601411
0.538826
0.581741
0.565648
0.610948
0.614524
0.728965
0.637770
0.680685
0.689626
0.793934
0.674725
0.854731
0.786781
0.665784
0.791550
0.711679
0.829697
0.891685
0.833869
0.804663
0.855923
0.968575
1.022816
1.069903
1.276731
1.495481
3.644824
11.952519
43.154955
93.332529
208.241940
323.414803
486.705899
585.448742
652.464032
638.823509
531.603694
417.710543
256.524682
162.000656
80.019832
40.380955
13.167858
5.815625
3.684759
3.476739
3.182888
3.038645
2.727509
2.782941
2.519488
2.715588
3.086925
##ZVALUE=380
0.462532
0.438690
0.301600
0.438690
0.435710
0.531673
0.554919
0.489950
0.487566
0.472665
0.454783
0.563860
0.403523
0.429749
0.473857
0.412464
0.510812
0.475645
0.610948
0.619888
0.616908
0.668764
0.629425
0.611544
0.563860
0.626445
0.614524
0.631809
0.537634
0.551939
0.590682
0.465512
0.614524
0.679493
0.684857
0.768900
0.723600
0.784993
0.835657
0.716448
0.721812
0.844598
0.642538
0.630617
0.674725
0.709891
0.760555
0.751615
0.804663
0.643730
0.690818
0.702739
0.798702
0.769496
0.731945
0.654459
0.925660
0.705719
0.855923
0.723600
0.770688
0.696778
0.783801
0.951886
0.707507
0.904799
0.934601
0.883937
1.078844
1.221895
1.461506
1.937747
6.538630
30.245781
70.455670
165.575743
267.953873
421.230793
535.933971
634.588003
644.254684
563.673973
467.257500
327.425003
219.467878
109.299421
56.285858
19.954443
8.616447
3.955960
3.440976
3.157854
2.871752
2.684593
2.702475
2.535582
##ZVALUE=385
0.410676
0.350475
0.397563
0.474453
0.373721
0.429749
0.484586
0.338554
0.362992
0.400543
0.413656
0.420809
0.433922
0.463724
0.315905
0.418425
0.410676
0.321865
0.451803
0.298619
0.532866
0.407696
0.427961
0.283718
0.490546
0.592470
0.462532
0.444651
0.655651
0.498891
0.755787
0.717640
0.789762
0.819564
0.897646
0.929832
0.950694
0.851750
0.880957
0.740886
0.855923
0.884533
0.781417
0.761747
0.805855
0.692606
0.774860
0.683665
0.724792
0.698566
0.773668
0.632405
0.725985
0.641942
0.637770
0.656843
0.772476
0.687838
0.728965
0.750422
0.745654
0.660419
0.599623
0.742674
0.952482
0.778437
0.764728
0.894666
0.945926
0.985861
1.035929
1.180768
1.247525
1.481771
3.235936
17.174482
43.713450
113.627911
199.872851
358.240008
477.458835
596.813560
633.906722
605.406761
534.973741
396.877527
283.208489
153.733492
87.475777
35.678744
14.542937
4.591942
3.387928
2.897978
2.880692
2.860427
##ZVALUE=390
0.457764
0.436902
0.349879
0.518560
0.326633
0.546575
0.512600
0.371933
0.367761
0.536442
0.557899
0.497699
0.393987
0.535846
0.447631
0.401735
0.506639
0.442863
0.442863
0.330806
0.485778
0.409484
0.417829
0.631809
0.513792
0.485778
0.655651
0.678897
0.823736
0.828505
0.875592
0.886917
0.868440
0.837445
1.082420
1.038909
0.941753
1.201630
0.990629
1.009703
1.157522
0.992417
1.076460
0.935793
1.051426
0.918508
0.992417
0.867844
0.869632
0.754595
0.751615
0.840425
0.769496
0.733733
0.636578
0.746846
0.798702
0.830889
0.680685
0.750422
0.811815
0.673532
0.788569
0.779629
0.854731
0.788569
0.833869
0.912547
0.809431
1.001954
1.065731
1.024604
1.213551
1.049638
1.121759
1.224875
1.727939
8.768439
27.524829
85.057616
160.398483
301.382542
412.093997
538.987517
610.683560
633.742809
585.936904
465.153456
356.070995
215.130448
124.664903
51.273704
23.138523
6.977916
3.755689
3.046989
##ZVALUE=395
0.542998
0.570416
0.390410
0.324845
0.363588
0.582933
0.422597
0.465512
0.519753
0.586510
0.551939
0.393987
0.476837
0.551939
0.489950
0.454783
0.423789
0.496507
0.473857
0.501871
0.517964
0.656843
0.674725
0.489950
0.614524
0.615716
0.607967
0.662804
0.777841
0.963807
0.794530
0.892878
1.031756
1.020432
1.201630
1.150966
1.224875
1.101494
1.264811
1.314878
1.091957
1.203418
1.180768
1.227856
0.986457
1.010895
0.995994
0.932813
1.104474
0.890493
0.801682
0.977516
0.833869
0.783801
0.840425
0.720620
0.745654
0.827909
0.886917
0.756979
0.729561
0.838637
0.708699
0.712872
0.679493
0.890493
0.780821
0.948906
0.929832
0.938773
0.994802
1.091957
1.029968
0.932813
1.036525
1.119971
1.135468
1.173615
1.255870
5.045533
17.747879
61.654449
116.978884
223.542452
330.848694
484.959483
581.218004
642.428994
627.505779
532.979965
419.504642
261.774659
166.844726
78.428984
37.722588
12.475848
##ZVALUE=400
0.632405
0.698566
0.632405
0.717640
0.409484
0.448823
0.583529
0.539422
0.470877
0.650883
0.448823
0.475645
0.348687
0.448823
0.448823
0.582933
0.550747
0.501871
0.621676
0.568628
0.506639
0.567436
0.542998
0.559688
0.569820
0.666976
0.548959
0.765920
0.813603
0.868440
1.027584
1.135468
1.156926
1.235604
1.301765
1.203418
1.290441
1.448989
1.274943
1.353621
1.260638
1.172423
1.181960
1.221895
1.294613
1.113415
1.142621
0.920892
1.025796
0.931621
0.896454
1.053810
0.872612
0.886917
0.803471
0.739694
0.965595
0.845790
0.817776
0.872612
0.908971
0.900626
0.792742
0.869632
0.764728
0.910759
0.934601
0.998974
0.932813
0.976920
1.077652
0.989437
0.944734
1.073480
1.038909
0.933409
1.061559
1.014471
1.080632
1.197457
1.278520
2.867579
9.381771
34.430623
74.549913
168.125629
270.609856
419.510603
523.975492
611.529946
624.578595
554.472804
457.462668
304.071903
199.892521
101.775527
##END
