160.701	1.8
166.742	-1.2
172.777	1.8
178.805	13.8
184.826	28.8
190.841	47.8
196.849	90.8
202.85	107.8
208.845	108.8
214.833	112.8
220.815	110.8
226.789	110.8
232.758	113.8
238.719	119.8
244.674	116.8
250.623	121.8
256.565	118.8
262.5	115.8
268.429	119.8
274.351	112.8
280.267	118.8
286.176	112.8
292.079	114.8
297.975	117.8
303.865	117.8
309.748	118.8
315.625	122.8
321.495	118.8
327.359	123.8
333.217	122.8
339.068	121.8
344.912	124.8
350.751	121.8
356.583	120.8
362.408	118.8
368.227	123.8
374.04	127.8
379.847	127.8
385.647	138.8
391.44	141.8
397.228	140.8
403.009	151.8
408.784	155.8
414.553	150.8
420.315	163.8
426.071	175.8
431.821	158.8
437.565	132.8
443.302	125.8
449.033	130.8
454.758	128.8
460.477	129.8
466.189	122.8
471.896	118.8
477.596	115.8
483.29	118.8
488.978	116.8
494.66	108.8
500.335	108.8
506.005	101.8
511.668	99.8
517.325	87.8
522.977	88.8
528.622	91.8
534.261	87.8
539.894	82.8
545.521	81.8
551.141	78.8
556.756	68.8
562.365	69.8
567.968	66.8
573.565	69.8
579.155	67.8
584.74	71.8
590.319	66.8
595.892	69.8
601.459	67.8
607.02	68.8
612.575	65.8
618.124	67.8
623.667	65.8
629.204	61.8
634.735	63.8
640.261	65.8
645.781	64.8
651.294	74.8
656.802	69.8
662.304	66.8
667.8	62.8
673.29	56.8
678.775	55.8
684.254	54.8
689.726	52.8
695.193	61.8
700.655	56.8
706.11	59.8
711.56	58.8
717.004	58.8
722.442	54.8
727.874	57.8
733.301	50.8
738.722	52.8
744.137	56.8
749.547	58.8
754.951	57.8
760.349	62.8
765.741	57.8
771.128	62.8
776.509	59.8
781.885	62.8
787.254	58.8
792.618	58.8
797.977	67.8
803.33	78.8
808.677	90.8
814.019	99.8
819.355	96.8
824.686	77.8
830.011	64.8
835.33	70.8
840.644	79.8
845.952	85.8
851.255	82.8
856.552	80.8
861.844	68.8
867.13	59.8
872.41	60.8
877.686	49.8
882.955	50.8
888.219	49.8
893.478	48.8
898.731	52.8
903.979	55.8
909.221	60.8
914.458	57.8
919.69	48.8
924.916	49.8
930.136	45.8
935.351	44.8
940.561	47.8
945.766	54.8
950.965	54.8
956.158	56.8
961.347	50.8
966.529	58.8
971.707	56.8
976.879	60.8
982.046	60.8
987.208	50.8
992.364	50.8
997.515	55.8
1002.66	63.8
1007.801	60.8
1012.936	51.8
1018.066	51.8
1023.19	47.8
1028.309	48.8
1033.423	46.8
1038.532	55.8
1043.636	65.8
1048.734	60.8
1053.827	56.8
1058.915	46.8
1063.998	48.8
1069.075	43.8
1074.147	43.8
1079.214	41.8
1084.276	42.8
1089.333	47.8
1094.385	47.8
1099.431	52.8
1104.472	47.8
1109.509	45.8
1114.54	44.8
1119.565	44.8
1124.586	44.8
1129.602	42.8
1134.613	41.8
1139.618	45.8
1144.619	55.8
1149.614	59.8
1154.604	70.8
1159.589	79.8
1164.57	74.8
1169.545	66.8
1174.515	64.8
1179.48	55.8
1184.44	51.8
1189.395	39.8
1194.345	46.8
1199.29	42.8
1204.23	45.8
1209.165	42.8
1214.095	51.8
1219.021	50.8
1223.941	56.8
1228.856	54.8
1233.766	54.8
1238.672	47.8
1243.572	46.8
1248.467	46.8
1253.358	43.8
1258.244	44.8
1263.124	43.8
1268	36.8
1272.871	36.8
1277.737	40.8
1282.599	37.8
1287.455	39.8
1292.306	40.8
1297.153	39.8
1301.995	44.8
1306.832	44.8
1311.664	45.8
1316.491	45.8
1321.314	48.8
1326.132	56.8
1330.945	71.8
1335.753	77.8
1340.556	67.8
1345.354	56.8
1350.148	48.8
1354.937	48.8
1359.722	46.8
1364.501	45.8
1369.276	52.8
1374.046	44.8
1378.811	40.8
1383.572	36.8
1388.327	38.8
1393.079	35.8
1397.825	35.8
1402.567	35.8
1407.304	32.8
1412.036	31.8
1416.764	32.8
1421.487	32.8
1426.205	35.8
1430.919	37.8
1435.628	39.8
1440.333	53.8
1445.032	57.8
1449.727	52.8
1454.418	70.8
1459.104	78.8
1463.785	82.8
1468.462	85.8
1473.134	66.8
1477.802	48.8
1482.465	38.8
1487.123	35.8
1491.777	36.8
1496.426	32.8
1501.071	32.8
1505.711	33.8
1510.347	26.8
1514.978	25.8
1519.604	29.8
1524.226	27.8
1528.844	33.8
1533.457	32.8
1538.065	33.8
1542.669	31.8
1547.269	27.8
1551.864	25.8
1556.454	28.8
1561.041	25.8
1565.622	27.8
1570.199	24.8
1574.772	27.8
1579.34	28.8
1583.904	32.8
1588.464	26.8
1593.019	25.8
1597.569	29.8
1602.115	28.8
1606.657	23.8
1611.195	29.8
1615.728	32.8
1620.256	31.8
1624.78	29.8
1629.3	29.8
1633.816	24.8
1638.327	27.8
1642.834	22.8
1647.336	25.8
1651.834	26.8
1656.328	26.8
1660.817	26.8
1665.302	32.8
1669.783	30.8
1674.259	26.8
1678.732	25.8
1683.199	23.8
1687.663	21.8
1692.122	24.8
1696.577	24.8
1701.028	28.8
1705.474	26.8
1709.917	29.8
1714.355	26.8
1718.788	24.8
1723.218	22.8
1727.643	16.8
1732.064	18.8
1736.481	21.8
1740.893	15.8
1745.301	22.8
1749.705	20.8
1754.105	25.8
1758.501	20.8
1762.893	20.8
1767.28	19.8
1771.663	20.8
1776.042	16.8
1780.417	17.8
1784.787	18.8
1789.154	18.8
1793.516	20.8
1797.874	19.8
1802.228	19.8
1806.578	17.8
1810.924	20.8
1815.266	18.8
1819.603	16.8
1823.937	22.8
1828.266	15.8
1832.591	15.8
1836.913	12.8
1841.23	16.8
1845.543	14.8
1849.852	17.8
1854.156	14.8
1858.457	17.8
1862.754	21.8
1867.047	21.8
1871.335	19.8
1875.62	18.8
1879.9	11.8
1884.177	16.8
1888.449	7.8
1892.718	16.8
1896.982	16.8
1901.243	22.8
1905.499	18.8
1909.752	16.8
1914	19.8
1918.245	12.8
1922.485	11.8
1926.722	16.8
1930.954	13.8
1935.183	15.8
1939.408	18.8
1943.628	20.8
1947.845	17.8
1952.058	17.8
1956.267	10.8
1960.472	10.8
1964.673	13.8
1968.87	8.8
1973.063	13.8
1977.252	12.8
1981.438	16.8
1985.619	15.8
1989.797	14.8
1993.971	13.8
1998.14	10.8
2002.306	10.8
2006.469	9.8
2010.627	11.8
2014.781	16.8
2018.932	12.8
2023.078	13.8
2027.221	13.8
2031.36	13.8
2035.495	12.8
2039.627	7.8
2043.754	6.8
2047.878	12.8
2051.998	8.8
2056.114	11.8
2060.226	17.8
2064.334	11.8
2068.439	10.8
2072.54	7.8
2076.637	14.8
2080.73	11.8
2084.82	16.8
2088.906	12.8
2092.988	9.8
2097.066	10.8
2101.14	13.8
2105.211	12.8
2109.278	13.8
2113.342	12.8
2117.401	14.8
2121.457	11.8
2125.509	11.8
2129.558	11.8
2133.602	11.8
2137.643	6.8
2141.681	7.8
2145.714	10.8
2149.744	11.8
2153.77	11.8
2157.793	16.8
2161.812	11.8
2165.827	12.8
2169.838	6.8
2173.846	7.8
2177.851	5.8
2181.851	7.8
2185.848	9.8
2189.841	10.8
2193.831	6.8
2197.817	13.8
2201.799	10.8
2205.778	10.8
2209.753	4.8
2213.725	2.8
2217.693	5.8
2221.657	1.8
2225.618	7.8
2229.575	10.8
2233.529	11.8
2237.479	8.8
2241.425	8.8
2245.368	9.8
2249.307	2.8
2253.243	6.8
2257.175	4.8
2261.104	8.8
2265.029	7.8
2268.95	6.8
2272.868	5.8
2276.783	8.8
2280.694	7.8
2284.601	7.8
2288.505	9.8
2292.405	7.8
2296.302	3.8
2300.195	6.8
2304.085	5.8
2307.971	5.8
2311.854	2.8
2315.734	8.8
2319.609	6.8
2323.482	4.8
2327.351	1.8
2331.216	10.8
2335.078	6.8
2338.937	7.8
2342.792	0.8
2346.643	0.8
2350.492	5.8
2354.336	4.8
2358.178	4.8
2362.015	6.8
2365.85	6.8
2369.681	5.8
2373.508	2.8
2377.333	2.8
2381.153	1.8
2384.971	3.8
2388.785	6.8
2392.595	6.8
2396.402	8.8
2400.206	6.8
2404.007	4.8
2407.804	7.8
2411.597	2.8
2415.388	0.8
2419.174	1.8
2422.958	5.8
2426.738	0.8
2430.515	5.8
2434.289	4.8
2438.059	1.8
2441.825	1.8
2445.589	1.8
2449.349	2.8
2453.106	2.8
2456.859	4.8
2460.61	2.8
2464.356	6.8
2468.1	7.8
2471.84	1.8
2475.577	4.8
2479.311	3.8
2483.041	5.8
2486.768	2.8
2490.492	0.8
2494.213	5.8
2497.93	1.8
2501.644	2.8
2505.355	2.8
2509.062	1.8
2512.766	0.8
2516.467	1.8
2520.165	3.8
2523.859	3.8
2527.551	4.8
2531.239	0.8
2534.923	1.8
2538.605	1.8
2542.283	-1.2
2545.958	6.8
2549.63	7.8
2553.299	6.8
2556.964	7.8
2560.626	1.8
2564.285	-2.2
2567.941	-1.2
2571.594	-0.2
2575.243	-2.2
2578.89	2.8
2582.533	4.8
2586.173	4.8
2589.809	3.8
2593.443	5.8
2597.073	1.8
2600.701	-0.2
2604.325	-0.2
2607.946	1.8
2611.564	4.8
2615.178	5.8
2618.79	6.8
2622.398	5.8
2626.004	4.8
2629.606	5.8
2633.205	-0.2
2636.801	3.8
2640.394	0.8
2643.983	2.8
2647.57	5.8
2651.153	4.8
2654.734	4.8
2658.311	2.8
2661.885	4.8
2665.456	3.8
2669.025	2.8
2672.589	1.8
2676.151	1.8
2679.71	4.8
2683.266	3.8
2686.819	7.8
2690.368	4.8
2693.915	2.8
2697.458	-0.2
2700.999	7.8
2704.536	3.8
2708.071	2.8
2711.602	3.8
2715.13	7.8
2718.656	7.8
2722.178	2.8
2725.697	2.8
2729.214	6.8
2732.727	6.8
2736.237	4.8
2739.744	2.8
2743.249	8.8
2746.75	5.8
2750.248	3.8
2753.743	3.8
2757.236	3.8
2760.725	1.8
2764.211	5.8
2767.695	3.8
2771.175	2.8
2774.652	4.8
2778.127	2.8
2781.598	3.8
2785.067	2.8
2788.532	1.8
2791.995	2.8
2795.455	3.8
2798.911	6.8
2802.365	3.8
2805.816	4.8
2809.264	2.8
2812.709	2.8
2816.151	5.8
2819.59	0.8
2823.026	4.8
2826.46	8.8
2829.89	10.8
2833.318	12.8
2836.742	11.8
2840.164	18.8
2843.583	17.8
2846.999	18.8
2850.412	17.8
2853.822	16.8
2857.229	14.8
2860.634	17.8
2864.035	18.8
2867.434	25.8
2870.83	32.8
2874.223	31.8
2877.613	34.8
2881	35.8
2884.385	35.8
2887.766	43.8
2891.145	40.8
2894.521	40.8
2897.894	43.8
2901.264	37.8
2904.631	32.8
2907.996	36.8
2911.358	28.8
2914.717	25.8
2918.073	24.8
2921.426	24.8
2924.777	25.8
2928.124	23.8
2931.469	23.8
2934.811	22.8
2938.15	23.8
2941.487	16.8
2944.821	12.8
2948.152	13.8
2951.48	18.8
2954.805	22.8
2958.128	22.8
2961.447	20.8
2964.765	18.8
2968.079	26.8
2971.39	14.8
2974.699	9.8
2978.005	6.8
2981.308	7.8
2984.609	5.8
2987.907	7.8
2991.202	9.8
2994.494	9.8
2997.784	7.8
3001.07	5.8
3004.355	-1.2
3007.636	1.8
3010.915	3.8
3014.191	3.8
3017.464	3.8
3020.734	8.8
3024.002	3.8
3027.267	6.8
3030.53	3.8
3033.789	6.8
3037.046	-0.2
3040.301	3.8
3043.552	-0.2
3046.801	1.8
3050.048	1.8
3053.291	5.8
3056.532	5.8
3059.771	9.8
3063.006	2.8
3066.239	0.8
3069.469	2.8
3072.697	0.8
3075.922	0.8
3079.144	3.8
3082.364	4.8
3085.581	5.8
3088.795	6.8
3092.007	5.8
3095.216	2.8
3098.423	4.8
3101.627	-1.2
3104.828	4.8
3108.026	1.8
3111.222	3.8
3114.416	5.8
3117.607	8.8
3120.795	6.8
3123.98	7.8
3127.163	6.8
3130.344	5.8
3133.521	6.8
3136.696	7.8
3139.869	5.8
3143.039	6.8
3146.206	7.8
3149.371	7.8
3152.533	9.8
3155.693	5.8
3158.85	5.8
3162.005	5.8
3165.157	4.8
3168.306	3.8
3171.453	2.8
3174.597	7.8
3177.739	8.8
3180.878	9.8
3184.014	7.8
3187.149	1.8
3190.28	5.8
3193.409	4.8
3196.536	4.8
3199.659	5.8
3202.781	4.8
3205.9	9.8
3209.016	9.8
3212.13	8.8
3215.241	7.8
3218.35	9.8
3221.456	3.8
3224.56	6.8
3227.661	8.8
3230.76	7.8
3233.856	7.8
3236.95	8.8
3240.041	4.8
3243.13	2.8
3246.216	4.8
3249.3	5.8
3252.382	8.8
3255.46	6.8
3258.537	8.8
3261.611	7.8
3264.682	4.8
3267.751	3.8
3270.818	-0.2
3273.882	5.8
3276.943	6.8
3280.002	6.8
3283.059	5.8
3286.113	8.8
3289.165	2.8
3292.214	4.8
3295.261	2.8
3298.306	4.8
3301.348	2.8
3304.387	-1.2
3307.425	1.8
3310.459	6.8
3313.492	2.8
3316.521	6.8
3319.549	4.8
3322.574	6.8
3325.597	6.8
3328.617	2.8
3331.635	2.8
3334.65	-0.2
3337.663	4.8
3340.674	2.8
3343.682	8.8
3346.688	6.8
3349.691	3.8
3352.692	3.8
3355.691	2.8
3358.687	-0.2
3361.681	2.8
3364.673	6.8
3367.662	0.8
3370.649	8.8
3373.633	3.8
3376.615	6.8
3379.595	0.8
3382.572	3.8
3385.547	3.8
3388.52	1.8
3391.49	3.8
3394.458	3.8
3397.424	2.8
3400.387	6.8
3403.348	-0.2
3406.307	1.8
3409.263	2.8
3412.217	0.8
3415.168	-0.2
3418.118	1.8
3421.065	6.8
3424.009	0.8
3426.951	5.8
3429.891	0.8
3432.829	-0.2
3435.764	6.8
3438.697	-2.2
3441.628	3.8
3444.557	-0.2
3447.483	4.8
3450.407	1.8
3453.328	4.8
3456.247	-4.2
3459.164	0.8
3462.079	3.8
3464.991	3.8
3467.902	-2.2
3470.809	1.8
3473.715	3.8
3476.618	1.8
3479.519	-1.2
3482.418	-1.2
3485.315	-3.2
3488.209	-0.2
3491.101	-1.2
3493.99	-2.2
3496.878	1.8
3499.763	3.8
3502.646	3.8
3505.527	0.8
3508.405	-0.2
3511.281	-2.2
3514.155	-3.2
3517.027	0.8
3519.897	0.8
3522.764	1.8
3525.629	0.8
3528.492	-0.2
3531.352	-0.2
3534.211	-1.2
3537.067	-5.2
3539.921	-3.2
3542.773	-1.2
3545.622	1.8
3548.469	-3.2
3551.315	2.8
3554.157	-1.2
3556.998	1.8
3559.837	-3.2
3562.673	-2.2
3565.507	-2.2
3568.339	-1.2
3571.169	-0.2
3573.996	-0.2
3576.822	-4.2
3579.645	-6.2
3582.466	-0.2
3585.285	1.8
3588.101	-2.2
3590.916	1.8
3593.728	-1.2
3596.538	-1.2
3599.346	-3.2
3602.152	-2.2
3604.956	-5.2
3607.757	-3.2
3610.556	-4.2
3613.354	0.8
3616.149	-2.2
3618.942	0.8
3621.732	2.8
3624.521	1.8
3627.307	-2.2
3630.092	-4.2
3632.874	-5.2
3635.654	-2.2
3638.432	-5.2
3641.208	-2.2
3643.982	2.8
3646.753	-1.2
3649.523	-3.2
3652.29	1.8
3655.055	-8.2
3657.818	-5.2
3660.579	-4.2
3663.338	-4.2
3666.095	-3.2
3668.849	0.8
3671.602	1.8
3674.352	4.8
3677.101	-2.2
3679.847	-2.2
3682.591	-1.2
3685.333	-8.2
3688.073	-6.2
3690.811	0.8
3693.547	-1.2
3696.281	-3.2
3699.013	1.8
3701.742	-0.2
3704.47	-4.2
3707.195	-2.2
3709.919	-5.2
3712.64	-1.2
3715.359	-3.2
3718.076	-1.2
3720.792	-1.2
3723.505	-0.2
3726.216	-0.2
3728.925	-1.2
3731.632	-2.2
3734.336	-5.2
3737.039	-2.2
3739.74	-4.2
3742.439	-4.2
3745.136	-1.2
3747.83	-4.2
3750.523	-2.2
3753.213	-0.2
3755.902	-0.2
3758.589	-0.2
3761.273	-1.2
3763.956	-3.2
3766.636	-5.2
3769.315	-6.2
3771.991	-5.2
3774.665	-5.2
3777.338	-1.2
3780.008	1.8
3782.677	-1.2
3785.343	-1.2
3788.007	-0.2
3790.67	-4.2
3793.33	-0.2
3795.989	-4.2
3798.645	-4.2
3801.299	-4.2
3803.952	-2.2
3806.602	-1.2
3809.251	0.8
3811.897	-2.2
3814.542	-2.2
3817.184	-5.2
3819.825	-4.2
3822.463	-7.2
3825.1	-4.2
3827.735	-2.2
3830.367	-1.2
3832.998	-1.2
3835.627	4.8
3838.253	-1.2
3840.878	-4.2
3843.501	-3.2
3846.122	-3.2
3848.741	-4.2
3851.358	-2.2
3853.973	-0.2
3856.586	-3.2
3859.197	-1.2
3861.806	-5.2
3864.414	-4.2
3867.019	-3.2
3869.622	-7.2
3872.224	-4.2
3874.823	-3.2
3877.421	-1.2
3880.016	-0.2
3882.61	1.8
3885.202	4.8
3887.792	2.8
3890.38	-3.2
3892.966	-3.2
3895.55	-2.2
3898.132	-0.2
3900.713	-2.2
3903.291	-1.2
3905.868	0.8
3908.442	-0.2
3911.015	-7.2
3913.586	-1.2
3916.155	-2.2
3918.722	-2.2
3921.287	-3.2
3923.85	-0.2
3926.411	-0.2
3928.971	-4.2
3931.528	-1.2
3934.084	-4.2
3936.638	-2.2
3939.19	-3.2
3941.74	-1.2
3944.288	-3.2
3946.834	-1.2
3949.378	-1.2
3951.921	-2.2
3954.462	-4.2
3957	-2.2
3959.537	0.8
3962.072	-1.2
3964.606	-2.2
3967.137	-4.2
3969.667	0.8
3972.194	-4.2
3974.72	-6.2
3977.244	-6.2
3979.766	-1.2
3982.286	-4.2
3984.805	-2.2
3987.321	-1.2
3989.836	-0.2
3992.349	-0.2
3994.86	0.8
3997.369	-6.2
3999.877	-3.2
4002.382	-4.2
4004.886	-5.2
4007.388	-0.2
4009.888	-5.2
4012.386	-1.2
4014.883	-4.2
4017.377	-1.2
4019.87	-4.2
4022.361	-5.2
4024.85	-4.2
4027.338	-2.2
4029.823	-2.2
4032.307	-1.2
4034.789	-0.2
4037.269	-1.2
4039.747	0.8
4042.224	-2.2
4044.699	-3.2
4047.172	-3.2
4049.643	-3.2
4052.112	-5.2
4054.58	-4.2
4057.046	0.8
4059.51	-0.2
4061.972	-0.2
4064.432	-2.2
4066.891	-3.2
4069.348	-2.2
4071.803	-7.2
4074.256	-7.2
4076.708	-0.2
4079.158	0.8
4081.606	-0.2
4084.052	0.8
4086.497	-3.2
4088.939	0.8
4091.38	-0.2
4093.819	-4.2
4096.257	-5.2
4098.693	-4.2
4101.127	-7.2
4103.559	-1.2
4105.989	5.8
4108.418	3.8
4110.845	4.8
4113.27	2.8
4115.694	-0.2
4118.115	4.8
4120.535	-7.2
4122.954	-3.2
4125.37	-4.2
4127.785	-2.2
4130.198	-3.2
4132.609	-1.2
4135.019	-2.2
4137.427	-0.2
4139.833	-4.2
4142.237	-9.2
