160.701	-4.5
166.742	1.5
172.777	0.5
178.805	17.5
184.826	26.5
190.841	53.5
196.849	83.5
202.85	102.5
208.845	109.5
214.833	108.5
220.815	107.5
226.789	115.5
232.758	113.5
238.719	122.5
244.674	118.5
250.623	117.5
256.565	116.5
262.5	114.5
268.429	115.5
274.351	114.5
280.267	118.5
286.176	113.5
292.079	116.5
297.975	117.5
303.865	121.5
309.748	117.5
315.625	116.5
321.495	117.5
327.359	117.5
333.217	121.5
339.068	115.5
344.912	123.5
350.751	123.5
356.583	123.5
362.408	119.5
368.227	122.5
374.04	122.5
379.847	127.5
385.647	135.5
391.44	136.5
397.228	139.5
403.009	150.5
408.784	147.5
414.553	153.5
420.315	157.5
426.071	170.5
431.821	149.5
437.565	128.5
443.302	127.5
449.033	130.5
454.758	124.5
460.477	126.5
466.189	128.5
471.896	121.5
477.596	117.5
483.29	107.5
488.978	114.5
494.66	113.5
500.335	108.5
506.005	105.5
511.668	99.5
517.325	91.5
522.977	86.5
528.622	80.5
534.261	83.5
539.894	77.5
545.521	77.5
551.141	74.5
556.756	75.5
562.365	69.5
567.968	72.5
573.565	70.5
579.155	68.5
584.74	61.5
590.319	69.5
595.892	70.5
601.459	65.5
607.02	65.5
612.575	68.5
618.124	66.5
623.667	63.5
629.204	62.5
634.735	58.5
640.261	62.5
645.781	61.5
651.294	71.5
656.802	72.5
662.304	64.5
667.8	63.5
673.29	60.5
678.775	63.5
684.254	58.5
689.726	52.5
695.193	56.5
700.655	55.5
706.11	55.5
711.56	50.5
717.004	57.5
722.442	54.5
727.874	53.5
733.301	52.5
738.722	55.5
744.137	54.5
749.547	55.5
754.951	58.5
760.349	56.5
765.741	56.5
771.128	56.5
776.509	55.5
781.885	60.5
787.254	64.5
792.618	58.5
797.977	61.5
803.33	72.5
808.677	82.5
814.019	96.5
819.355	97.5
824.686	76.5
830.011	69.5
835.33	73.5
840.644	81.5
845.952	84.5
851.255	82.5
856.552	69.5
861.844	57.5
867.13	59.5
872.41	60.5
877.686	55.5
882.955	55.5
888.219	54.5
893.478	50.5
898.731	48.5
903.979	50.5
909.221	54.5
914.458	48.5
919.69	51.5
924.916	48.5
930.136	45.5
935.351	49.5
940.561	51.5
945.766	53.5
950.965	52.5
956.158	49.5
961.347	46.5
966.529	55.5
971.707	53.5
976.879	60.5
982.046	59.5
987.208	53.5
992.364	48.5
997.515	52.5
1002.66	58.5
1007.801	59.5
1012.936	47.5
1018.066	46.5
1023.19	47.5
1028.309	47.5
1033.423	49.5
1038.532	60.5
1043.636	65.5
1048.734	62.5
1053.827	55.5
1058.915	47.5
1063.998	42.5
1069.075	44.5
1074.147	43.5
1079.214	42.5
1084.276	48.5
1089.333	52.5
1094.385	46.5
1099.431	47.5
1104.472	43.5
1109.509	44.5
1114.54	42.5
1119.565	41.5
1124.586	45.5
1129.602	40.5
1134.613	47.5
1139.618	45.5
1144.619	51.5
1149.614	57.5
1154.604	69.5
1159.589	77.5
1164.57	71.5
1169.545	63.5
1174.515	66.5
1179.48	56.5
1184.44	51.5
1189.395	44.5
1194.345	41.5
1199.29	40.5
1204.23	44.5
1209.165	42.5
1214.095	41.5
1219.021	49.5
1223.941	57.5
1228.856	53.5
1233.766	50.5
1238.672	46.5
1243.572	43.5
1248.467	39.5
1253.358	39.5
1258.244	41.5
1263.124	36.5
1268	34.5
1272.871	41.5
1277.737	40.5
1282.599	43.5
1287.455	41.5
1292.306	40.5
1297.153	38.5
1301.995	41.5
1306.832	39.5
1311.664	41.5
1316.491	43.5
1321.314	49.5
1326.132	61.5
1330.945	66.5
1335.753	76.5
1340.556	68.5
1345.354	52.5
1350.148	41.5
1354.937	46.5
1359.722	48.5
1364.501	53.5
1369.276	52.5
1374.046	46.5
1378.811	41.5
1383.572	32.5
1388.327	36.5
1393.079	33.5
1397.825	30.5
1402.567	29.5
1407.304	31.5
1412.036	30.5
1416.764	29.5
1421.487	34.5
1426.205	31.5
1430.919	34.5
1435.628	38.5
1440.333	51.5
1445.032	52.5
1449.727	57.5
1454.418	65.5
1459.104	78.5
1463.785	87.5
1468.462	75.5
1473.134	71.5
1477.802	50.5
1482.465	37.5
1487.123	36.5
1491.777	31.5
1496.426	33.5
1501.071	30.5
1505.711	34.5
1510.347	30.5
1514.978	29.5
1519.604	31.5
1524.226	28.5
1528.844	29.5
1533.457	26.5
1538.065	30.5
1542.669	26.5
1547.269	24.5
1551.864	24.5
1556.454	28.5
1561.041	28.5
1565.622	28.5
1570.199	29.5
1574.772	23.5
1579.34	28.5
1583.904	29.5
1588.464	28.5
1593.019	24.5
1597.569	26.5
1602.115	26.5
1606.657	24.5
1611.195	27.5
1615.728	31.5
1620.256	29.5
1624.78	27.5
1629.3	24.5
1633.816	27.5
1638.327	27.5
1642.834	21.5
1647.336	25.5
1651.834	22.5
1656.328	26.5
1660.817	26.5
1665.302	30.5
1669.783	27.5
1674.259	26.5
1678.732	27.5
1683.199	24.5
1687.663	22.5
1692.122	22.5
1696.577	25.5
1701.028	27.5
1705.474	25.5
1709.917	30.5
1714.355	21.5
1718.788	23.5
1723.218	18.5
1727.643	17.5
1732.064	18.5
1736.481	21.5
1740.893	18.5
1745.301	26.5
1749.705	24.5
1754.105	22.5
1758.501	17.5
1762.893	19.5
1767.28	17.5
1771.663	18.5
1776.042	15.5
1780.417	16.5
1784.787	19.5
1789.154	23.5
1793.516	22.5
1797.874	20.5
1802.228	17.5
1806.578	12.5
1810.924	17.5
1815.266	15.5
1819.603	13.5
1823.937	18.5
1828.266	17.5
1832.591	19.5
1836.913	18.5
1841.23	15.5
1845.543	17.5
1849.852	12.5
1854.156	13.5
1858.457	13.5
1862.754	18.5
1867.047	14.5
1871.335	17.5
1875.62	14.5
1879.9	17.5
1884.177	17.5
1888.449	15.5
1892.718	16.5
1896.982	12.5
1901.243	16.5
1905.499	16.5
1909.752	12.5
1914	16.5
1918.245	13.5
1922.485	10.5
1926.722	14.5
1930.954	14.5
1935.183	13.5
1939.408	16.5
1943.628	17.5
1947.845	16.5
1952.058	17.5
1956.267	11.5
1960.472	7.5
1964.673	10.5
1968.87	13.5
1973.063	15.5
1977.252	12.5
1981.438	13.5
1985.619	13.5
1989.797	10.5
1993.971	7.5
1998.14	7.5
2002.306	9.5
2006.469	14.5
2010.627	12.5
2014.781	16.5
2018.932	16.5
2023.078	14.5
2027.221	11.5
2031.36	10.5
2035.495	12.5
2039.627	9.5
2043.754	9.5
2047.878	12.5
2051.998	12.5
2056.114	10.5
2060.226	15.5
2064.334	7.5
2068.439	10.5
2072.54	7.5
2076.637	7.5
2080.73	11.5
2084.82	10.5
2088.906	12.5
2092.988	8.5
2097.066	11.5
2101.14	12.5
2105.211	14.5
2109.278	11.5
2113.342	8.5
2117.401	10.5
2121.457	5.5
2125.509	9.5
2129.558	6.5
2133.602	11.5
2137.643	8.5
2141.681	7.5
2145.714	7.5
2149.744	9.5
2153.77	8.5
2157.793	11.5
2161.812	13.5
2165.827	8.5
2169.838	3.5
2173.846	7.5
2177.851	5.5
2181.851	4.5
2185.848	10.5
2189.841	9.5
2193.831	4.5
2197.817	12.5
2201.799	6.5
2205.778	2.5
2209.753	2.5
2213.725	4.5
2217.693	6.5
2221.657	3.5
2225.618	6.5
2229.575	10.5
2233.529	8.5
2237.479	4.5
2241.425	4.5
2245.368	5.5
2249.307	3.5
2253.243	10.5
2257.175	6.5
2261.104	13.5
2265.029	9.5
2268.95	6.5
2272.868	5.5
2276.783	3.5
2280.694	5.5
2284.601	6.5
2288.505	3.5
2292.405	5.5
2296.302	6.5
2300.195	6.5
2304.085	3.5
2307.971	5.5
2311.854	5.5
2315.734	5.5
2319.609	3.5
2323.482	2.5
2327.351	2.5
2331.216	5.5
2335.078	9.5
2338.937	5.5
2342.792	5.5
2346.643	-0.5
2350.492	5.5
2354.336	2.5
2358.178	4.5
2362.015	0.5
2365.85	5.5
2369.681	4.5
2373.508	0.5
2377.333	3.5
2381.153	4.5
2384.971	3.5
2388.785	6.5
2392.595	5.5
2396.402	4.5
2400.206	3.5
2404.007	0.5
2407.804	-1.5
2411.597	1.5
2415.388	0.5
2419.174	2.5
2422.958	6.5
2426.738	2.5
2430.515	5.5
2434.289	2.5
2438.059	3.5
2441.825	-2.5
2445.589	0.5
2449.349	1.5
2453.106	5.5
2456.859	5.5
2460.61	4.5
2464.356	8.5
2468.1	1.5
2471.84	3.5
2475.577	-2.5
2479.311	-2.5
2483.041	2.5
2486.768	2.5
2490.492	4.5
2494.213	3.5
2497.93	1.5
2501.644	3.5
2505.355	0.5
2509.062	-1.5
2512.766	0.5
2516.467	0.5
2520.165	2.5
2523.859	0.5
2527.551	2.5
2531.239	2.5
2534.923	2.5
2538.605	-2.5
2542.283	-4.5
2545.958	0.5
2549.63	-2.5
2553.299	0.5
2556.964	3.5
2560.626	5.5
2564.285	-1.5
2567.941	1.5
2571.594	-2.5
2575.243	-1.5
2578.89	0.5
2582.533	1.5
2586.173	0.5
2589.809	-0.5
2593.443	2.5
2597.073	4.5
2600.701	1.5
2604.325	0.5
2607.946	0.5
2611.564	4.5
2615.178	2.5
2618.79	2.5
2622.398	2.5
2626.004	1.5
2629.606	3.5
2633.205	2.5
2636.801	1.5
2640.394	0.5
2643.983	4.5
2647.57	3.5
2651.153	1.5
2654.734	3.5
2658.311	3.5
2661.885	4.5
2665.456	2.5
2669.025	1.5
2672.589	5.5
2676.151	1.5
2679.71	6.5
2683.266	-2.5
2686.819	6.5
2690.368	0.5
2693.915	2.5
2697.458	0.5
2700.999	5.5
2704.536	3.5
2708.071	4.5
2711.602	6.5
2715.13	4.5
2718.656	2.5
2722.178	-0.5
2725.697	-0.5
2729.214	4.5
2732.727	5.5
2736.237	6.5
2739.744	7.5
2743.249	7.5
2746.75	1.5
2750.248	-0.5
2753.743	0.5
2757.236	-0.5
2760.725	-1.5
2764.211	2.5
2767.695	5.5
2771.175	1.5
2774.652	5.5
2778.127	-0.5
2781.598	3.5
2785.067	-0.5
2788.532	0.5
2791.995	-1.5
2795.455	2.5
2798.911	-0.5
2802.365	4.5
2805.816	4.5
2809.264	3.5
2812.709	1.5
2816.151	2.5
2819.59	-1.5
2823.026	2.5
2826.46	1.5
2829.89	7.5
2833.318	8.5
2836.742	12.5
2840.164	19.5
2843.583	20.5
2846.999	20.5
2850.412	15.5
2853.822	12.5
2857.229	14.5
2860.634	14.5
2864.035	15.5
2867.434	24.5
2870.83	28.5
2874.223	34.5
2877.613	32.5
2881	28.5
2884.385	32.5
2887.766	38.5
2891.145	38.5
2894.521	39.5
2897.894	39.5
2901.264	34.5
2904.631	35.5
2907.996	36.5
2911.358	28.5
2914.717	23.5
2918.073	20.5
2921.426	22.5
2924.777	20.5
2928.124	23.5
2931.469	22.5
2934.811	17.5
2938.15	20.5
2941.487	17.5
2944.821	14.5
2948.152	13.5
2951.48	14.5
2954.805	17.5
2958.128	20.5
2961.447	17.5
2964.765	19.5
2968.079	23.5
2971.39	17.5
2974.699	12.5
2978.005	5.5
2981.308	8.5
2984.609	2.5
2987.907	4.5
2991.202	7.5
2994.494	9.5
2997.784	6.5
3001.07	7.5
3004.355	5.5
3007.636	4.5
3010.915	1.5
3014.191	0.5
3017.464	-0.5
3020.734	1.5
3024.002	1.5
3027.267	4.5
3030.53	4.5
3033.789	4.5
3037.046	0.5
3040.301	2.5
3043.552	-0.5
3046.801	1.5
3050.048	0.5
3053.291	-2.5
3056.532	5.5
3059.771	6.5
3063.006	3.5
3066.239	1.5
3069.469	3.5
3072.697	4.5
3075.922	0.5
3079.144	5.5
3082.364	3.5
3085.581	-0.5
3088.795	7.5
3092.007	1.5
3095.216	2.5
3098.423	1.5
3101.627	2.5
3104.828	16.5
3108.026	76.5
3111.222	108.5
3114.416	7.5
3117.607	5.5
3120.795	3.5
3123.98	6.5
3127.163	7.5
3130.344	1.5
3133.521	6.5
3136.696	4.5
3139.869	6.5
3143.039	7.5
3146.206	4.5
3149.371	4.5
3152.533	3.5
3155.693	-0.5
3158.85	3.5
3162.005	6.5
3165.157	3.5
3168.306	2.5
3171.453	3.5
3174.597	8.5
3177.739	5.5
3180.878	3.5
3184.014	2.5
3187.149	0.5
3190.28	-0.5
3193.409	1.5
3196.536	3.5
3199.659	7.5
3202.781	9.5
3205.9	9.5
3209.016	8.5
3212.13	5.5
3215.241	4.5
3218.35	3.5
3221.456	-0.5
3224.56	3.5
3227.661	8.5
3230.76	10.5
3233.856	9.5
3236.95	10.5
3240.041	2.5
3243.13	0.5
3246.216	4.5
3249.3	5.5
3252.382	2.5
3255.46	3.5
3258.537	5.5
3261.611	10.5
3264.682	6.5
3267.751	7.5
3270.818	4.5
3273.882	4.5
3276.943	1.5
3280.002	0.5
3283.059	1.5
3286.113	4.5
3289.165	2.5
3292.214	4.5
3295.261	4.5
3298.306	4.5
3301.348	2.5
3304.387	3.5
3307.425	1.5
3310.459	4.5
3313.492	-0.5
3316.521	2.5
3319.549	3.5
3322.574	5.5
3325.597	3.5
3328.617	1.5
3331.635	4.5
3334.65	0.5
3337.663	-0.5
3340.674	1.5
3343.682	3.5
3346.688	4.5
3349.691	1.5
3352.692	2.5
3355.691	-1.5
3358.687	2.5
3361.681	4.5
3364.673	5.5
3367.662	2.5
3370.649	6.5
3373.633	2.5
3376.615	2.5
3379.595	-2.5
3382.572	3.5
3385.547	3.5
3388.52	0.5
3391.49	3.5
3394.458	3.5
3397.424	-0.5
3400.387	4.5
3403.348	-0.5
3406.307	-3.5
3409.263	3.5
3412.217	-0.5
3415.168	1.5
3418.118	2.5
3421.065	8.5
3424.009	2.5
3426.951	4.5
3429.891	-0.5
3432.829	-1.5
3435.764	-0.5
3438.697	-4.5
3441.628	2.5
3444.557	1.5
3447.483	1.5
3450.407	2.5
3453.328	6.5
3456.247	-4.5
3459.164	-1.5
3462.079	-2.5
3464.991	-0.5
3467.902	-2.5
3470.809	-1.5
3473.715	1.5
3476.618	2.5
3479.519	0.5
3482.418	-1.5
3485.315	2.5
3488.209	-1.5
3491.101	-1.5
3493.99	-6.5
3496.878	-2.5
3499.763	0.5
3502.646	0.5
3505.527	-1.5
3508.405	0.5
3511.281	-2.5
3514.155	-2.5
3517.027	-0.5
3519.897	1.5
3522.764	-0.5
3525.629	-3.5
3528.492	-4.5
3531.352	-1.5
3534.211	-0.5
3537.067	-4.5
3539.921	-4.5
3542.773	0.5
3545.622	2.5
3548.469	-2.5
3551.315	-2.5
3554.157	-2.5
3556.998	-2.5
3559.837	-6.5
3562.673	-2.5
3565.507	-0.5
3568.339	0.5
3571.169	1.5
3573.996	-1.5
3576.822	-2.5
3579.645	-4.5
3582.466	-5.5
3585.285	-4.5
3588.101	-6.5
3590.916	-1.5
3593.728	0.5
3596.538	0.5
3599.346	-2.5
3602.152	-1.5
3604.956	-3.5
3607.757	-4.5
3610.556	-6.5
3613.354	-2.5
3616.149	-7.5
3618.942	-3.5
3621.732	0.5
3624.521	0.5
3627.307	-0.5
3630.092	-3.5
3632.874	-3.5
3635.654	-6.5
3638.432	-5.5
3641.208	-5.5
3643.982	-1.5
3646.753	-2.5
3649.523	-5.5
3652.29	-1.5
3655.055	-3.5
3657.818	-3.5
3660.579	-1.5
3663.338	-4.5
3666.095	-4.5
3668.849	-2.5
3671.602	-4.5
3674.352	-0.5
3677.101	-1.5
3679.847	-5.5
3682.591	-0.5
3685.333	-4.5
3688.073	-5.5
3690.811	-1.5
3693.547	-3.5
3696.281	-5.5
3699.013	-1.5
3701.742	-3.5
3704.47	-3.5
3707.195	-3.5
3709.919	-4.5
3712.64	-4.5
3715.359	-0.5
3718.076	-3.5
3720.792	-2.5
3723.505	-2.5
3726.216	-5.5
3728.925	-4.5
3731.632	-3.5
3734.336	-2.5
3737.039	2.5
3739.74	-4.5
3742.439	-2.5
3745.136	-6.5
3747.83	-6.5
3750.523	-3.5
3753.213	-5.5
3755.902	-0.5
3758.589	-1.5
3761.273	0.5
3763.956	-2.5
3766.636	-5.5
3769.315	-7.5
3771.991	-7.5
3774.665	-3.5
3777.338	-0.5
3780.008	-3.5
3782.677	-5.5
3785.343	-1.5
3788.007	-1.5
3790.67	-2.5
3793.33	-5.5
3795.989	-6.5
3798.645	-7.5
3801.299	-5.5
3803.952	-1.5
3806.602	0.5
3809.251	0.5
3811.897	-0.5
3814.542	-0.5
3817.184	-6.5
3819.825	-8.5
3822.463	-10.5
3825.1	-6.5
3827.735	-4.5
3830.367	-1.5
3832.998	0.5
3835.627	1.5
3838.253	2.5
3840.878	-4.5
3843.501	-4.5
3846.122	-5.5
3848.741	-5.5
3851.358	-6.5
3853.973	0.5
3856.586	-7.5
3859.197	-1.5
3861.806	-1.5
3864.414	-5.5
3867.019	-3.5
3869.622	-8.5
3872.224	-5.5
3874.823	-6.5
3877.421	-1.5
3880.016	-5.5
3882.61	-2.5
3885.202	5.5
3887.792	0.5
3890.38	-1.5
3892.966	-3.5
3895.55	-7.5
3898.132	-1.5
3900.713	-1.5
3903.291	-4.5
3905.868	-1.5
3908.442	-3.5
3911.015	-3.5
3913.586	-3.5
3916.155	0.5
3918.722	-2.5
3921.287	-3.5
3923.85	-3.5
3926.411	-5.5
3928.971	-6.5
3931.528	-2.5
3934.084	-5.5
3936.638	-3.5
3939.19	-4.5
3941.74	-2.5
3944.288	-4.5
3946.834	-6.5
3949.378	-0.5
3951.921	-2.5
3954.462	-6.5
3957	-5.5
3959.537	-2.5
3962.072	1.5
3964.606	-0.5
3967.137	-2.5
3969.667	-0.5
3972.194	-5.5
3974.72	-6.5
3977.244	-6.5
3979.766	-2.5
3982.286	-3.5
3984.805	-2.5
3987.321	-1.5
3989.836	-2.5
3992.349	-0.5
3994.86	-2.5
3997.369	-9.5
3999.877	-6.5
4002.382	-5.5
4004.886	-6.5
4007.388	-4.5
4009.888	-6.5
4012.386	-1.5
4014.883	-1.5
4017.377	-3.5
4019.87	-6.5
4022.361	-3.5
4024.85	-5.5
4027.338	-8.5
4029.823	-1.5
4032.307	-1.5
4034.789	-2.5
4037.269	0.5
4039.747	-1.5
4042.224	-3.5
4044.699	-5.5
4047.172	-7.5
4049.643	-6.5
4052.112	-5.5
4054.58	-2.5
4057.046	-3.5
4059.51	-2.5
4061.972	-0.5
4064.432	-2.5
4066.891	-2.5
4069.348	-2.5
4071.803	-7.5
4074.256	-11.5
4076.708	-1.5
4079.158	-1.5
4081.606	-2.5
4084.052	-0.5
4086.497	-2.5
4088.939	-1.5
4091.38	-3.5
4093.819	-7.5
4096.257	-7.5
4098.693	-6.5
4101.127	-7.5
4103.559	1.5
4105.989	6.5
4108.418	4.5
4110.845	1.5
4113.27	-3.5
4115.694	-0.5
4118.115	-0.5
4120.535	-6.5
4122.954	-6.5
4125.37	-7.5
4127.785	-4.5
4130.198	-1.5
4132.609	-2.5
4135.019	-1.5
4137.427	-2.5
4139.833	-3.5
4142.237	-7.5
