Data from 0.125_n=3_RamanShift_02.txt Node
Date: Mon Mar 19 12:07:33 IST 2018
User: aro
Spectrometer: QEPB0276
Trigger mode: 0
Integration Time (sec): 5.000000E0
Scans to average: 1
Electric dark correction enabled: true
Nonlinearity correction enabled: false
Boxcar width: 0
XAxis mode: Raman Shifts
Number of Pixels in Spectrum: 1044
>>>>>Begin Spectral Data<<<<<
160.701	-1
166.742	0
172.777	2
178.805	12
184.826	29
190.841	58
196.849	89
202.85	107
208.845	118
214.833	116
220.815	112
226.789	121
232.758	122
238.719	122
244.674	117
250.623	124
256.565	122
262.5	118
268.429	119
274.351	118
280.267	121
286.176	115
292.079	121
297.975	119
303.865	123
309.748	119
315.625	120
321.495	121
327.359	123
333.217	122
339.068	128
344.912	130
350.751	125
356.583	126
362.408	125
368.227	119
374.04	123
379.847	125
385.647	137
391.44	141
397.228	145
403.009	154
408.784	155
414.553	158
420.315	163
426.071	172
431.821	154
437.565	136
443.302	127
449.033	131
454.758	127
460.477	130
466.189	134
471.896	125
477.596	118
483.29	118
488.978	114
494.66	115
500.335	113
506.005	110
511.668	102
517.325	99
522.977	92
528.622	89
534.261	87
539.894	82
545.521	81
551.141	78
556.756	77
562.365	73
567.968	72
573.565	75
579.155	70
584.74	72
590.319	66
595.892	68
601.459	71
607.02	70
612.575	70
618.124	71
623.667	71
629.204	63
634.735	62
640.261	67
645.781	64
651.294	71
656.802	74
662.304	68
667.8	65
673.29	66
678.775	65
684.254	62
689.726	56
695.193	60
700.655	60
706.11	61
711.56	59
717.004	61
722.442	58
727.874	56
733.301	54
738.722	55
744.137	57
749.547	55
754.951	61
760.349	61
765.741	64
771.128	62
776.509	62
781.885	62
787.254	67
792.618	62
797.977	69
803.33	75
808.677	86
814.019	106
819.355	99
824.686	83
830.011	69
835.33	79
840.644	83
845.952	84
851.255	84
856.552	78
861.844	65
867.13	63
872.41	59
877.686	54
882.955	50
888.219	52
893.478	52
898.731	51
903.979	54
909.221	56
914.458	53
919.69	52
924.916	51
930.136	48
935.351	50
940.561	51
945.766	56
950.965	54
956.158	48
961.347	52
966.529	55
971.707	55
976.879	62
982.046	63
987.208	57
992.364	53
997.515	54
1002.66	59
1007.801	59
1012.936	47
1018.066	53
1023.19	51
1028.309	52
1033.423	55
1038.532	59
1043.636	63
1048.734	61
1053.827	55
1058.915	44
1063.998	46
1069.075	41
1074.147	42
1079.214	46
1084.276	47
1089.333	54
1094.385	47
1099.431	49
1104.472	47
1109.509	44
1114.54	42
1119.565	44
1124.586	43
1129.602	43
1134.613	43
1139.618	47
1144.619	56
1149.614	60
1154.604	72
1159.589	79
1164.57	72
1169.545	69
1174.515	61
1179.48	57
1184.44	50
1189.395	46
1194.345	49
1199.29	45
1204.23	43
1209.165	37
1214.095	44
1219.021	50
1223.941	58
1228.856	54
1233.766	55
1238.672	51
1243.572	44
1248.467	45
1253.358	44
1258.244	44
1263.124	37
1268	37
1272.871	42
1277.737	39
1282.599	38
1287.455	49
1292.306	43
1297.153	43
1301.995	44
1306.832	42
1311.664	43
1316.491	45
1321.314	51
1326.132	60
1330.945	70
1335.753	82
1340.556	75
1345.354	53
1350.148	51
1354.937	47
1359.722	46
1364.501	50
1369.276	51
1374.046	48
1378.811	44
1383.572	37
1388.327	37
1393.079	36
1397.825	36
1402.567	33
1407.304	35
1412.036	33
1416.764	27
1421.487	33
1426.205	32
1430.919	38
1435.628	46
1440.333	56
1445.032	58
1449.727	60
1454.418	69
1459.104	82
1463.785	86
1468.462	88
1473.134	66
1477.802	52
1482.465	36
1487.123	41
1491.777	37
1496.426	32
1501.071	30
1505.711	31
1510.347	28
1514.978	33
1519.604	30
1524.226	26
1528.844	33
1533.457	31
1538.065	33
1542.669	33
1547.269	26
1551.864	25
1556.454	27
1561.041	27
1565.622	24
1570.199	27
1574.772	22
1579.34	29
1583.904	30
1588.464	28
1593.019	23
1597.569	30
1602.115	24
1606.657	23
1611.195	26
1615.728	27
1620.256	29
1624.78	32
1629.3	29
1633.816	25
1638.327	29
1642.834	30
1647.336	26
1651.834	21
1656.328	24
1660.817	25
1665.302	26
1669.783	25
1674.259	30
1678.732	29
1683.199	26
1687.663	26
1692.122	19
1696.577	21
1701.028	24
1705.474	21
1709.917	21
1714.355	23
1718.788	24
1723.218	24
1727.643	20
1732.064	24
1736.481	20
1740.893	19
1745.301	24
1749.705	20
1754.105	22
1758.501	18
1762.893	16
1767.28	18
1771.663	17
1776.042	14
1780.417	16
1784.787	19
1789.154	18
1793.516	19
1797.874	16
1802.228	17
1806.578	14
1810.924	20
1815.266	18
1819.603	15
1823.937	21
1828.266	19
1832.591	17
1836.913	11
1841.23	17
1845.543	14
1849.852	13
1854.156	17
1858.457	16
1862.754	20
1867.047	16
1871.335	19
1875.62	16
1879.9	12
1884.177	16
1888.449	12
1892.718	18
1896.982	17
1901.243	21
1905.499	16
1909.752	15
1914	16
1918.245	12
1922.485	10
1926.722	15
1930.954	11
1935.183	14
1939.408	16
1943.628	16
1947.845	19
1952.058	19
1956.267	12
1960.472	7
1964.673	12
1968.87	9
1973.063	13
1977.252	13
1981.438	15
1985.619	17
1989.797	15
1993.971	10
1998.14	10
2002.306	9
2006.469	11
2010.627	13
2014.781	12
2018.932	13
2023.078	12
2027.221	16
2031.36	10
2035.495	14
2039.627	10
2043.754	9
2047.878	12
2051.998	5
2056.114	11
2060.226	14
2064.334	8
2068.439	10
2072.54	9
2076.637	11
2080.73	12
2084.82	11
2088.906	12
2092.988	9
2097.066	8
2101.14	12
2105.211	10
2109.278	12
2113.342	11
2117.401	12
2121.457	11
2125.509	11
2129.558	9
2133.602	12
2137.643	7
2141.681	9
2145.714	12
2149.744	11
2153.77	9
2157.793	14
2161.812	11
2165.827	7
2169.838	7
2173.846	3
2177.851	6
2181.851	5
2185.848	10
2189.841	9
2193.831	7
2197.817	11
2201.799	8
2205.778	3
2209.753	5
2213.725	1
2217.693	6
2221.657	5
2225.618	11
2229.575	11
2233.529	10
2237.479	4
2241.425	7
2245.368	4
2249.307	1
2253.243	4
2257.175	4
2261.104	9
2265.029	7
2268.95	5
2272.868	9
2276.783	5
2280.694	5
2284.601	2
2288.505	4
2292.405	2
2296.302	9
2300.195	7
2304.085	4
2307.971	5
2311.854	3
2315.734	5
2319.609	2
2323.482	3
2327.351	2
2331.216	8
2335.078	8
2338.937	8
2342.792	3
2346.643	1
2350.492	5
2354.336	2
2358.178	3
2362.015	3
2365.85	5
2369.681	4
2373.508	3
2377.333	4
2381.153	7
2384.971	4
2388.785	6
2392.595	4
2396.402	4
2400.206	4
2404.007	3
2407.804	0
2411.597	2
2415.388	1
2419.174	5
2422.958	9
2426.738	0
2430.515	5
2434.289	5
2438.059	0
2441.825	0
2445.589	2
2449.349	3
2453.106	2
2456.859	4
2460.61	4
2464.356	4
2468.1	1
2471.84	1
2475.577	2
2479.311	0
2483.041	3
2486.768	3
2490.492	5
2494.213	5
2497.93	1
2501.644	2
2505.355	0
2509.062	-1
2512.766	2
2516.467	0
2520.165	-1
2523.859	4
2527.551	3
2531.239	3
2534.923	3
2538.605	1
2542.283	-4
2545.958	3
2549.63	3
2553.299	3
2556.964	4
2560.626	2
2564.285	-2
2567.941	1
2571.594	-2
2575.243	-4
2578.89	2
2582.533	-1
2586.173	2
2589.809	5
2593.443	6
2597.073	5
2600.701	0
2604.325	-2
2607.946	0
2611.564	4
2615.178	3
2618.79	1
2622.398	4
2626.004	3
2629.606	6
2633.205	2
2636.801	1
2640.394	0
2643.983	0
2647.57	2
2651.153	6
2654.734	5
2658.311	1
2661.885	3
2665.456	3
2669.025	3
2672.589	4
2676.151	2
2679.71	6
2683.266	0
2686.819	4
2690.368	3
2693.915	3
2697.458	3
2700.999	6
2704.536	3
2708.071	7
2711.602	5
2715.13	5
2718.656	-1
2722.178	1
2725.697	1
2729.214	6
2732.727	5
2736.237	8
2739.744	5
2743.249	7
2746.75	6
2750.248	0
2753.743	-1
2757.236	2
2760.725	1
2764.211	2
2767.695	5
2771.175	4
2774.652	7
2778.127	1
2781.598	3
2785.067	-1
2788.532	2
2791.995	0
2795.455	3
2798.911	3
2802.365	5
2805.816	3
2809.264	3
2812.709	3
2816.151	4
2819.59	2
2823.026	3
2826.46	2
2829.89	10
2833.318	10
2836.742	11
2840.164	20
2843.583	22
2846.999	21
2850.412	18
2853.822	12
2857.229	17
2860.634	15
2864.035	21
2867.434	26
2870.83	29
2874.223	38
2877.613	40
2881	35
2884.385	40
2887.766	41
2891.145	39
2894.521	35
2897.894	40
2901.264	37
2904.631	36
2907.996	36
2911.358	35
2914.717	29
2918.073	22
2921.426	25
2924.777	22
2928.124	21
2931.469	20
2934.811	23
2938.15	20
2941.487	20
2944.821	16
2948.152	17
2951.48	17
2954.805	21
2958.128	23
2961.447	17
2964.765	20
2968.079	23
2971.39	16
2974.699	15
2978.005	6
2981.308	9
2984.609	10
2987.907	7
2991.202	9
2994.494	9
2997.784	8
3001.07	6
3004.355	2
3007.636	4
3010.915	5
3014.191	6
3017.464	1
3020.734	7
3024.002	3
3027.267	6
3030.53	2
3033.789	1
3037.046	-4
3040.301	3
3043.552	3
3046.801	6
3050.048	3
3053.291	3
3056.532	3
3059.771	5
3063.006	3
3066.239	1
3069.469	4
3072.697	2
3075.922	4
3079.144	7
3082.364	4
3085.581	5
3088.795	6
3092.007	1
3095.216	2
3098.423	0
3101.627	-3
3104.828	4
3108.026	6
3111.222	4
3114.416	5
3117.607	10
3120.795	7
3123.98	3
3127.163	2
3130.344	4
3133.521	5
3136.696	8
3139.869	8
3143.039	10
3146.206	10
3149.371	8
3152.533	6
3155.693	4
3158.85	4
3162.005	5
3165.157	1
3168.306	3
3171.453	10
3174.597	10
3177.739	8
3180.878	10
3184.014	8
3187.149	4
3190.28	0
3193.409	2
3196.536	3
3199.659	8
3202.781	9
3205.9	11
3209.016	10
3212.13	6
3215.241	8
3218.35	8
3221.456	6
3224.56	6
3227.661	5
3230.76	8
3233.856	7
3236.95	11
3240.041	6
3243.13	4
3246.216	5
3249.3	6
3252.382	7
3255.46	6
3258.537	5
3261.611	7
3264.682	5
3267.751	11
3270.818	4
3273.882	4
3276.943	6
3280.002	7
3283.059	3
3286.113	3
3289.165	1
3292.214	2
3295.261	3
3298.306	3
3301.348	5
3304.387	4
3307.425	5
3310.459	7
3313.492	1
3316.521	3
3319.549	3
3322.574	2
3325.597	2
3328.617	1
3331.635	3
3334.65	4
3337.663	5
3340.674	6
3343.682	6
3346.688	5
3349.691	1
3352.692	0
3355.691	-2
3358.687	-2
3361.681	6
3364.673	6
3367.662	4
3370.649	8
3373.633	3
3376.615	5
3379.595	-3
3382.572	0
3385.547	2
3388.52	2
3391.49	4
3394.458	5
3397.424	4
3400.387	4
3403.348	2
3406.307	0
3409.263	4
3412.217	1
3415.168	0
3418.118	1
3421.065	7
3424.009	4
3426.951	4
3429.891	0
3432.829	2
3435.764	0
3438.697	-4
3441.628	-2
3444.557	2
3447.483	3
3450.407	6
3453.328	5
3456.247	-2
3459.164	2
3462.079	3
3464.991	1
3467.902	-5
3470.809	1
3473.715	1
3476.618	3
3479.519	2
3482.418	1
3485.315	0
3488.209	1
3491.101	1
3493.99	-4
3496.878	-1
3499.763	-2
3502.646	0
3505.527	1
3508.405	3
3511.281	-2
3514.155	-2
3517.027	2
3519.897	1
3522.764	-2
3525.629	-3
3528.492	-3
3531.352	-4
3534.211	-2
3537.067	-5
3539.921	-2
3542.773	-2
3545.622	1
3548.469	-3
3551.315	2
3554.157	-5
3556.998	-1
3559.837	-6
3562.673	-7
3565.507	0
3568.339	1
3571.169	-1
3573.996	0
3576.822	-2
3579.645	-5
3582.466	-5
3585.285	-5
3588.101	-6
3590.916	0
3593.728	1
3596.538	0
3599.346	-2
3602.152	1
3604.956	-4
3607.757	-4
3610.556	-6
3613.354	-2
3616.149	-2
3618.942	-1
3621.732	2
3624.521	0
3627.307	0
3630.092	-2
3632.874	-4
3635.654	-3
3638.432	-4
3641.208	-3
3643.982	0
3646.753	1
3649.523	-4
3652.29	-4
3655.055	-5
3657.818	-3
3660.579	-2
3663.338	-6
3666.095	-3
3668.849	-1
3671.602	0
3674.352	2
3677.101	-3
3679.847	-4
3682.591	-2
3685.333	-5
3688.073	-4
3690.811	-2
3693.547	-2
3696.281	-4
3699.013	-3
3701.742	0
3704.47	-4
3707.195	-3
3709.919	-6
3712.64	-3
3715.359	-5
3718.076	-3
3720.792	-5
3723.505	-2
3726.216	-3
3728.925	-4
3731.632	-1
3734.336	-5
3737.039	-1
3739.74	-4
3742.439	-2
3745.136	-2
3747.83	-4
3750.523	-1
3753.213	-8
3755.902	0
3758.589	0
3761.273	-3
3763.956	-2
3766.636	-5
3769.315	-7
3771.991	-7
3774.665	-2
3777.338	-2
3780.008	0
3782.677	-3
3785.343	-3
3788.007	-2
3790.67	-2
3793.33	-4
3795.989	-6
3798.645	-7
3801.299	-4
3803.952	-1
3806.602	2
3809.251	1
3811.897	-4
3814.542	-4
3817.184	-4
3819.825	-7
3822.463	-8
3825.1	-5
3827.735	-4
3830.367	-1
3832.998	-3
3835.627	3
3838.253	-2
3840.878	-6
3843.501	-5
3846.122	-7
3848.741	-3
3851.358	-1
3853.973	0
3856.586	-2
3859.197	1
3861.806	-4
3864.414	-5
3867.019	-8
3869.622	-8
3872.224	-7
3874.823	-1
3877.421	-1
3880.016	-3
3882.61	1
3885.202	4
3887.792	3
3890.38	-2
3892.966	-7
3895.55	-3
3898.132	-2
3900.713	-3
3903.291	-4
3905.868	0
3908.442	0
3911.015	-8
3913.586	-3
3916.155	0
3918.722	-3
3921.287	-4
3923.85	-3
3926.411	1
3928.971	-3
3931.528	0
3934.084	-3
3936.638	-2
3939.19	-4
3941.74	-1
3944.288	-6
3946.834	-3
3949.378	-2
3951.921	-2
3954.462	-3
3957	-4
3959.537	-3
3962.072	-2
3964.606	-3
3967.137	-2
3969.667	-1
3972.194	-5
3974.72	-3
3977.244	-5
3979.766	-1
3982.286	-4
3984.805	-1
3987.321	-1
3989.836	-2
3992.349	-3
3994.86	-1
3997.369	-3
3999.877	-7
4002.382	-5
4004.886	-3
4007.388	-1
4009.888	-6
4012.386	-3
4014.883	-1
4017.377	-1
4019.87	-2
4022.361	-4
4024.85	-6
4027.338	-6
4029.823	-3
4032.307	1
4034.789	-2
4037.269	1
4039.747	0
4042.224	-3
4044.699	-5
4047.172	-5
4049.643	-7
4052.112	-7
4054.58	-5
4057.046	-1
4059.51	-1
4061.972	2
4064.432	-2
4066.891	-5
4069.348	-4
4071.803	-4
4074.256	-8
4076.708	-4
4079.158	-1
4081.606	-4
4084.052	1
4086.497	0
4088.939	2
4091.38	-2
4093.819	-3
4096.257	-6
4098.693	-7
4101.127	-7
4103.559	1
4105.989	5
4108.418	4
4110.845	3
4113.27	-1
4115.694	3
4118.115	1
4120.535	-5
4122.954	-7
4125.37	-8
4127.785	-6
4130.198	-3
4132.609	0
4135.019	-2
4137.427	-2
4139.833	-2
4142.237	-7
