Data from 0.25_n=5_RamanShift_01.txt Node
Date: Mon Mar 19 12:13:58 IST 2018
User: aro
Spectrometer: QEPB0276
Trigger mode: 0
Integration Time (sec): 5.000000E0
Scans to average: 1
Electric dark correction enabled: true
Nonlinearity correction enabled: false
Boxcar width: 0
XAxis mode: Raman Shifts
Number of Pixels in Spectrum: 1044
>>>>>Begin Spectral Data<<<<<
160.701	-2
166.742	1
172.777	2
178.805	14
184.826	24
190.841	42
196.849	67
202.85	86
208.845	89
214.833	91
220.815	93
226.789	93
232.758	91
238.719	96
244.674	99
250.623	98
256.565	99
262.5	94
268.429	96
274.351	96
280.267	99
286.176	101
292.079	100
297.975	97
303.865	98
309.748	95
315.625	100
321.495	102
327.359	103
333.217	106
339.068	105
344.912	112
350.751	103
356.583	104
362.408	103
368.227	105
374.04	106
379.847	113
385.647	114
391.44	119
397.228	126
403.009	128
408.784	135
414.553	142
420.315	145
426.071	150
431.821	135
437.565	118
443.302	109
449.033	117
454.758	109
460.477	114
466.189	111
471.896	100
477.596	101
483.29	100
488.978	97
494.66	96
500.335	97
506.005	89
511.668	77
517.325	80
522.977	70
528.622	71
534.261	67
539.894	64
545.521	61
551.141	55
556.756	54
562.365	54
567.968	53
573.565	55
579.155	51
584.74	54
590.319	52
595.892	51
601.459	55
607.02	56
612.575	51
618.124	53
623.667	54
629.204	47
634.735	50
640.261	51
645.781	50
651.294	58
656.802	56
662.304	50
667.8	50
673.29	46
678.775	48
684.254	42
689.726	41
695.193	46
700.655	44
706.11	47
711.56	41
717.004	41
722.442	36
727.874	45
733.301	40
738.722	42
744.137	43
749.547	44
754.951	44
760.349	46
765.741	44
771.128	42
776.509	42
781.885	46
787.254	47
792.618	50
797.977	52
803.33	58
808.677	68
814.019	74
819.355	74
824.686	60
830.011	52
835.33	56
840.644	60
845.952	66
851.255	67
856.552	58
861.844	51
867.13	49
872.41	45
877.686	43
882.955	35
888.219	39
893.478	37
898.731	42
903.979	42
909.221	45
914.458	38
919.69	38
924.916	36
930.136	35
935.351	35
940.561	36
945.766	37
950.965	36
956.158	39
961.347	38
966.529	42
971.707	38
976.879	44
982.046	45
987.208	40
992.364	40
997.515	36
1002.66	44
1007.801	50
1012.936	39
1018.066	39
1023.19	36
1028.309	35
1033.423	40
1038.532	45
1043.636	48
1048.734	43
1053.827	38
1058.915	35
1063.998	35
1069.075	30
1074.147	31
1079.214	32
1084.276	34
1089.333	32
1094.385	35
1099.431	33
1104.472	37
1109.509	32
1114.54	35
1119.565	30
1124.586	36
1129.602	31
1134.613	35
1139.618	33
1144.619	39
1149.614	40
1154.604	51
1159.589	57
1164.57	52
1169.545	46
1174.515	49
1179.48	47
1184.44	40
1189.395	33
1194.345	36
1199.29	32
1204.23	33
1209.165	30
1214.095	30
1219.021	34
1223.941	48
1228.856	41
1233.766	39
1238.672	31
1243.572	33
1248.467	29
1253.358	28
1258.244	29
1263.124	30
1268	29
1272.871	31
1277.737	31
1282.599	30
1287.455	29
1292.306	28
1297.153	26
1301.995	27
1306.832	29
1311.664	28
1316.491	34
1321.314	41
1326.132	42
1330.945	49
1335.753	52
1340.556	49
1345.354	37
1350.148	36
1354.937	33
1359.722	33
1364.501	36
1369.276	44
1374.046	37
1378.811	33
1383.572	23
1388.327	24
1393.079	25
1397.825	25
1402.567	24
1407.304	23
1412.036	24
1416.764	24
1421.487	26
1426.205	28
1430.919	26
1435.628	30
1440.333	37
1445.032	41
1449.727	41
1454.418	49
1459.104	58
1463.785	61
1468.462	64
1473.134	52
1477.802	33
1482.465	26
1487.123	26
1491.777	27
1496.426	25
1501.071	23
1505.711	26
1510.347	22
1514.978	22
1519.604	24
1524.226	15
1528.844	19
1533.457	21
1538.065	22
1542.669	21
1547.269	21
1551.864	18
1556.454	16
1561.041	17
1565.622	19
1570.199	17
1574.772	16
1579.34	18
1583.904	18
1588.464	18
1593.019	17
1597.569	21
1602.115	18
1606.657	16
1611.195	21
1615.728	17
1620.256	17
1624.78	17
1629.3	18
1633.816	18
1638.327	23
1642.834	18
1647.336	15
1651.834	15
1656.328	18
1660.817	19
1665.302	20
1669.783	20
1674.259	19
1678.732	16
1683.199	18
1687.663	18
1692.122	15
1696.577	16
1701.028	16
1705.474	14
1709.917	16
1714.355	12
1718.788	12
1723.218	12
1727.643	11
1732.064	16
1736.481	16
1740.893	12
1745.301	17
1749.705	12
1754.105	14
1758.501	10
1762.893	13
1767.28	10
1771.663	14
1776.042	7
1780.417	12
1784.787	16
1789.154	11
1793.516	11
1797.874	11
1802.228	12
1806.578	10
1810.924	13
1815.266	13
1819.603	8
1823.937	15
1828.266	9
1832.591	11
1836.913	11
1841.23	7
1845.543	9
1849.852	7
1854.156	10
1858.457	11
1862.754	11
1867.047	10
1871.335	13
1875.62	10
1879.9	11
1884.177	12
1888.449	6
1892.718	13
1896.982	10
1901.243	13
1905.499	12
1909.752	9
1914	9
1918.245	5
1922.485	6
1926.722	13
1930.954	11
1935.183	12
1939.408	12
1943.628	15
1947.845	10
1952.058	12
1956.267	4
1960.472	3
1964.673	7
1968.87	6
1973.063	8
1977.252	9
1981.438	11
1985.619	11
1989.797	10
1993.971	9
1998.14	5
2002.306	4
2006.469	6
2010.627	9
2014.781	11
2018.932	11
2023.078	8
2027.221	8
2031.36	4
2035.495	6
2039.627	1
2043.754	5
2047.878	7
2051.998	6
2056.114	5
2060.226	12
2064.334	8
2068.439	7
2072.54	3
2076.637	4
2080.73	4
2084.82	6
2088.906	8
2092.988	9
2097.066	7
2101.14	9
2105.211	9
2109.278	8
2113.342	3
2117.401	7
2121.457	4
2125.509	5
2129.558	3
2133.602	8
2137.643	2
2141.681	5
2145.714	5
2149.744	6
2153.77	3
2157.793	6
2161.812	4
2165.827	6
2169.838	2
2173.846	1
2177.851	4
2181.851	5
2185.848	6
2189.841	8
2193.831	2
2197.817	4
2201.799	1
2205.778	1
2209.753	0
2213.725	3
2217.693	0
2221.657	2
2225.618	7
2229.575	8
2233.529	2
2237.479	3
2241.425	0
2245.368	0
2249.307	0
2253.243	7
2257.175	2
2261.104	9
2265.029	6
2268.95	1
2272.868	1
2276.783	1
2280.694	4
2284.601	1
2288.505	4
2292.405	2
2296.302	4
2300.195	6
2304.085	1
2307.971	4
2311.854	-1
2315.734	1
2319.609	-1
2323.482	0
2327.351	1
2331.216	6
2335.078	3
2338.937	2
2342.792	1
2346.643	1
2350.492	4
2354.336	2
2358.178	2
2362.015	-1
2365.85	1
2369.681	2
2373.508	-2
2377.333	-2
2381.153	3
2384.971	2
2388.785	2
2392.595	4
2396.402	4
2400.206	4
2404.007	1
2407.804	0
2411.597	-1
2415.388	-3
2419.174	-1
2422.958	6
2426.738	1
2430.515	9
2434.289	2
2438.059	2
2441.825	-5
2445.589	-4
2449.349	-5
2453.106	2
2456.859	1
2460.61	3
2464.356	7
2468.1	3
2471.84	-4
2475.577	0
2479.311	-2
2483.041	1
2486.768	-1
2490.492	-3
2494.213	1
2497.93	1
2501.644	1
2505.355	1
2509.062	0
2512.766	0
2516.467	-2
2520.165	-1
2523.859	-1
2527.551	1
2531.239	1
2534.923	0
2538.605	-2
2542.283	-5
2545.958	4
2549.63	3
2553.299	3
2556.964	1
2560.626	-1
2564.285	-1
2567.941	-2
2571.594	-1
2575.243	0
2578.89	3
2582.533	4
2586.173	2
2589.809	2
2593.443	-1
2597.073	0
2600.701	-1
2604.325	-5
2607.946	-2
2611.564	4
2615.178	5
2618.79	4
2622.398	3
2626.004	1
2629.606	1
2633.205	-1
2636.801	-1
2640.394	-2
2643.983	0
2647.57	-1
2651.153	4
2654.734	2
2658.311	4
2661.885	3
2665.456	2
2669.025	-3
2672.589	-2
2676.151	2
2679.71	2
2683.266	-1
2686.819	6
2690.368	2
2693.915	0
2697.458	0
2700.999	3
2704.536	-3
2708.071	2
2711.602	-1
2715.13	3
2718.656	3
2722.178	2
2725.697	-2
2729.214	5
2732.727	2
2736.237	7
2739.744	1
2743.249	6
2746.75	2
2750.248	-1
2753.743	-1
2757.236	-1
2760.725	-2
2764.211	5
2767.695	0
2771.175	1
2774.652	2
2778.127	-2
2781.598	0
2785.067	-3
2788.532	-2
2791.995	-1
2795.455	0
2798.911	2
2802.365	1
2805.816	2
2809.264	1
2812.709	3
2816.151	3
2819.59	-2
2823.026	-2
2826.46	1
2829.89	4
2833.318	9
2836.742	9
2840.164	16
2843.583	17
2846.999	17
2850.412	14
2853.822	9
2857.229	11
2860.634	10
2864.035	10
2867.434	19
2870.83	23
2874.223	25
2877.613	24
2881	25
2884.385	25
2887.766	30
2891.145	27
2894.521	31
2897.894	30
2901.264	28
2904.631	28
2907.996	25
2911.358	24
2914.717	21
2918.073	17
2921.426	18
2924.777	14
2928.124	14
2931.469	15
2934.811	16
2938.15	16
2941.487	17
2944.821	12
2948.152	10
2951.48	11
2954.805	13
2958.128	14
2961.447	13
2964.765	13
2968.079	19
2971.39	13
2974.699	10
2978.005	3
2981.308	4
2984.609	3
2987.907	2
2991.202	3
2994.494	3
2997.784	4
3001.07	6
3004.355	-1
3007.636	2
3010.915	-1
3014.191	1
3017.464	-3
3020.734	2
3024.002	-1
3027.267	3
3030.53	1
3033.789	2
3037.046	-1
3040.301	3
3043.552	-2
3046.801	-1
3050.048	-2
3053.291	-4
3056.532	-2
3059.771	3
3063.006	-2
3066.239	0
3069.469	4
3072.697	1
3075.922	-1
3079.144	2
3082.364	-2
3085.581	-2
3088.795	0
3092.007	3
3095.216	-1
3098.423	-1
3101.627	-2
3104.828	4
3108.026	-1
3111.222	0
3114.416	0
3117.607	1
3120.795	0
3123.98	1
3127.163	3
3130.344	0
3133.521	3
3136.696	2
3139.869	2
3143.039	3
3146.206	3
3149.371	1
3152.533	3
3155.693	0
3158.85	0
3162.005	3
3165.157	0
3168.306	1
3171.453	-2
3174.597	2
3177.739	0
3180.878	4
3184.014	2
3187.149	2
3190.28	-1
3193.409	0
3196.536	-1
3199.659	5
3202.781	3
3205.9	4
3209.016	0
3212.13	2
3215.241	-1
3218.35	5
3221.456	0
3224.56	2
3227.661	1
3230.76	9
3233.856	1
3236.95	3
3240.041	-2
3243.13	-2
3246.216	2
3249.3	6
3252.382	2
3255.46	6
3258.537	0
3261.611	4
3264.682	1
3267.751	2
3270.818	-4
3273.882	-1
3276.943	2
3280.002	1
3283.059	1
3286.113	6
3289.165	-2
3292.214	1
3295.261	-3
3298.306	-2
3301.348	-3
3304.387	-3
3307.425	2
3310.459	7
3313.492	-3
3316.521	2
3319.549	-3
3322.574	0
3325.597	-4
3328.617	-3
3331.635	-1
3334.65	-2
3337.663	0
3340.674	3
3343.682	2
3346.688	5
3349.691	-2
3352.692	-3
3355.691	-6
3358.687	-4
3361.681	0
3364.673	2
3367.662	0
3370.649	8
3373.633	1
3376.615	2
3379.595	-5
3382.572	-3
3385.547	-3
3388.52	-1
3391.49	0
3394.458	1
3397.424	1
3400.387	0
3403.348	-1
3406.307	-4
3409.263	-1
3412.217	0
3415.168	-5
3418.118	-2
3421.065	4
3424.009	2
3426.951	2
3429.891	1
3432.829	-3
3435.764	-3
3438.697	-6
3441.628	-3
3444.557	-2
3447.483	-3
3450.407	-3
3453.328	3
3456.247	-3
3459.164	-2
3462.079	1
3464.991	-3
3467.902	-5
3470.809	-2
3473.715	-2
3476.618	0
3479.519	-4
3482.418	-1
3485.315	-5
3488.209	1
3491.101	-1
3493.99	-4
3496.878	-1
3499.763	-3
3502.646	1
3505.527	-1
3508.405	-4
3511.281	-4
3514.155	-2
3517.027	1
3519.897	-1
3522.764	-3
3525.629	-5
3528.492	-7
3531.352	-5
3534.211	-5
3537.067	-8
3539.921	-2
3542.773	-2
3545.622	0
3548.469	-1
3551.315	-1
3554.157	-4
3556.998	-3
3559.837	-11
3562.673	-9
3565.507	-4
3568.339	-2
3571.169	-1
3573.996	-1
3576.822	-4
3579.645	-7
3582.466	-5
3585.285	-3
3588.101	-9
3590.916	-3
3593.728	-3
3596.538	-1
3599.346	-4
3602.152	-2
3604.956	-6
3607.757	-2
3610.556	-5
3613.354	-3
3616.149	-9
3618.942	-5
3621.732	-4
3624.521	1
3627.307	-3
3630.092	-3
3632.874	-2
3635.654	-3
3638.432	-8
3641.208	-3
3643.982	-5
3646.753	-3
3649.523	-8
3652.29	-4
3655.055	-7
3657.818	-5
3660.579	-2
3663.338	1
3666.095	-2
3668.849	-3
3671.602	-3
3674.352	-1
3677.101	-8
3679.847	-7
3682.591	-2
3685.333	-6
3688.073	-4
3690.811	-1
3693.547	-3
3696.281	-5
3699.013	-3
3701.742	-6
3704.47	-10
3707.195	-4
3709.919	-7
3712.64	-4
3715.359	-1
3718.076	-1
3720.792	-4
3723.505	-1
3726.216	-7
3728.925	-7
3731.632	-7
3734.336	-9
3737.039	-1
3739.74	-2
3742.439	-4
3745.136	-2
3747.83	-3
3750.523	-5
3753.213	-7
3755.902	-5
3758.589	-7
3761.273	-6
3763.956	-5
3766.636	-1
3769.315	-5
3771.991	-5
3774.665	-5
3777.338	-1
3780.008	-4
3782.677	-6
3785.343	-6
3788.007	-3
3790.67	-3
3793.33	-5
3795.989	-7
3798.645	-5
3801.299	-2
3803.952	-2
3806.602	-6
3809.251	-4
3811.897	-3
3814.542	-7
3817.184	-8
3819.825	-6
3822.463	-5
3825.1	-4
3827.735	-4
3830.367	-2
3832.998	-5
3835.627	-2
3838.253	-2
3840.878	-8
3843.501	-10
3846.122	-9
3848.741	-4
3851.358	-3
3853.973	0
3856.586	-4
3859.197	-3
3861.806	-5
3864.414	-8
3867.019	-7
3869.622	-10
3872.224	-9
3874.823	-3
3877.421	-1
3880.016	-2
3882.61	0
3885.202	4
3887.792	0
3890.38	-6
3892.966	-3
3895.55	-5
3898.132	-6
3900.713	-2
3903.291	-3
3905.868	-1
3908.442	-4
3911.015	-9
3913.586	-3
3916.155	-2
3918.722	-2
3921.287	-7
3923.85	-3
3926.411	-5
3928.971	-7
3931.528	-6
3934.084	-4
3936.638	-4
3939.19	-6
3941.74	-3
3944.288	-7
3946.834	-3
3949.378	-4
3951.921	-5
3954.462	-7
3957	-6
3959.537	-1
3962.072	-6
3964.606	1
3967.137	-3
3969.667	-2
3972.194	-5
3974.72	-5
3977.244	-9
3979.766	-5
3982.286	-6
3984.805	-5
3987.321	-3
3989.836	-6
3992.349	-3
3994.86	-2
3997.369	-8
3999.877	-7
4002.382	-8
4004.886	-8
4007.388	-6
4009.888	-8
4012.386	-3
4014.883	-3
4017.377	-1
4019.87	-5
4022.361	-5
4024.85	-7
4027.338	-5
4029.823	-8
4032.307	-4
4034.789	-3
4037.269	-1
4039.747	0
4042.224	-2
4044.699	-8
4047.172	-5
4049.643	-7
4052.112	-8
4054.58	-4
4057.046	-6
4059.51	-1
4061.972	-1
4064.432	-3
4066.891	-2
4069.348	-2
4071.803	-8
4074.256	-10
4076.708	-7
4079.158	-2
4081.606	-7
4084.052	3
4086.497	-1
4088.939	2
4091.38	-2
4093.819	-6
4096.257	-8
4098.693	-6
4101.127	-6
4103.559	0
4105.989	6
4108.418	1
4110.845	1
4113.27	-3
4115.694	-4
4118.115	1
4120.535	-7
4122.954	-7
4125.37	-9
4127.785	-8
4130.198	-4
4132.609	-1
4135.019	-2
4137.427	-1
4139.833	-5
4142.237	-7
