Data from 0_RamanShift_01.txt Node
Date: Mon Mar 19 12:00:19 IST 2018
User: aro
Spectrometer: QEPB0276
Trigger mode: 0
Integration Time (sec): 5.000000E0
Scans to average: 1
Electric dark correction enabled: true
Nonlinearity correction enabled: false
Boxcar width: 0
XAxis mode: Raman Shifts
Number of Pixels in Spectrum: 1044
>>>>>Begin Spectral Data<<<<<
160.701	1
166.742	0
172.777	4
178.805	18
184.826	42
190.841	90
196.849	138
202.85	175
208.845	184
214.833	187
220.815	192
226.789	187
232.758	188
238.719	195
244.674	196
250.623	196
256.565	197
262.5	192
268.429	190
274.351	185
280.267	189
286.176	178
292.079	179
297.975	186
303.865	178
309.748	184
315.625	190
321.495	195
327.359	194
333.217	196
339.068	194
344.912	184
350.751	178
356.583	183
362.408	180
368.227	182
374.04	186
379.847	191
385.647	200
391.44	216
397.228	228
403.009	248
408.784	245
414.553	239
420.315	229
426.071	238
431.821	216
437.565	203
443.302	190
449.033	201
454.758	193
460.477	199
466.189	197
471.896	193
477.596	177
483.29	178
488.978	172
494.66	174
500.335	178
506.005	169
511.668	157
517.325	154
522.977	151
528.622	153
534.261	156
539.894	139
545.521	143
551.141	143
556.756	124
562.365	131
567.968	129
573.565	128
579.155	119
584.74	119
590.319	119
595.892	122
601.459	119
607.02	118
612.575	115
618.124	119
623.667	113
629.204	113
634.735	113
640.261	118
645.781	112
651.294	120
656.802	119
662.304	111
667.8	111
673.29	114
678.775	110
684.254	114
689.726	108
695.193	106
700.655	105
706.11	102
711.56	107
717.004	105
722.442	96
727.874	106
733.301	100
738.722	104
744.137	99
749.547	105
754.951	106
760.349	107
765.741	102
771.128	109
776.509	106
781.885	108
787.254	111
792.618	113
797.977	123
803.33	142
808.677	178
814.019	206
819.355	196
824.686	165
830.011	140
835.33	148
840.644	167
845.952	192
851.255	180
856.552	149
861.844	126
867.13	112
872.41	107
877.686	101
882.955	93
888.219	98
893.478	103
898.731	108
903.979	105
909.221	112
914.458	100
919.69	95
924.916	89
930.136	87
935.351	93
940.561	102
945.766	112
950.965	107
956.158	102
961.347	103
966.529	101
971.707	109
976.879	124
982.046	125
987.208	112
992.364	103
997.515	107
1002.66	123
1007.801	118
1012.936	102
1018.066	101
1023.19	92
1028.309	93
1033.423	105
1038.532	115
1043.636	121
1048.734	116
1053.827	109
1058.915	94
1063.998	88
1069.075	86
1074.147	83
1079.214	83
1084.276	80
1089.333	86
1094.385	88
1099.431	181
1104.472	107
1109.509	95
1114.54	90
1119.565	82
1124.586	89
1129.602	81
1134.613	81
1139.618	91
1144.619	104
1149.614	120
1154.604	152
1159.589	167
1164.57	167
1169.545	147
1174.515	134
1179.48	116
1184.44	103
1189.395	82
1194.345	83
1199.29	84
1204.23	84
1209.165	86
1214.095	90
1219.021	100
1223.941	112
1228.856	106
1233.766	95
1238.672	91
1243.572	86
1248.467	84
1253.358	83
1258.244	85
1263.124	77
1268	72
1272.871	74
1277.737	72
1282.599	78
1287.455	78
1292.306	78
1297.153	85
1301.995	90
1306.832	89
1311.664	87
1316.491	89
1321.314	95
1326.132	118
1330.945	143
1335.753	161
1340.556	152
1345.354	117
1350.148	94
1354.937	92
1359.722	99
1364.501	101
1369.276	110
1374.046	93
1378.811	84
1383.572	75
1388.327	72
1393.079	66
1397.825	68
1402.567	62
1407.304	61
1412.036	61
1416.764	57
1421.487	63
1426.205	58
1430.919	69
1435.628	86
1440.333	109
1445.032	116
1449.727	117
1454.418	151
1459.104	166
1463.785	189
1468.462	186
1473.134	143
1477.802	98
1482.465	77
1487.123	68
1491.777	66
1496.426	62
1501.071	58
1505.711	59
1510.347	56
1514.978	54
1519.604	50
1524.226	48
1528.844	52
1533.457	54
1538.065	59
1542.669	55
1547.269	53
1551.864	50
1556.454	49
1561.041	49
1565.622	42
1570.199	47
1574.772	47
1579.34	50
1583.904	54
1588.464	52
1593.019	45
1597.569	49
1602.115	51
1606.657	45
1611.195	50
1615.728	49
1620.256	48
1624.78	48
1629.3	49
1633.816	49
1638.327	51
1642.834	47
1647.336	47
1651.834	42
1656.328	43
1660.817	46
1665.302	50
1669.783	46
1674.259	50
1678.732	46
1683.199	45
1687.663	43
1692.122	38
1696.577	40
1701.028	45
1705.474	40
1709.917	43
1714.355	43
1718.788	42
1723.218	38
1727.643	36
1732.064	38
1736.481	39
1740.893	33
1745.301	41
1749.705	35
1754.105	36
1758.501	31
1762.893	33
1767.28	28
1771.663	33
1776.042	29
1780.417	31
1784.787	31
1789.154	29
1793.516	30
1797.874	33
1802.228	32
1806.578	30
1810.924	33
1815.266	28
1819.603	30
1823.937	32
1828.266	28
1832.591	32
1836.913	24
1841.23	28
1845.543	28
1849.852	27
1854.156	24
1858.457	29
1862.754	30
1867.047	29
1871.335	29
1875.62	23
1879.9	26
1884.177	28
1888.449	23
1892.718	30
1896.982	26
1901.243	29
1905.499	25
1909.752	26
1914	23
1918.245	22
1922.485	20
1926.722	25
1930.954	25
1935.183	27
1939.408	29
1943.628	32
1947.845	24
1952.058	27
1956.267	19
1960.472	17
1964.673	20
1968.87	20
1973.063	21
1977.252	24
1981.438	20
1985.619	25
1989.797	21
1993.971	18
1998.14	20
2002.306	21
2006.469	20
2010.627	17
2014.781	22
2018.932	28
2023.078	18
2027.221	22
2031.36	18
2035.495	22
2039.627	19
2043.754	19
2047.878	23
2051.998	21
2056.114	19
2060.226	21
2064.334	18
2068.439	13
2072.54	18
2076.637	17
2080.73	20
2084.82	23
2088.906	20
2092.988	20
2097.066	11
2101.14	19
2105.211	16
2109.278	15
2113.342	16
2117.401	14
2121.457	21
2125.509	21
2129.558	19
2133.602	21
2137.643	14
2141.681	14
2145.714	13
2149.744	14
2153.77	13
2157.793	20
2161.812	20
2165.827	17
2169.838	15
2173.846	14
2177.851	15
2181.851	11
2185.848	15
2189.841	13
2193.831	11
2197.817	14
2201.799	12
2205.778	12
2209.753	14
2213.725	14
2217.693	9
2221.657	9
2225.618	14
2229.575	14
2233.529	13
2237.479	10
2241.425	12
2245.368	13
2249.307	10
2253.243	14
2257.175	11
2261.104	16
2265.029	9
2268.95	8
2272.868	10
2276.783	10
2280.694	13
2284.601	13
2288.505	12
2292.405	12
2296.302	11
2300.195	7
2304.085	7
2307.971	6
2311.854	4
2315.734	9
2319.609	7
2323.482	8
2327.351	12
2331.216	13
2335.078	10
2338.937	9
2342.792	2
2346.643	0
2350.492	5
2354.336	5
2358.178	5
2362.015	7
2365.85	8
2369.681	8
2373.508	5
2377.333	6
2381.153	7
2384.971	7
2388.785	6
2392.595	5
2396.402	6
2400.206	11
2404.007	5
2407.804	5
2411.597	5
2415.388	6
2419.174	6
2422.958	10
2426.738	4
2430.515	6
2434.289	5
2438.059	4
2441.825	2
2445.589	4
2449.349	3
2453.106	10
2456.859	6
2460.61	10
2464.356	10
2468.1	5
2471.84	2
2475.577	3
2479.311	1
2483.041	4
2486.768	4
2490.492	5
2494.213	5
2497.93	4
2501.644	4
2505.355	3
2509.062	0
2512.766	1
2516.467	-1
2520.165	4
2523.859	6
2527.551	5
2531.239	5
2534.923	5
2538.605	1
2542.283	3
2545.958	7
2549.63	4
2553.299	4
2556.964	5
2560.626	6
2564.285	1
2567.941	2
2571.594	5
2575.243	1
2578.89	3
2582.533	4
2586.173	3
2589.809	1
2593.443	4
2597.073	6
2600.701	5
2604.325	6
2607.946	4
2611.564	9
2615.178	8
2618.79	5
2622.398	6
2626.004	3
2629.606	4
2633.205	3
2636.801	5
2640.394	7
2643.983	8
2647.57	6
2651.153	8
2654.734	8
2658.311	3
2661.885	4
2665.456	3
2669.025	5
2672.589	9
2676.151	5
2679.71	10
2683.266	7
2686.819	13
2690.368	7
2693.915	4
2697.458	2
2700.999	4
2704.536	4
2708.071	12
2711.602	11
2715.13	13
2718.656	9
2722.178	9
2725.697	7
2729.214	8
2732.727	7
2736.237	10
2739.744	9
2743.249	17
2746.75	9
2750.248	5
2753.743	6
2757.236	8
2760.725	6
2764.211	6
2767.695	3
2771.175	4
2774.652	5
2778.127	3
2781.598	7
2785.067	5
2788.532	6
2791.995	8
2795.455	7
2798.911	4
2802.365	7
2805.816	6
2809.264	9
2812.709	12
2816.151	11
2819.59	11
2823.026	15
2826.46	15
2829.89	22
2833.318	20
2836.742	27
2840.164	38
2843.583	40
2846.999	46
2850.412	45
2853.822	38
2857.229	40
2860.634	39
2864.035	46
2867.434	57
2870.83	65
2874.223	78
2877.613	77
2881	80
2884.385	87
2887.766	97
2891.145	97
2894.521	90
2897.894	86
2901.264	80
2904.631	76
2907.996	73
2911.358	78
2914.717	67
2918.073	62
2921.426	62
2924.777	56
2928.124	56
2931.469	51
2934.811	52
2938.15	49
2941.487	40
2944.821	37
2948.152	34
2951.48	41
2954.805	46
2958.128	50
2961.447	45
2964.765	40
2968.079	46
2971.39	35
2974.699	32
2978.005	21
2981.308	23
2984.609	14
2987.907	18
2991.202	17
2994.494	15
2997.784	14
3001.07	13
3004.355	4
3007.636	8
3010.915	8
3014.191	10
3017.464	6
3020.734	10
3024.002	5
3027.267	11
3030.53	8
3033.789	7
3037.046	4
3040.301	7
3043.552	2
3046.801	8
3050.048	8
3053.291	8
3056.532	8
3059.771	11
3063.006	4
3066.239	5
3069.469	6
3072.697	5
3075.922	5
3079.144	10
3082.364	8
3085.581	9
3088.795	13
3092.007	8
3095.216	5
3098.423	6
3101.627	4
3104.828	9
3108.026	8
3111.222	10
3114.416	11
3117.607	12
3120.795	14
3123.98	12
3127.163	9
3130.344	6
3133.521	11
3136.696	10
3139.869	10
3143.039	13
3146.206	16
3149.371	15
3152.533	14
3155.693	13
3158.85	6
3162.005	9
3165.157	8
3168.306	8
3171.453	14
3174.597	14
3177.739	13
3180.878	15
3184.014	11
3187.149	8
3190.28	7
3193.409	9
3196.536	8
3199.659	14
3202.781	15
3205.9	17
3209.016	13
3212.13	16
3215.241	10
3218.35	13
3221.456	11
3224.56	13
3227.661	13
3230.76	13
3233.856	13
3236.95	15
3240.041	8
3243.13	7
3246.216	9
3249.3	11
3252.382	8
3255.46	11
3258.537	12
3261.611	13
3264.682	12
3267.751	11
3270.818	10
3273.882	12
3276.943	9
3280.002	5
3283.059	6
3286.113	11
3289.165	6
3292.214	9
3295.261	5
3298.306	8
3301.348	9
3304.387	10
3307.425	13
3310.459	10
3313.492	5
3316.521	8
3319.549	8
3322.574	4
3325.597	4
3328.617	4
3331.635	7
3334.65	7
3337.663	11
3340.674	14
3343.682	9
3346.688	9
3349.691	6
3352.692	6
3355.691	1
3358.687	5
3361.681	6
3364.673	9
3367.662	8
3370.649	12
3373.633	9
3376.615	7
3379.595	0
3382.572	6
3385.547	3
3388.52	4
3391.49	5
3394.458	6
3397.424	8
3400.387	9
3403.348	5
3406.307	6
3409.263	6
3412.217	6
3415.168	2
3418.118	5
3421.065	9
3424.009	8
3426.951	8
3429.891	7
3432.829	5
3435.764	5
3438.697	2
3441.628	0
3444.557	3
3447.483	3
3450.407	6
3453.328	8
3456.247	0
3459.164	1
3462.079	4
3464.991	7
3467.902	0
3470.809	4
3473.715	4
3476.618	1
3479.519	-1
3482.418	2
3485.315	-3
3488.209	1
3491.101	1
3493.99	0
3496.878	4
3499.763	5
3502.646	2
3505.527	-1
3508.405	-4
3511.281	-3
3514.155	-2
3517.027	-1
3519.897	1
3522.764	1
3525.629	1
3528.492	-1
3531.352	-2
3534.211	0
3537.067	-12
3539.921	-3
3542.773	-2
3545.622	3
3548.469	1
3551.315	2
3554.157	0
3556.998	-1
3559.837	-4
3562.673	-6
3565.507	-5
3568.339	-2
3571.169	-2
3573.996	1
3576.822	-2
3579.645	-4
3582.466	-1
3585.285	3
3588.101	-3
3590.916	0
3593.728	-5
3596.538	-5
3599.346	-6
3602.152	-2
3604.956	-5
3607.757	1
3610.556	-3
3613.354	2
3616.149	-4
3618.942	1
3621.732	-2
3624.521	-3
3627.307	-7
3630.092	-4
3632.874	-7
3635.654	0
3638.432	-3
3641.208	-3
3643.982	1
3646.753	1
3649.523	-7
3652.29	-2
3655.055	-7
3657.818	-7
3660.579	-7
3663.338	-5
3666.095	-2
3668.849	-2
3671.602	0
3674.352	2
3677.101	-3
3679.847	-6
3682.591	-5
3685.333	-7
3688.073	-4
3690.811	0
3693.547	0
3696.281	-4
3699.013	-2
3701.742	-3
3704.47	-5
3707.195	-2
3709.919	-5
3712.64	-6
3715.359	-5
3718.076	-3
3720.792	-4
3723.505	-3
3726.216	-6
3728.925	-1
3731.632	-4
3734.336	-5
3737.039	-2
3739.74	-3
3742.439	-4
3745.136	-2
3747.83	-9
3750.523	-6
3753.213	-5
3755.902	0
3758.589	-3
3761.273	0
3763.956	-4
3766.636	-5
3769.315	-5
3771.991	-9
3774.665	-3
3777.338	0
3780.008	0
3782.677	-2
3785.343	-4
3788.007	-3
3790.67	-1
3793.33	-4
3795.989	-4
3798.645	-7
3801.299	-8
3803.952	-5
3806.602	-1
3809.251	-2
3811.897	-4
3814.542	-3
3817.184	-5
3819.825	-5
3822.463	-6
3825.1	-4
3827.735	-7
3830.367	-3
3832.998	-2
3835.627	2
3838.253	-1
3840.878	-4
3843.501	-5
3846.122	-4
3848.741	-5
3851.358	-4
3853.973	-3
3856.586	-4
3859.197	-4
3861.806	-6
3864.414	-6
3867.019	-5
3869.622	-6
3872.224	-3
3874.823	-1
3877.421	0
3880.016	-3
3882.61	-2
3885.202	2
3887.792	-1
3890.38	-4
3892.966	-4
3895.55	-2
3898.132	-2
3900.713	-2
3903.291	-3
3905.868	-4
3908.442	-6
3911.015	-8
3913.586	-2
3916.155	-2
3918.722	-1
3921.287	-3
3923.85	-2
3926.411	-3
3928.971	-6
3931.528	-3
3934.084	-5
3936.638	-6
3939.19	-5
3941.74	-1
3944.288	-4
3946.834	-4
3949.378	0
3951.921	-1
3954.462	-4
3957	-9
3959.537	-4
3962.072	-5
3964.606	-3
3967.137	-4
3969.667	0
3972.194	-4
3974.72	-2
3977.244	-3
3979.766	-5
3982.286	-7
3984.805	-4
3987.321	-7
3989.836	-6
3992.349	0
3994.86	0
3997.369	-5
3999.877	-3
4002.382	-6
4004.886	-6
4007.388	-6
4009.888	-8
4012.386	-4
4014.883	-6
4017.377	-2
4019.87	-1
4022.361	0
4024.85	-6
4027.338	-6
4029.823	-4
4032.307	-5
4034.789	-6
4037.269	-3
4039.747	0
4042.224	-2
4044.699	-4
4047.172	-3
4049.643	-6
4052.112	-8
4054.58	-4
4057.046	-7
4059.51	-4
4061.972	-2
4064.432	-1
4066.891	-5
4069.348	1
4071.803	-4
4074.256	-5
4076.708	-1
4079.158	0
4081.606	-5
4084.052	-2
4086.497	-4
4088.939	-1
4091.38	-1
4093.819	-4
4096.257	-5
4098.693	-3
4101.127	-8
4103.559	-2
4105.989	3
4108.418	5
4110.845	-1
4113.27	2
4115.694	3
4118.115	2
4120.535	-6
4122.954	-4
4125.37	-4
4127.785	-4
4130.198	-7
4132.609	-3
4135.019	-7
4137.427	-5
4139.833	-5
4142.237	-6
