Data from 1_n=4_RamanShift_02.txt Node
Date: Mon Mar 19 12:26:58 IST 2018
User: aro
Spectrometer: QEPB0276
Trigger mode: 0
Integration Time (sec): 5.000000E0
Scans to average: 1
Electric dark correction enabled: true
Nonlinearity correction enabled: false
Boxcar width: 0
XAxis mode: Raman Shifts
Number of Pixels in Spectrum: 1044
>>>>>Begin Spectral Data<<<<<
160.701	0
166.742	-1
172.777	2
178.805	14
184.826	18
190.841	36
196.849	56
202.85	74
208.845	74
214.833	80
220.815	76
226.789	83
232.758	72
238.719	81
244.674	79
250.623	82
256.565	82
262.5	81
268.429	82
274.351	78
280.267	83
286.176	81
292.079	86
297.975	91
303.865	85
309.748	86
315.625	85
321.495	88
327.359	85
333.217	84
339.068	89
344.912	95
350.751	86
356.583	93
362.408	89
368.227	93
374.04	94
379.847	99
385.647	98
391.44	99
397.228	102
403.009	104
408.784	108
414.553	120
420.315	126
426.071	137
431.821	120
437.565	97
443.302	94
449.033	100
454.758	97
460.477	90
466.189	94
471.896	89
477.596	87
483.29	86
488.978	86
494.66	82
500.335	81
506.005	74
511.668	70
517.325	63
522.977	54
528.622	59
534.261	51
539.894	48
545.521	48
551.141	44
556.756	43
562.365	45
567.968	41
573.565	44
579.155	37
584.74	45
590.319	40
595.892	45
601.459	41
607.02	38
612.575	44
618.124	41
623.667	39
629.204	41
634.735	39
640.261	39
645.781	39
651.294	48
656.802	49
662.304	41
667.8	38
673.29	38
678.775	34
684.254	34
689.726	31
695.193	31
700.655	32
706.11	34
711.56	34
717.004	32
722.442	29
727.874	36
733.301	30
738.722	32
744.137	31
749.547	32
754.951	35
760.349	33
765.741	31
771.128	35
776.509	36
781.885	37
787.254	40
792.618	36
797.977	38
803.33	41
808.677	42
814.019	43
819.355	46
824.686	40
830.011	35
835.33	36
840.644	40
845.952	40
851.255	41
856.552	36
861.844	32
867.13	31
872.41	30
877.686	30
882.955	28
888.219	29
893.478	27
898.731	25
903.979	25
909.221	29
914.458	27
919.69	27
924.916	24
930.136	27
935.351	24
940.561	24
945.766	26
950.965	26
956.158	28
961.347	28
966.529	29
971.707	24
976.879	29
982.046	29
987.208	27
992.364	25
997.515	23
1002.66	28
1007.801	29
1012.936	23
1018.066	27
1023.19	28
1028.309	24
1033.423	27
1038.532	27
1043.636	32
1048.734	28
1053.827	26
1058.915	21
1063.998	22
1069.075	22
1074.147	24
1079.214	24
1084.276	24
1089.333	29
1094.385	28
1099.431	26
1104.472	21
1109.509	24
1114.54	18
1119.565	21
1124.586	27
1129.602	25
1134.613	25
1139.618	25
1144.619	30
1149.614	27
1154.604	30
1159.589	29
1164.57	31
1169.545	30
1174.515	28
1179.48	28
1184.44	26
1189.395	22
1194.345	22
1199.29	21
1204.23	20
1209.165	22
1214.095	24
1219.021	24
1223.941	27
1228.856	24
1233.766	22
1238.672	22
1243.572	21
1248.467	21
1253.358	20
1258.244	22
1263.124	22
1268	16
1272.871	22
1277.737	20
1282.599	23
1287.455	18
1292.306	18
1297.153	21
1301.995	21
1306.832	21
1311.664	20
1316.491	22
1321.314	22
1326.132	25
1330.945	28
1335.753	24
1340.556	25
1345.354	24
1350.148	25
1354.937	23
1359.722	21
1364.501	22
1369.276	20
1374.046	23
1378.811	19
1383.572	15
1388.327	14
1393.079	15
1397.825	19
1402.567	19
1407.304	18
1412.036	17
1416.764	15
1421.487	16
1426.205	13
1430.919	13
1435.628	17
1440.333	19
1445.032	27
1449.727	24
1454.418	32
1459.104	31
1463.785	29
1468.462	28
1473.134	22
1477.802	20
1482.465	16
1487.123	19
1491.777	19
1496.426	19
1501.071	17
1505.711	17
1510.347	15
1514.978	10
1519.604	15
1524.226	7
1528.844	17
1533.457	15
1538.065	20
1542.669	15
1547.269	17
1551.864	11
1556.454	17
1561.041	10
1565.622	10
1570.199	13
1574.772	11
1579.34	13
1583.904	16
1588.464	17
1593.019	15
1597.569	13
1602.115	15
1606.657	10
1611.195	14
1615.728	13
1620.256	13
1624.78	14
1629.3	14
1633.816	14
1638.327	17
1642.834	13
1647.336	15
1651.834	11
1656.328	12
1660.817	10
1665.302	14
1669.783	8
1674.259	13
1678.732	16
1683.199	14
1687.663	13
1692.122	11
1696.577	12
1701.028	15
1705.474	15
1709.917	13
1714.355	8
1718.788	12
1723.218	10
1727.643	6
1732.064	9
1736.481	14
1740.893	8
1745.301	16
1749.705	11
1754.105	12
1758.501	7
1762.893	8
1767.28	9
1771.663	10
1776.042	6
1780.417	10
1784.787	14
1789.154	9
1793.516	10
1797.874	10
1802.228	6
1806.578	4
1810.924	9
1815.266	6
1819.603	7
1823.937	14
1828.266	8
1832.591	7
1836.913	6
1841.23	7
1845.543	4
1849.852	3
1854.156	3
1858.457	11
1862.754	13
1867.047	9
1871.335	11
1875.62	7
1879.9	6
1884.177	7
1888.449	7
1892.718	9
1896.982	9
1901.243	11
1905.499	11
1909.752	8
1914	8
1918.245	3
1922.485	5
1926.722	5
1930.954	6
1935.183	7
1939.408	9
1943.628	12
1947.845	11
1952.058	10
1956.267	3
1960.472	3
1964.673	3
1968.87	4
1973.063	4
1977.252	6
1981.438	8
1985.619	11
1989.797	6
1993.971	3
1998.14	3
2002.306	3
2006.469	7
2010.627	4
2014.781	8
2018.932	6
2023.078	5
2027.221	8
2031.36	3
2035.495	6
2039.627	4
2043.754	5
2047.878	7
2051.998	6
2056.114	6
2060.226	11
2064.334	4
2068.439	3
2072.54	5
2076.637	7
2080.73	6
2084.82	7
2088.906	7
2092.988	8
2097.066	2
2101.14	7
2105.211	5
2109.278	5
2113.342	7
2117.401	7
2121.457	6
2125.509	6
2129.558	4
2133.602	6
2137.643	1
2141.681	3
2145.714	2
2149.744	5
2153.77	5
2157.793	7
2161.812	8
2165.827	6
2169.838	3
2173.846	1
2177.851	1
2181.851	1
2185.848	5
2189.841	4
2193.831	1
2197.817	6
2201.799	4
2205.778	2
2209.753	2
2213.725	0
2217.693	1
2221.657	-1
2225.618	7
2229.575	10
2233.529	5
2237.479	4
2241.425	0
2245.368	5
2249.307	0
2253.243	3
2257.175	-1
2261.104	5
2265.029	5
2268.95	4
2272.868	4
2276.783	6
2280.694	5
2284.601	2
2288.505	4
2292.405	4
2296.302	0
2300.195	8
2304.085	2
2307.971	2
2311.854	2
2315.734	1
2319.609	0
2323.482	2
2327.351	1
2331.216	2
2335.078	2
2338.937	5
2342.792	-3
2346.643	0
2350.492	5
2354.336	0
2358.178	1
2362.015	2
2365.85	0
2369.681	1
2373.508	-5
2377.333	-2
2381.153	1
2384.971	2
2388.785	4
2392.595	7
2396.402	4
2400.206	6
2404.007	0
2407.804	0
2411.597	1
2415.388	0
2419.174	3
2422.958	4
2426.738	0
2430.515	6
2434.289	1
2438.059	2
2441.825	-10
2445.589	-2
2449.349	-4
2453.106	1
2456.859	2
2460.61	4
2464.356	6
2468.1	1
2471.84	-3
2475.577	-2
2479.311	-5
2483.041	2
2486.768	-1
2490.492	1
2494.213	5
2497.93	-1
2501.644	3
2505.355	1
2509.062	-3
2512.766	1
2516.467	-4
2520.165	-2
2523.859	1
2527.551	1
2531.239	2
2534.923	2
2538.605	2
2542.283	-2
2545.958	0
2549.63	3
2553.299	0
2556.964	1
2560.626	2
2564.285	-3
2567.941	2
2571.594	-3
2575.243	-3
2578.89	-1
2582.533	-2
2586.173	2
2589.809	-2
2593.443	2
2597.073	3
2600.701	1
2604.325	1
2607.946	0
2611.564	3
2615.178	1
2618.79	1
2622.398	0
2626.004	1
2629.606	1
2633.205	-2
2636.801	-1
2640.394	-1
2643.983	1
2647.57	-1
2651.153	3
2654.734	-3
2658.311	-1
2661.885	3
2665.456	0
2669.025	0
2672.589	2
2676.151	0
2679.71	3
2683.266	0
2686.819	5
2690.368	1
2693.915	0
2697.458	-1
2700.999	3
2704.536	4
2708.071	2
2711.602	2
2715.13	5
2718.656	-1
2722.178	0
2725.697	-1
2729.214	0
2732.727	1
2736.237	5
2739.744	1
2743.249	7
2746.75	4
2750.248	-1
2753.743	1
2757.236	-2
2760.725	-4
2764.211	2
2767.695	1
2771.175	2
2774.652	1
2778.127	0
2781.598	0
2785.067	-1
2788.532	-5
2791.995	-3
2795.455	0
2798.911	1
2802.365	-2
2805.816	3
2809.264	3
2812.709	3
2816.151	-1
2819.59	-3
2823.026	-2
2826.46	2
2829.89	4
2833.318	3
2836.742	5
2840.164	9
2843.583	5
2846.999	5
2850.412	5
2853.822	3
2857.229	8
2860.634	3
2864.035	6
2867.434	11
2870.83	13
2874.223	14
2877.613	13
2881	11
2884.385	11
2887.766	13
2891.145	12
2894.521	17
2897.894	19
2901.264	14
2904.631	12
2907.996	16
2911.358	10
2914.717	7
2918.073	6
2921.426	10
2924.777	10
2928.124	8
2931.469	6
2934.811	7
2938.15	11
2941.487	6
2944.821	5
2948.152	1
2951.48	5
2954.805	7
2958.128	9
2961.447	8
2964.765	5
2968.079	13
2971.39	6
2974.699	2
2978.005	-2
2981.308	1
2984.609	1
2987.907	2
2991.202	3
2994.494	3
2997.784	3
3001.07	2
3004.355	-1
3007.636	-1
3010.915	0
3014.191	-1
3017.464	-2
3020.734	4
3024.002	2
3027.267	3
3030.53	2
3033.789	1
3037.046	-4
3040.301	-1
3043.552	-4
3046.801	-1
3050.048	-1
3053.291	-2
3056.532	-1
3059.771	5
3063.006	-1
3066.239	-1
3069.469	2
3072.697	-2
3075.922	-4
3079.144	-1
3082.364	3
3085.581	0
3088.795	4
3092.007	3
3095.216	0
3098.423	-4
3101.627	-5
3104.828	3
3108.026	-2
3111.222	0
3114.416	0
3117.607	3
3120.795	3
3123.98	5
3127.163	2
3130.344	-1
3133.521	-1
3136.696	1
3139.869	1
3143.039	3
3146.206	1
3149.371	4
3152.533	1
3155.693	5
3158.85	0
3162.005	1
3165.157	-2
3168.306	-3
3171.453	-1
3174.597	1
3177.739	0
3180.878	2
3184.014	2
3187.149	-2
3190.28	-1
3193.409	0
3196.536	-5
3199.659	2
3202.781	2
3205.9	1
3209.016	1
3212.13	1
3215.241	1
3218.35	5
3221.456	3
3224.56	0
3227.661	2
3230.76	6
3233.856	2
3236.95	4
3240.041	-2
3243.13	-2
3246.216	0
3249.3	1
3252.382	4
3255.46	4
3258.537	2
3261.611	3
3264.682	2
3267.751	-1
3270.818	-2
3273.882	1
3276.943	2
3280.002	2
3283.059	-1
3286.113	0
3289.165	-2
3292.214	-3
3295.261	-5
3298.306	-3
3301.348	-3
3304.387	-1
3307.425	-1
3310.459	5
3313.492	0
3316.521	0
3319.549	-1
3322.574	-1
3325.597	-5
3328.617	-5
3331.635	0
3334.65	-3
3337.663	1
3340.674	5
3343.682	1
3346.688	3
3349.691	-4
3352.692	2
3355.691	-5
3358.687	-7
3361.681	-2
3364.673	2
3367.662	-2
3370.649	8
3373.633	0
3376.615	2
3379.595	-3
3382.572	1
3385.547	-3
3388.52	-5
3391.49	-2
3394.458	-1
3397.424	0
3400.387	3
3403.348	-3
3406.307	-2
3409.263	2
3412.217	-3
3415.168	0
3418.118	-1
3421.065	0
3424.009	-1
3426.951	1
3429.891	-1
3432.829	-2
3435.764	0
3438.697	-2
3441.628	-2
3444.557	1
3447.483	1
3450.407	-2
3453.328	0
3456.247	-5
3459.164	0
3462.079	1
3464.991	1
3467.902	-2
3470.809	2
3473.715	0
3476.618	0
3479.519	-2
3482.418	-2
3485.315	-5
3488.209	2
3491.101	1
3493.99	-1
3496.878	0
3499.763	-4
3502.646	0
3505.527	-5
3508.405	-2
3511.281	-2
3514.155	-2
3517.027	-2
3519.897	-1
3522.764	2
3525.629	-3
3528.492	-2
3531.352	-5
3534.211	-2
3537.067	-9
3539.921	-5
3542.773	-6
3545.622	2
3548.469	-1
3551.315	2
3554.157	0
3556.998	-1
3559.837	-5
3562.673	-5
3565.507	-6
3568.339	-3
3571.169	1
3573.996	1
3576.822	0
3579.645	-3
3582.466	-2
3585.285	-3
3588.101	-6
3590.916	-3
3593.728	-4
3596.538	-1
3599.346	-1
3602.152	-2
3604.956	-3
3607.757	1
3610.556	-5
3613.354	-4
3616.149	-5
3618.942	-2
3621.732	-3
3624.521	-4
3627.307	-3
3630.092	-1
3632.874	-3
3635.654	-2
3638.432	-4
3641.208	-5
3643.982	-2
3646.753	-3
3649.523	-6
3652.29	-2
3655.055	-5
3657.818	-1
3660.579	-3
3663.338	-1
3666.095	-2
3668.849	-1
3671.602	-4
3674.352	-1
3677.101	-4
3679.847	-3
3682.591	-1
3685.333	-3
3688.073	-1
3690.811	4
3693.547	1
3696.281	-3
3699.013	-5
3701.742	-2
3704.47	-6
3707.195	-2
3709.919	-1
3712.64	0
3715.359	0
3718.076	-2
3720.792	-1
3723.505	-2
3726.216	-4
3728.925	-3
3731.632	-4
3734.336	-4
3737.039	0
3739.74	0
3742.439	-1
3745.136	-1
3747.83	-2
3750.523	-2
3753.213	-5
3755.902	2
3758.589	-4
3761.273	0
3763.956	-4
3766.636	-2
3769.315	-3
3771.991	-5
3774.665	-3
3777.338	-5
3780.008	-3
3782.677	-2
3785.343	0
3788.007	0
3790.67	0
3793.33	-4
3795.989	-4
3798.645	-6
3801.299	-6
3803.952	-5
3806.602	-2
3809.251	2
3811.897	0
3814.542	-1
3817.184	-4
3819.825	-6
3822.463	-5
3825.1	-7
3827.735	-7
3830.367	-2
3832.998	-1
3835.627	2
3838.253	2
3840.878	-4
3843.501	-3
3846.122	-4
3848.741	-4
3851.358	-3
3853.973	-2
3856.586	-2
3859.197	-2
3861.806	-3
3864.414	-4
3867.019	-5
3869.622	-4
3872.224	-3
3874.823	-2
3877.421	-3
3880.016	0
3882.61	1
3885.202	2
3887.792	1
3890.38	-2
3892.966	-6
3895.55	-3
3898.132	-1
3900.713	0
3903.291	-3
3905.868	-3
3908.442	-1
3911.015	-5
3913.586	-1
3916.155	-1
3918.722	-3
3921.287	-2
3923.85	-1
3926.411	-3
3928.971	-5
3931.528	-1
3934.084	-4
3936.638	-2
3939.19	-2
3941.74	-1
3944.288	-3
3946.834	-4
3949.378	2
3951.921	-4
3954.462	-5
3957	-2
3959.537	3
3962.072	-1
3964.606	-1
3967.137	-1
3969.667	1
3972.194	-7
3974.72	-3
3977.244	-4
3979.766	-1
3982.286	-3
3984.805	-1
3987.321	-1
3989.836	-3
3992.349	-5
3994.86	1
3997.369	-6
3999.877	-4
4002.382	-5
4004.886	-3
4007.388	0
4009.888	-6
4012.386	-2
4014.883	-4
4017.377	-3
4019.87	-6
4022.361	-2
4024.85	-3
4027.338	-4
4029.823	-3
4032.307	0
4034.789	-2
4037.269	-1
4039.747	-2
4042.224	-3
4044.699	-6
4047.172	-2
4049.643	-2
4052.112	-6
4054.58	-1
4057.046	-2
4059.51	-4
4061.972	-1
4064.432	-3
4066.891	-5
4069.348	-1
4071.803	-1
4074.256	-5
4076.708	0
4079.158	4
4081.606	-5
4084.052	1
4086.497	-4
4088.939	-1
4091.38	-4
4093.819	-2
4096.257	-3
4098.693	-4
4101.127	-6
4103.559	-3
4105.989	4
4108.418	7
4110.845	2
4113.27	4
4115.694	2
4118.115	5
4120.535	-3
4122.954	-2
4125.37	-6
4127.785	-5
4130.198	-2
4132.609	0
4135.019	-2
4137.427	-4
4139.833	-4
4142.237	-5
