##TITLE=AAI0552
##FORMAT=SPECTACLE-ASCII V-1.2
##DATA TYPE=ULTRAVIOLET SPECTRUM
##SECOND TYPE=ULTRAVIOLET SPECTRUM
##DATE=03/22/18
##TIME=13:20:52
##SPECTROMETER/DATA SYSTEM=SPECTACLE
##XUNITS=NM EM
##YUNITS=ENERGY
##YFACTOR=1
##FIRSTX=220
##LASTX=410
##NPOINTS=96
##3DDATA=Equidistant
##ZUNITS=NM EX
##FIRSTZ=210
##LASTZ=400
##ZPOINTS=39
##XYDATA=(Y..Y)
##ZVALUE=210
4.017949
3.677607
3.627539
3.576875
3.853440
3.572702
4.161596
3.836751
3.875494
3.524423
3.354549
2.860427
3.280640
3.177524
3.703833
3.261566
3.506541
3.959537
4.349947
4.656911
4.413724
4.640818
5.475879
5.249977
5.458593
5.742908
6.367564
7.301569
6.746650
6.694794
6.994605
7.551908
7.301569
7.480979
7.254481
8.295774
7.703900
8.408427
8.220673
7.842779
9.784698
8.795857
9.366870
9.043813
8.823872
10.388494
11.323690
10.282993
11.007786
10.267496
11.125803
10.466576
11.456609
10.430813
11.492968
11.646748
11.441708
11.876822
12.282729
12.106895
12.327433
12.534857
12.949705
13.519526
12.779832
14.388561
14.496446
16.141534
17.039776
21.936893
26.570559
34.206510
39.007664
44.822693
47.913790
48.310757
52.055717
48.424602
44.951439
42.475462
37.881732
33.298731
29.278994
25.213957
21.599531
19.311905
15.832782
14.163852
14.133453
14.697909
13.821721
13.647676
13.971925
14.632940
15.845895
15.118718
##ZVALUE=215
15.216470
14.495850
12.349486
10.562539
8.084774
7.883906
8.015633
7.410645
7.471442
6.893873
7.017851
6.854534
5.533695
4.301667
3.717542
3.533959
3.764629
3.559589
4.734993
4.243851
4.244447
4.646778
5.648732
5.687475
5.926490
6.616712
6.380677
6.829500
7.137656
7.078648
6.817579
7.491708
8.396506
8.401871
8.905530
9.576678
9.424686
9.656549
8.770823
8.994937
9.789467
10.217428
10.444522
11.043549
12.071729
10.764599
10.986924
11.720657
11.198521
11.589527
11.678934
12.439489
12.022853
12.338758
13.296604
12.834668
12.707710
14.387965
13.263822
13.818741
15.409589
14.518499
14.394522
13.649464
14.305711
14.488697
17.315745
18.152595
21.370649
21.378994
26.816726
32.208562
36.064982
40.639639
44.717789
47.802925
45.903921
46.431422
43.384433
41.732788
37.188530
32.486916
29.731989
26.762486
21.487474
19.465685
19.280910
15.303493
14.769435
14.149547
14.997721
14.462471
13.121963
14.606714
14.412999
15.855432
##ZVALUE=220
51.546693
51.172972
56.656599
50.116777
45.999885
34.223795
28.626919
19.558668
16.037822
15.100837
15.661716
14.759898
14.541745
14.097691
10.640621
9.964705
6.391406
5.708933
5.814433
5.084872
5.403757
5.191565
5.170703
6.022453
6.478429
6.787777
6.945729
7.014871
7.519722
8.266568
8.295774
8.211732
8.973479
9.547472
9.525418
9.524822
9.830594
9.873509
10.312796
11.164546
10.357499
11.015534
11.073947
11.733770
11.417866
11.347532
11.123419
12.101531
11.937618
13.170838
12.142658
13.235807
13.486743
13.430715
14.045835
14.292598
13.435483
14.632940
13.442636
15.539527
13.953447
15.116930
16.006827
15.916824
15.386939
16.711950
17.107725
17.128587
19.377470
24.646521
28.095841
32.789707
36.498904
41.654706
43.401718
45.109987
44.724941
45.403838
43.558478
39.902925
38.182735
32.969713
30.279756
26.634932
24.187565
20.580888
18.505454
15.246868
15.556812
14.030933
15.327930
15.472770
14.296770
15.716553
14.459491
14.814734
##ZVALUE=225
82.702637
83.729625
109.596848
131.002665
137.759447
134.297609
118.962526
92.957616
70.484877
51.664710
35.450459
29.858947
29.288530
29.236674
26.370883
27.996898
23.136735
18.011928
15.200973
10.293722
7.740855
6.479621
6.302595
7.204413
6.740689
7.184744
6.839633
8.045435
8.378625
8.212924
8.896589
8.293986
8.901954
9.880662
9.371638
9.225607
10.630488
9.905696
10.105968
10.966659
11.504889
10.904670
11.686683
10.399818
12.627840
11.839867
12.154579
12.323856
12.213588
11.343956
11.029840
12.394786
13.591647
12.678504
12.505651
13.619661
14.548898
13.863444
14.387965
13.856888
14.749765
14.739633
14.294982
13.347864
14.601946
16.577840
16.517639
16.622543
20.891428
21.144748
25.578737
29.048920
33.456683
37.077665
37.742853
38.083792
38.070679
37.085414
33.166409
31.284690
30.383468
26.733875
24.689436
21.503568
20.608902
17.201900
16.820431
15.395880
14.354587
13.510585
13.832450
15.440583
14.336705
12.162924
13.180971
13.568997
##ZVALUE=230
72.245598
78.978539
122.895837
188.515782
244.562626
290.825963
312.757492
302.939415
273.292661
224.340558
147.675872
102.050900
67.557693
53.979754
49.100518
53.535700
53.242445
51.724911
44.093728
37.347674
30.037761
19.626617
15.703440
10.293722
8.608699
6.602407
8.727908
8.530617
7.398725
9.063482
8.458495
9.699464
10.345578
9.755492
10.106564
8.924603
10.022521
11.284947
9.900928
11.362433
9.917617
12.369752
10.580420
11.038780
12.258887
11.610985
12.639761
11.778474
13.037920
13.699532
13.761520
13.421774
13.404489
13.881922
13.228655
12.803674
14.067888
13.653636
14.897585
14.512539
15.369654
16.237497
15.396476
16.837716
15.346408
15.973449
17.027855
19.389987
21.016598
23.295879
26.132464
27.835965
33.973455
36.865473
37.483573
39.325953
37.573576
35.479665
35.113692
32.167435
29.640794
28.326511
24.511814
21.733642
21.764636
18.683672
16.644597
16.697645
16.154647
14.649630
14.703870
15.341640
13.836622
16.665459
15.042424
14.781952
##ZVALUE=235
24.878979
27.333498
55.188537
128.552914
207.594633
328.969955
425.837636
526.297688
579.337478
570.957661
503.478646
409.011841
269.064903
195.277929
127.415657
90.827942
76.554418
80.794692
81.619620
81.995726
77.970624
65.272450
52.828789
37.855506
27.561784
16.629696
14.257431
9.463429
10.147691
9.966493
10.105968
9.761453
10.470748
11.177659
10.303855
11.546612
12.150407
10.772943
10.180473
11.188984
12.458563
11.953712
11.454821
12.413859
12.575984
13.649464
12.409687
13.064742
13.018847
14.362931
13.488531
14.866590
13.131499
14.522672
14.879704
15.042424
14.886856
14.750957
15.799999
16.510487
16.023517
16.925931
15.869737
17.860532
15.488863
16.938448
19.773841
18.639565
21.519661
24.552941
25.932789
31.262636
34.297705
40.209889
40.591955
41.045547
39.828420
37.729740
35.406947
34.357905
28.734803
26.389956
25.968552
23.328662
20.484924
20.216703
19.065738
18.278956
18.097758
17.195940
18.388629
16.595721
17.848611
16.204715
16.836524
15.875697
##ZVALUE=240
2.858639
2.542734
10.287762
28.276443
82.145929
156.956911
315.370560
466.162562
691.629648
821.493864
937.673450
932.152867
860.361457
663.712025
521.039963
321.970582
216.229558
138.803720
108.543634
98.957419
110.954642
119.394660
111.950636
105.451941
83.444715
70.349574
48.486590
37.030578
23.925900
16.862750
13.377666
11.520982
12.367964
11.158586
11.522770
11.090636
11.173487
11.258721
12.803674
11.692643
12.401938
11.466742
13.352633
12.217760
12.986660
11.869669
12.470484
12.770891
13.166666
14.110804
14.166832
13.606548
13.875961
13.588667
15.153885
13.913512
15.269518
15.615821
15.660524
17.330647
15.971661
16.864538
16.389489
16.063452
17.174482
18.165708
19.973516
20.106435
22.982955
24.215579
27.584434
29.990673
32.744408
38.543940
39.139986
41.004419
38.634539
38.781762
37.035942
34.571886
34.708977
27.601719
27.276874
27.670860
21.691918
20.396709
20.634532
19.372702
19.854903
18.271804
18.033981
17.411709
17.591715
18.521547
16.704798
16.859770
##ZVALUE=245
1.650453
2.155900
1.897812
2.281666
5.816817
24.611950
61.049461
159.212947
290.108919
463.768840
746.822953
937.472582
1015.861630
1015.861630
1015.861630
932.615995
698.308945
516.092777
353.035927
199.422836
132.321715
108.848810
111.717582
124.823451
128.115416
122.108459
112.600923
92.384815
75.270534
53.570867
38.652420
25.356412
18.125772
13.152957
11.254549
10.640621
10.254979
10.627508
10.953546
10.989904
11.224747
10.793805
11.000633
11.176467
11.711717
11.103749
10.715723
11.071563
11.426806
11.378527
11.320710
11.909604
13.252497
12.428761
12.728572
12.962818
13.081431
12.529492
12.719631
13.188720
13.890862
13.959408
13.653636
14.675856
15.754700
15.675426
14.570951
16.934872
19.143820
21.751523
23.463964
27.504563
28.988719
34.391880
32.933950
34.103990
32.363534
31.316876
30.238628
27.338862
25.539994
25.168657
22.662878
20.408630
19.998550
18.926859
18.570423
17.728806
17.429590
16.688704
16.390681
16.120672
16.263723
15.780926
14.953613
16.564727
##ZVALUE=250
1.448989
1.808405
1.987815
1.669526
1.800656
2.158880
4.096627
12.571812
55.194497
123.373866
297.866464
486.624837
727.080703
1004.920602
1015.759706
1015.759706
1015.759706
1015.759706
1008.651853
715.624690
484.957695
305.005908
159.204602
112.128854
104.542971
117.862821
131.626725
138.010979
131.329894
121.876001
108.531713
82.205534
60.070753
37.418604
26.733875
17.689466
12.920499
10.471940
10.112524
9.775758
10.500550
10.844469
9.691715
9.873509
9.994507
10.125637
9.938478
10.881424
10.101795
10.407567
10.307431
11.429787
10.194778
10.518432
11.186600
10.942817
10.661483
10.510683
11.593699
10.520816
11.403561
11.026859
12.415648
12.672544
12.344718
12.936592
13.441443
14.431477
16.217828
18.554926
19.055605
21.844506
23.292899
27.329922
27.704835
27.725697
26.917458
25.697947
24.624467
23.990870
21.824837
19.920468
18.599629
17.630458
16.598701
14.495850
15.979409
14.811754
15.047789
14.858842
15.225410
14.101863
14.310479
14.647841
13.803840
14.674664
##ZVALUE=255
1.393557
1.737475
1.783967
1.809597
2.109408
2.028942
2.081990
2.102852
2.904534
5.662441
33.166409
92.631578
244.707465
425.603390
728.260875
994.566679
1015.861630
1015.861630
1015.861630
1015.861630
1015.861630
978.680849
691.521764
384.511948
223.813653
121.494532
98.194480
104.700923
122.822523
136.527419
142.685771
140.179992
126.643777
103.851557
82.531571
55.555701
39.758682
24.386644
16.741753
12.202859
9.402633
10.408759
9.145737
10.129809
9.446740
9.847879
9.430647
9.306669
10.129809
9.043813
9.255409
9.784698
9.279847
9.432435
9.621978
8.723736
10.195971
9.859800
9.338856
9.481907
9.242892
10.361671
10.548830
10.533929
10.965466
11.265874
11.598468
12.812614
14.803410
15.137792
16.884804
19.005537
20.982623
22.372603
23.320913
23.097992
23.140907
21.053553
20.984411
19.209981
18.361807
16.104579
16.057491
14.710426
14.726520
12.839437
12.609959
13.155937
12.452602
13.327599
12.603998
12.733936
12.550950
12.596846
13.386607
12.197495
##ZVALUE=260
1.514554
1.389980
1.494884
1.690984
1.415610
1.810789
1.720786
1.667738
2.262592
2.443790
2.543926
5.119443
17.709732
76.727867
160.954595
372.557640
611.213446
984.582901
1015.861630
1015.861630
1015.861630
1015.861630
1015.861630
1015.861630
961.023569
564.969778
357.471704
174.858570
112.744570
90.631843
102.903843
125.763416
143.395662
146.565437
145.508647
131.173730
112.395883
82.160830
62.437654
40.581822
26.925802
16.704798
11.786819
9.972453
9.870529
9.309649
8.942485
8.669496
8.943677
8.780956
9.498000
9.381771
9.326935
9.931922
9.272695
8.921623
8.785725
9.154677
9.209514
8.827448
9.316802
8.787513
9.241700
9.086728
10.072589
9.515882
9.664893
10.515451
11.282563
13.051629
14.541745
16.034842
18.173456
18.940568
19.059777
19.810796
19.480586
18.893480
17.171502
15.595555
14.787912
14.681816
13.977885
12.522936
11.880994
12.368560
11.561513
11.774898
11.875629
11.969805
11.239648
11.415482
10.805726
10.473728
11.538863
11.892915
##ZVALUE=265
1.298785
1.379848
1.562834
1.550913
1.421571
1.479983
1.324415
1.875758
1.904964
2.093911
1.993775
2.309680
2.617836
3.088713
8.275509
30.747652
118.144751
250.151753
542.973876
863.668919
1015.865803
1015.865803
1015.865803
1015.865803
1015.865803
1015.865803
1015.865803
793.023705
510.345697
255.544782
143.443942
82.919002
84.642768
108.676553
129.432678
147.113800
152.358413
144.909620
130.469799
106.216669
84.547997
57.678819
41.318536
23.733974
16.065836
10.414720
9.028912
8.244514
8.202791
7.701516
8.007884
8.672476
7.987618
8.407831
7.595420
8.237958
7.875562
7.992983
8.157492
8.066893
8.101463
7.834435
7.570982
8.512735
8.295774
8.484721
8.271933
10.048747
10.198951
11.465549
13.043880
13.536811
15.839934
16.318560
16.815662
16.404986
15.854836
15.765429
14.361739
13.031960
12.616515
12.272000
11.677742
11.417866
10.430813
10.551810
9.477735
9.561777
10.114908
10.450482
10.229945
10.269880
10.002851
9.561777
10.042787
9.672642
##ZVALUE=270
1.531839
1.277924
1.371503
1.246929
1.553893
1.535416
1.334548
1.526475
1.780987
1.837611
1.778603
1.978874
2.437830
2.256632
2.087951
2.901554
4.205704
19.750595
63.524842
209.769607
421.388745
740.646720
1015.859842
1015.859842
1015.859842
1015.859842
1015.859842
1015.859842
1015.859842
1015.859842
797.196031
408.833623
224.126577
95.417500
70.434809
83.917975
105.008483
131.646991
147.228837
155.070424
150.107741
130.694509
113.409758
83.002448
62.317848
37.534833
25.128722
16.193986
12.117624
9.178519
8.289814
7.912517
8.542538
8.248687
8.056760
8.077621
7.902980
8.047819
7.506609
8.178949
8.169413
7.843971
7.637739
7.890463
8.162856
8.513927
8.457899
8.676648
10.227561
10.874867
12.097955
13.462901
14.397502
14.716983
14.850497
15.592575
14.484525
13.994575
13.201833
11.389852
11.731982
11.433959
10.091662
9.714961
9.733438
9.310842
9.272695
9.081960
9.089708
9.740591
9.308457
9.369850
9.331703
9.161830
9.090900
8.701682
##ZVALUE=275
1.178980
1.069903
1.018643
1.193881
1.202822
1.131892
1.296997
1.319647
1.559854
1.496673
1.598597
1.496673
1.726747
1.818538
1.957417
2.126694
2.212524
2.708435
3.034472
8.500814
36.618710
112.285614
337.022543
631.698966
1015.754938
1015.754938
1015.754938
1015.754938
1015.754938
1015.754938
1015.754938
1015.754938
992.171764
540.130734
297.526717
120.625496
68.894625
60.901642
78.210831
104.831457
126.423836
145.872831
149.803758
146.565437
130.398870
102.021694
83.178878
58.734417
41.560531
23.546815
16.879439
11.107922
8.581877
7.424951
7.577538
7.393956
7.575750
7.681847
7.583499
7.731915
7.191896
7.075667
6.996989
7.550716
7.464886
7.366538
7.789731
8.220673
9.190440
10.046959
10.632873
12.292862
12.885928
13.790727
13.727546
13.943911
13.583899
12.891889
12.114644
11.059642
10.431409
9.800792
9.392500
8.948445
9.288788
8.244514
8.341670
8.455515
8.394718
7.691979
7.655621
8.081794
8.199811
8.156896
7.847548
7.858872
##ZVALUE=280
1.261830
1.177788
1.181960
1.180768
1.347661
1.282692
1.269579
1.197457
1.310706
1.456738
1.633763
1.775622
1.916885
1.862645
1.986623
1.890659
2.380610
2.320409
2.452731
2.522469
3.222823
4.737973
18.485785
103.065968
255.559683
608.592629
959.762931
1015.861630
1015.861630
1015.861630
1015.861630
1015.861630
1015.861630
1015.861630
1015.861630
732.186437
426.004529
173.050761
82.959533
47.925711
54.768920
80.531836
102.687478
127.066970
140.087605
148.907900
142.796636
125.448704
107.333660
80.339909
60.305595
38.107634
25.798678
16.420484
11.606812
8.080602
7.620454
7.321835
7.101893
7.119775
7.355809
7.170439
7.093549
7.615685
7.469654
7.770658
7.571578
8.249879
8.580685
8.967519
10.555983
11.447668
12.072921
12.654662
12.932420
12.709498
12.345910
11.660457
10.907650
10.544658
9.786487
9.697676
9.088516
8.330941
8.502603
7.787943
7.934570
7.933974
8.123517
7.571578
7.839799
7.445812
7.243752
7.805824
7.970929
7.667542
##ZVALUE=285
1.194477
1.022816
1.202822
1.185536
1.102686
1.334548
1.159906
1.176596
1.168847
1.262426
1.279712
1.372695
1.542568
1.508594
1.630783
1.652837
1.444817
1.827478
1.987815
2.197623
2.266765
2.578497
2.986789
3.324747
10.619760
39.688945
146.131516
307.413936
681.096911
1015.834808
1015.834808
1015.834808
1015.834808
1015.834808
1015.834808
1015.834808
1015.834808
969.988704
618.986487
285.872817
141.340494
52.424669
39.157867
54.357648
73.514581
101.243854
119.486451
136.101842
143.840909
140.319467
129.851699
105.778575
85.468888
58.932900
42.653680
24.707913
16.669631
10.767579
8.867979
7.560849
7.059574
7.333755
6.919503
6.994605
7.039905
7.559657
7.730722
8.024573
8.595586
9.930730
9.417534
10.549426
11.546612
11.673570
11.229515
11.459589
11.123419
10.773540
10.718703
9.140968
9.617805
8.737445
8.682609
8.535981
7.600784
7.523894
7.591844
7.492900
7.680655
6.914735
7.344484
7.107854
7.557869
7.370710
7.626414
7.552505
##ZVALUE=290
0.885725
0.962615
1.081824
1.143813
1.198649
1.064539
1.134872
1.189709
1.399517
1.376867
1.098514
1.188517
1.153946
1.190901
1.233816
1.503825
1.377463
1.551509
1.534820
1.685619
2.267957
2.103448
2.726912
2.765656
2.940893
3.385544
4.383922
21.114945
67.406893
216.722488
432.189703
919.700861
1015.861630
1015.861630
1015.861630
1015.861630
1015.861630
1015.861630
1015.861630
1015.861630
861.581564
427.185893
221.572518
76.351762
36.603808
36.714673
49.685836
71.341991
90.699792
117.251873
130.534768
138.278604
138.423443
123.638511
105.520487
78.469515
60.201883
39.063692
26.092529
15.466809
11.186600
8.222461
7.441640
6.911755
7.360578
7.294416
6.897449
7.811785
8.023977
8.792877
9.079576
10.146499
10.449886
10.574460
10.486841
10.275841
10.025501
9.378791
9.113550
8.450747
8.624792
8.648634
7.706881
7.778406
7.795691
7.531643
7.342696
7.226467
6.977916
7.265806
6.634593
7.200837
7.028580
7.008910
7.192492
7.015467
##ZVALUE=295
1.133680
1.096725
1.126528
1.133680
1.127720
1.176596
1.334548
1.207590
1.245737
1.340508
1.513958
1.344681
1.455545
1.483560
1.481771
1.505613
1.315475
1.495481
1.704693
1.803637
1.968741
2.070665
2.265573
2.054572
2.735853
2.857447
3.163815
3.239512
3.973842
7.578731
31.393766
139.157772
311.823487
720.916986
1016.045809
1016.045809
1016.045809
1016.045809
1016.045809
1016.045809
1016.045809
1016.045809
1016.045809
650.585890
350.666046
122.620463
52.476525
26.996732
30.553937
47.623515
63.480735
90.643764
106.790662
126.291513
133.672953
130.257607
119.758844
98.853707
80.452561
55.916905
40.917993
25.254488
17.250776
11.325479
8.867979
7.829666
7.486939
7.536411
7.908940
8.522868
8.950830
10.129809
10.274649
10.617971
10.475516
10.236502
9.636879
9.564757
8.950830
8.152723
7.816553
7.730722
7.729530
7.764697
7.176995
7.247925
7.430911
7.538795
7.528663
7.113814
6.949902
6.919503
7.087588
6.886721
6.986856
6.875992
##ZVALUE=300
0.943542
0.864863
0.908971
0.828505
0.663996
0.890493
0.923872
1.068711
1.143813
1.113415
1.132488
1.249909
1.217723
1.070499
1.229644
1.322627
1.259446
1.253486
1.388788
1.341701
1.486540
1.630783
1.442432
1.608729
1.813769
1.932979
2.084970
2.427697
2.851486
2.949834
3.478527
3.959537
18.311739
66.711903
228.881836
455.538630
939.356685
1015.861630
1015.861630
1015.861630
1015.861630
1015.861630
1015.861630
1015.861630
1015.861630
902.890563
452.481508
239.065886
81.438422
32.106638
21.105409
28.289557
42.722821
58.117509
80.929995
100.389719
117.798448
126.084685
124.112964
115.575790
97.081661
79.111457
56.234598
41.115880
25.677681
17.903447
10.929704
9.071827
8.559823
8.182526
8.514524
9.105802
9.164810
9.799600
9.305477
9.446740
8.877516
9.137988
8.101463
7.921457
7.719994
7.606745
7.481575
6.799698
6.667972
7.138848
7.000566
6.746650
6.719828
6.677508
6.371737
6.324649
6.513596
6.368756
6.174445
6.695986
##ZVALUE=305
0.937581
0.868440
0.921488
0.930429
1.091957
0.892878
0.897646
1.040697
0.918508
1.134872
1.152754
1.168847
1.184940
1.053810
1.136661
1.101494
1.278520
1.407862
1.244545
1.318455
1.355410
1.578927
1.476407
1.545548
1.880527
1.886487
1.980662
2.063513
2.093911
2.415776
3.025532
3.012419
3.325939
3.847480
7.094741
45.958757
128.905773
374.677777
681.620836
1015.872955
1015.872955
1015.872955
1015.872955
1015.872955
1015.872955
1015.872955
1015.872955
1015.872955
737.751722
341.586471
161.076784
46.842694
20.244718
20.252466
26.994944
40.924549
57.548881
79.434514
95.517635
111.393929
118.630528
118.367672
110.589862
93.866587
75.681806
54.019690
39.321780
25.054812
17.364621
11.950731
10.188818
9.600520
9.844899
9.888411
9.646416
9.094477
8.644462
8.424520
8.210540
7.807612
7.703900
7.410645
7.059574
7.082820
7.102489
7.058978
7.064939
6.418824
6.629825
6.712675
6.523728
6.909966
6.289482
6.574988
6.216764
6.116629
##ZVALUE=310
0.846982
0.867844
0.770688
0.839829
0.840425
0.723600
0.968575
0.759959
0.952482
0.914931
1.025796
1.100898
0.997782
0.981688
0.945926
1.132488
1.235604
1.023412
1.165867
1.190901
1.282692
1.228452
1.319647
1.367927
1.491904
1.685619
1.696944
1.750588
1.788735
2.213717
2.209544
2.296567
2.484918
2.910495
3.167987
3.638864
4.241467
20.185709
70.600510
240.882635
477.653742
962.649584
1015.856862
1015.856862
1015.856862
1015.856862
1015.856862
1015.856862
1015.856862
1015.856862
983.935595
511.209965
269.910693
90.174675
32.100677
14.622808
17.022491
24.573803
34.965873
52.234530
67.183971
88.572502
102.288723
112.218857
111.995935
105.008483
92.009902
73.022842
56.039691
38.037896
27.592778
18.354654
14.063716
10.760427
9.749532
9.158850
8.511543
7.774830
7.536411
7.364750
7.015467
6.862879
7.042885
6.795526
7.018447
6.803870
6.961823
6.332994
6.707907
6.523728
6.164908
6.173849
6.162524
6.143451
5.968809
5.875826
##ZVALUE=315
0.822544
0.640750
0.724792
0.694990
0.982881
0.658631
0.896454
0.888705
0.923872
1.104474
1.162887
0.940561
0.940561
0.923872
1.085997
1.098514
1.180768
1.108646
1.258850
1.210570
1.047850
1.205802
1.301765
1.242757
1.362562
1.335740
1.367927
1.486540
1.785755
1.692772
1.555681
1.869798
2.164841
2.508759
2.269745
2.779961
3.281832
3.445745
3.853440
9.336472
38.826466
163.426995
358.842611
813.132524
1015.861630
1015.861630
1015.861630
1015.861630
1015.861630
1015.861630
1015.861630
1015.861630
1015.861630
709.589720
386.087894
139.316916
52.245855
16.446710
13.461709
16.931891
21.398664
32.881498
45.750737
64.331889
79.495907
96.657872
105.222464
105.931759
101.563931
85.123777
72.542429
53.180456
39.195418
25.732517
18.344522
12.477636
10.246634
8.378625
7.630587
7.476807
7.195473
7.127523
6.736517
6.562471
6.658435
6.538630
6.736517
6.433725
6.484985
6.359816
6.361604
6.275773
6.486773
6.264448
5.816817
6.086826
##ZVALUE=320
0.900626
0.792742
0.868440
0.865459
0.729561
0.777841
0.881553
0.879765
0.904799
0.930429
1.018643
0.841618
0.795722
1.071692
1.048446
0.957847
0.900626
0.971556
0.947714
1.281500
1.070499
1.125932
1.278520
1.148582
1.257658
1.440644
1.300573
1.303554
1.565814
1.695752
1.673698
1.831651
1.631975
1.868606
2.116561
2.258420
2.283454
2.388954
2.719760
3.017783
3.532767
5.141497
17.073750
98.375678
251.845717
636.617541
998.773575
1015.844941
1015.844941
1015.844941
1015.844941
1015.844941
1015.844941
1015.844941
1015.844941
945.260525
549.160838
221.476555
91.233850
23.486614
12.636781
12.608767
14.899969
20.434856
28.356910
43.596625
58.106780
77.262521
89.402795
100.834966
101.877451
95.926523
86.820722
66.967607
52.204728
34.757853
25.107861
16.282797
12.286901
8.609891
7.811785
6.922483
6.858706
6.728768
6.668568
6.382465
6.371737
6.513596
6.021857
6.392598
5.996823
5.928874
6.157756
5.830526
6.307960
5.997419
##ZVALUE=325
0.720620
0.887513
0.768900
0.967979
0.936985
0.829697
0.797510
0.826716
0.817776
0.752807
0.799894
1.061559
0.945926
0.956655
0.855923
0.898838
0.915527
0.993609
0.949502
0.911951
0.955462
1.335740
1.230836
1.217723
1.199841
1.217723
1.479983
1.150966
1.257658
1.434684
1.440644
1.421571
1.573563
1.618862
1.649857
2.008677
1.965761
2.194643
2.411604
2.540946
2.806783
3.215671
3.481507
3.971457
8.981824
63.508749
177.790523
480.476022
838.558674
1015.861630
1015.861630
1015.861630
1015.861630
1015.861630
1015.861630
1015.861630
1015.861630
1015.861630
724.753737
319.804549
141.781569
35.421848
14.575720
11.267662
11.389852
13.892651
18.246770
29.183626
40.037632
57.708621
72.591901
87.129474
94.928741
95.818639
90.221763
76.484680
63.068867
45.617819
34.128428
21.502972
15.596747
10.748506
8.571744
7.062554
6.957650
6.630421
6.571412
6.416440
6.059408
6.317496
6.027818
6.162524
6.078482
5.906820
5.945563
5.921721
##ZVALUE=330
0.708699
0.690818
0.807643
0.908971
0.829697
0.807643
0.809431
0.898838
0.789762
0.741482
0.828505
0.799894
0.902414
0.838637
0.707507
0.979900
0.958443
0.930429
0.929832
1.009703
1.031756
1.065731
1.228452
1.144409
1.088977
1.032948
0.982881
1.112819
1.318455
1.190901
1.238585
1.303554
1.403689
1.436472
1.580715
1.598597
1.726747
1.841784
1.990795
2.151728
2.231598
2.374649
2.608895
2.881885
3.264546
3.927946
5.378723
30.634403
102.605820
335.053802
628.116727
1015.861630
1015.861630
1015.861630
1015.861630
1015.861630
1015.861630
1015.861630
1015.861630
1015.861630
908.019543
422.680974
210.258961
65.247416
22.040606
10.792613
10.716915
11.256933
13.336539
20.091534
27.028918
40.125847
52.944422
71.166754
82.158446
88.979602
89.916587
82.985759
73.099732
56.363940
43.800473
29.580593
21.978617
14.795661
11.077523
8.076429
7.264614
6.599426
6.597638
6.021857
5.890727
5.806684
5.859733
5.767941
5.883574
5.621910
##ZVALUE=335
0.611544
0.707507
0.750422
0.815988
0.858903
0.741482
0.775456
0.807643
0.763535
0.723600
0.844598
0.877976
0.750422
0.640750
0.830889
0.794530
0.858903
0.911951
1.030564
0.882745
0.940561
1.101494
0.995994
1.094937
1.082420
1.136661
1.067519
1.252890
1.134872
1.189709
1.216531
1.224875
1.317859
1.326799
1.313686
1.442432
1.560450
1.733899
1.774430
1.905560
2.104640
2.149940
2.266765
2.541542
2.804995
3.108978
3.326535
3.712773
4.293919
14.068484
58.428645
236.938596
485.794544
983.006954
1015.861630
1015.861630
1015.861630
1015.861630
1015.861630
1015.861630
1015.861630
1015.861630
1015.861630
638.725758
336.144567
110.165477
38.582683
12.802482
10.876656
10.822415
11.171699
13.895631
17.886758
27.283430
36.828518
51.541924
63.393712
76.281428
81.996918
82.979798
78.428984
66.570640
55.763721
42.819977
32.077432
21.238923
15.356541
10.598898
8.489490
6.994605
6.348491
5.933642
5.841851
5.649924
5.819798
5.616546
##ZVALUE=340
0.744462
0.701547
0.975728
0.739694
0.750422
0.679493
0.727773
0.697970
0.684857
0.768900
0.875592
0.828505
0.687838
0.756979
0.749826
0.852942
0.790954
1.075864
1.009703
0.857711
0.853539
0.905991
0.966787
1.039505
0.942945
1.103878
0.963807
0.987649
1.059771
1.080632
1.164675
1.173615
1.255870
1.368523
1.566410
1.493692
1.396537
1.449585
1.463890
1.506805
1.770854
1.854897
2.114773
1.991987
2.188683
2.436638
2.444983
2.908707
3.092885
3.456473
3.965497
6.876588
27.925968
153.964758
370.925665
882.121921
1015.861630
1015.861630
1015.861630
1015.861630
1015.861630
1015.861630
1015.861630
1015.861630
1015.861630
836.738944
483.316779
196.905732
73.398948
16.562939
11.438727
11.048913
10.694861
11.489987
13.306737
18.474460
24.083853
35.642982
46.937466
61.199665
70.685744
76.683760
77.758431
72.441697
65.657496
51.937699
41.989684
29.059649
21.631718
14.766455
10.748506
7.946491
6.696582
5.991459
5.784631
5.390644
##ZVALUE=345
0.853539
0.626445
0.701547
0.753999
0.628829
0.738502
0.806451
0.742674
0.740886
0.675917
0.687838
0.534654
0.871420
0.861883
0.850558
0.846982
0.811815
0.876784
0.794530
0.784993
0.929832
0.829697
0.938773
0.983477
1.031756
0.776649
1.082420
1.027584
1.060963
1.126528
1.181960
1.223683
1.163483
1.161695
1.296997
1.168847
1.274943
1.512766
1.352429
1.433492
1.530647
1.581907
1.705885
1.737475
1.881719
2.131462
2.320409
2.385974
2.478957
2.725720
2.912879
3.212690
3.847480
4.473925
10.677576
83.328485
244.452953
642.164946
1015.861630
1015.861630
1015.861630
1015.861630
1015.861630
1015.861630
1015.861630
1015.861630
1015.861630
1004.941463
619.898438
246.410966
107.842684
29.096603
13.296604
11.251569
10.636449
10.033846
10.112524
11.661649
14.854670
22.675991
30.944943
44.288635
53.636432
64.077973
69.174767
71.589947
69.141984
61.392784
53.208470
40.259957
30.723810
20.762682
15.101433
10.185838
8.073449
6.671548
##ZVALUE=350
0.836849
0.761747
0.785589
0.835657
0.719428
0.858903
0.753999
0.943542
0.879765
0.911951
0.703931
0.847578
0.799894
0.792742
0.870824
0.918508
0.809431
1.009703
0.908971
0.786781
0.835657
0.990629
0.945926
1.045465
0.885725
0.907779
0.968575
0.929832
1.077652
1.131892
1.272559
1.197457
1.294613
1.269579
1.288652
1.177788
1.319647
1.319647
1.203418
1.378655
1.198649
1.465678
1.480579
1.774430
1.690984
1.829863
2.023578
1.786947
2.224445
2.288818
2.500415
2.776980
2.898574
3.175735
3.626943
4.308820
6.212592
39.334893
133.984685
425.669551
799.264908
1015.865803
1015.865803
1015.865803
1015.865803
1015.865803
1015.865803
1015.865803
1015.865803
1015.865803
834.537745
379.148722
169.310570
41.544437
15.464425
10.969639
10.029674
9.159446
8.718967
9.215474
10.855794
15.089512
19.777417
28.152466
36.507845
47.863722
56.185722
64.179897
65.596700
63.736439
58.471560
47.648549
39.238930
28.377771
20.822883
14.681816
##ZVALUE=355
0.644922
0.636578
0.712872
0.737906
0.641942
0.523925
0.627637
0.775456
0.689626
0.720620
0.763535
0.903606
0.880957
0.777841
0.835657
0.732541
0.818968
0.756979
0.692606
0.745654
0.794530
0.915527
0.977516
1.013875
0.960827
0.856519
0.895858
1.032948
0.917912
1.060963
1.204610
1.051426
1.004934
1.147985
1.105666
1.324415
1.189709
1.246929
1.324415
1.248717
1.313686
1.369715
1.312494
1.566410
1.561642
1.674891
1.789927
1.855493
1.825690
1.987815
2.121925
2.155900
2.474785
2.705455
2.849698
3.099442
3.437996
4.235506
4.833937
16.205907
66.926479
278.019905
569.995642
1015.730500
1015.730500
1015.730500
1015.730500
1015.730500
1015.730500
1015.730500
1015.730500
1015.730500
985.954404
454.795957
209.545493
56.062937
19.507408
10.455847
9.542704
8.733869
8.464456
8.171797
8.539557
9.827614
12.190938
17.371774
23.585558
33.283830
41.808486
50.687790
57.010651
60.643554
59.004426
53.430796
46.715736
36.581755
##ZVALUE=360
0.813603
0.835657
0.897646
0.863671
0.970960
0.724792
0.958443
0.696778
0.843406
0.965595
0.870824
0.845790
0.924468
0.811815
1.059771
0.925660
1.130700
0.926852
0.963807
0.907779
1.017451
1.002550
1.063943
0.896454
1.151562
1.241565
1.267791
1.058578
1.076460
1.147985
1.203418
1.182556
1.273751
1.253486
1.271963
1.480579
1.467466
1.336932
1.358986
1.399517
1.546741
1.714826
1.654625
1.462698
1.537800
1.744628
1.745820
1.760721
1.783967
1.940727
2.214909
2.434850
2.364516
2.457500
2.675653
3.051758
2.984405
3.455877
3.583431
4.221797
4.674792
8.247495
28.442740
144.149661
349.112749
834.316611
1015.861630
1015.861630
1015.861630
1015.861630
1015.861630
1015.861630
1015.861630
1015.861630
1015.861630
618.197918
318.765640
107.570887
36.977530
11.529922
9.787679
8.786917
8.380413
7.701516
7.424951
7.675886
8.507967
10.749698
14.092922
20.586848
27.186871
36.971569
43.553710
50.145984
53.909421
54.599643
##ZVALUE=365
0.889897
0.715852
0.688434
0.679493
0.722408
0.805855
0.838637
0.872612
0.862479
0.867844
0.849962
0.800490
0.776649
0.859499
0.905991
0.944734
0.921488
0.955462
0.926852
1.076460
0.981688
0.831485
1.061559
1.001954
1.096725
0.995994
1.054406
1.136661
1.019835
1.096725
1.123548
1.129508
1.244545
1.224875
1.237988
1.211762
1.313686
1.358986
1.337528
1.412630
1.328588
1.368523
1.326799
1.452565
1.436472
1.551509
1.634955
1.645684
1.895428
1.705885
1.848936
2.112985
1.991987
2.298951
2.361536
2.354980
2.476573
2.706647
2.938509
3.371835
3.688931
4.138947
4.559755
5.514622
11.881590
77.976584
226.144791
603.729486
1012.837887
1015.833020
1015.833020
1015.833020
1015.833020
1015.833020
1015.833020
1015.833020
1015.832424
854.082704
451.550484
153.980851
54.242611
13.631582
9.565949
8.401871
7.815957
7.551908
6.694794
6.606579
6.652474
7.093549
8.451939
12.106895
16.210675
23.765564
30.590892
38.886666
##ZVALUE=370
0.928640
0.762939
0.652671
0.947714
0.925660
0.839829
0.763535
0.859499
0.872612
0.755787
1.007915
0.719428
0.905991
0.826716
0.905991
0.835657
0.909567
0.886917
0.928640
1.046658
0.880957
0.833869
0.901818
0.867844
0.875592
1.030564
0.865459
0.882745
0.962615
1.034737
1.060963
1.145601
1.012683
0.983477
0.977516
1.208782
1.102686
1.181960
1.231432
1.154542
1.067519
1.163483
1.387596
1.443624
1.458526
1.416802
1.478791
1.423955
1.508594
1.596808
1.571774
1.603961
1.730919
1.739860
1.811981
2.059937
2.124906
2.107620
2.285838
2.545714
2.849698
3.030896
3.222823
3.730655
3.989935
4.697442
6.918907
39.375424
139.443874
462.669730
860.804915
1015.859842
1015.859842
1015.859842
1015.859842
1015.859842
1015.859842
1015.859842
1015.859842
986.333489
591.190457
227.367878
94.427466
23.031831
9.975433
7.884502
7.519722
6.973743
6.559491
5.929470
5.698800
5.693436
6.219745
7.568598
9.761453
14.504790
##ZVALUE=375
0.712872
0.751615
0.669956
0.745654
0.769496
0.673532
0.868440
0.741482
0.781417
0.727773
0.731945
0.798702
0.803471
0.795722
0.615716
0.839829
0.763535
0.691414
0.847578
0.738502
0.895858
0.941753
1.017451
0.931621
0.789762
0.887513
0.871420
0.929832
0.830889
1.184940
0.909567
0.925660
0.854731
0.993609
1.161695
1.067519
1.223683
1.028776
1.241565
1.197457
1.120567
1.206994
0.955462
1.271963
1.271963
1.271963
1.037717
1.120567
1.271963
1.295805
1.378655
1.387596
1.577735
1.483560
1.608729
1.646876
1.842976
1.852512
1.903772
2.059937
2.310872
2.355576
2.598763
2.682805
2.991557
3.269911
3.660917
4.325509
5.789995
15.760660
99.030733
262.326002
687.850714
1015.861630
1015.861630
1015.861630
1015.861630
1015.861630
1015.861630
1015.861630
1015.861630
1015.861630
810.698867
449.927449
166.503787
62.771440
14.334917
8.297563
7.175803
6.787777
5.962849
5.960464
5.361438
5.121827
5.292892
5.344748
##ZVALUE=380
0.737906
0.565648
0.510812
0.746846
0.771880
0.887513
0.706911
0.684857
0.661612
0.800490
0.690818
0.643730
0.723600
0.699759
0.640750
0.873804
0.784993
0.772476
0.867844
0.823736
0.792742
0.813603
0.726581
0.880957
0.725985
0.739694
1.009703
0.855923
0.937581
0.984669
0.944734
0.916719
0.931621
0.865459
0.979900
1.019835
1.013875
1.119971
0.992417
0.949502
1.236796
1.103878
1.002550
1.080632
1.169443
1.031756
1.305938
1.014471
1.159906
1.362562
1.493692
1.467466
1.219511
1.301765
1.395941
1.587868
1.654625
1.763701
1.690984
1.833439
1.980662
1.943707
2.241731
2.248883
2.387762
2.501607
2.830625
3.413558
3.905892
4.546642
5.245805
9.297729
38.841963
201.268792
472.074747
1010.569930
1015.895605
1015.895605
1015.895605
1015.895605
1015.895605
1015.895605
1015.895605
1015.895605
1015.895605
548.375845
276.312828
89.832544
31.277537
9.463429
7.084608
6.597638
5.973577
5.818605
5.481839
5.099773
##ZVALUE=385
0.712872
0.651479
0.717640
0.527501
0.608563
0.717640
0.747442
0.523925
0.688434
0.883937
0.503659
0.597835
0.700951
0.603795
0.725985
0.684857
0.720620
0.685453
0.667572
0.808835
0.690818
0.841618
0.740886
0.702739
0.694990
0.740886
0.834465
0.753999
0.675917
0.832677
0.823736
0.758767
0.853539
0.753999
0.876784
0.907779
1.068711
1.085997
1.075864
1.032948
0.986457
0.984669
0.969768
0.898838
0.991821
1.060963
0.998974
1.174808
1.166463
1.164675
1.265407
1.164675
1.174808
1.193881
1.252890
1.438856
1.464486
1.422763
1.684427
1.667738
1.592636
1.679659
1.703501
2.009869
1.827478
2.324581
2.452731
2.761483
3.103614
3.634691
3.974438
4.416704
4.739761
5.975962
17.379522
109.091997
296.869874
776.709914
1015.861630
1015.861630
1015.861630
1015.861630
1015.861630
1015.861630
1015.861630
1015.861630
1015.861630
892.241597
485.794544
172.531605
63.039660
13.140440
7.587671
6.502867
5.971789
5.636811
##ZVALUE=390
0.612736
0.610948
0.582933
0.628829
0.745654
0.620484
0.748634
0.674725
0.583529
0.579953
0.587702
0.644922
0.670552
0.618696
0.640750
0.588894
0.664592
0.906587
0.746846
0.689626
0.610948
0.780821
0.678897
0.669956
0.674725
0.867844
0.746846
0.747442
0.751615
0.786781
0.832677
0.746846
0.763535
0.899434
0.902414
0.970960
0.801682
0.773668
0.910759
0.805855
0.828505
0.940561
0.908971
0.912547
0.963807
1.013875
1.041889
1.037717
1.070499
1.131892
1.142621
1.182556
1.227856
1.265407
1.323819
1.336932
1.295805
1.398921
1.286864
1.688600
1.663566
1.647472
1.735687
1.787543
1.800656
2.085567
2.218485
2.430677
2.836585
3.296733
3.448725
4.027486
3.869534
4.026890
4.537702
4.940629
8.351803
52.741766
178.220868
574.514866
1004.289985
1015.861630
1015.861630
1015.861630
1015.861630
1015.861630
1015.861630
1015.861630
1015.861630
1015.861630
705.905557
275.271535
116.471648
25.825500
9.425879
6.563663
##ZVALUE=395
0.565648
0.595450
0.690818
0.591874
0.614524
0.617504
0.711679
0.588894
0.572801
0.666976
0.711679
0.541806
0.713468
0.561476
0.684857
0.735521
0.675917
0.832677
0.562668
0.738502
0.689626
0.655651
0.825524
0.699759
0.812411
0.758767
0.726581
0.702739
0.623465
0.788569
0.770688
0.842810
0.659823
0.864863
0.974536
0.952482
0.943542
0.916719
0.881553
0.933409
0.923872
0.914931
0.936985
0.957847
1.075864
0.926852
1.010895
1.009703
1.174808
0.985861
1.101494
1.125932
1.131892
1.204610
1.334548
1.254678
1.229644
1.321435
1.333952
1.420975
1.593828
1.428723
1.637936
1.541972
1.610518
1.786947
1.987815
2.518892
2.658963
3.032684
3.311634
3.241897
3.331900
3.419518
3.334880
3.808737
4.081726
4.583597
5.697608
29.424429
114.284754
410.862565
814.246535
1015.861630
1015.861630
1015.861630
1015.861630
1015.861630
1015.861630
1015.861630
1015.861630
1015.861630
920.422673
416.853428
190.750957
55.665970
##ZVALUE=400
0.565648
0.533462
0.695586
0.610948
0.664592
0.715852
0.705719
0.678897
0.624657
0.684857
0.627637
0.706911
0.681877
0.745654
0.670552
0.636578
0.731945
0.544786
0.635982
0.682473
0.744462
0.720620
0.694990
0.871420
0.821948
0.740886
0.855923
0.770688
0.834465
0.730753
0.859499
0.831485
0.858903
0.909567
0.745654
0.838637
0.771880
0.842810
0.971556
1.085997
0.921488
0.894666
0.893474
1.018643
1.042485
0.951886
0.778437
1.029968
0.910759
1.170635
1.047850
1.071692
1.102686
1.024604
1.065731
1.086593
1.122952
1.258850
1.287460
1.464486
1.349449
1.332760
1.442432
1.581907
1.656413
1.805425
1.793504
2.278686
2.340674
2.722740
2.906919
3.074408
3.066659
2.932549
2.899766
3.185868
3.126860
3.390908
3.666878
4.153848
4.938841
15.206933
61.448812
236.221552
518.345833
1015.861630
1015.861630
1015.861630
1015.861630
1015.861630
1015.861630
1015.861630
1015.861630
1015.861630
1015.861630
566.321015
##END
