##TITLE=AAI0851
##FORMAT=SPECTACLE-ASCII V-1.2
##DATA TYPE=ULTRAVIOLET SPECTRUM
##SECOND TYPE=ULTRAVIOLET SPECTRUM
##DATE=03/22/18
##TIME=13:01:57
##SPECTROMETER/DATA SYSTEM=SPECTACLE
##XUNITS=NM EM
##YUNITS=ENERGY
##YFACTOR=1
##FIRSTX=220
##LASTX=410
##NPOINTS=96
##3DDATA=Equidistant
##ZUNITS=NM EX
##FIRSTZ=210
##LASTZ=400
##ZPOINTS=39
##XYDATA=(Y..Y)
##ZVALUE=210
3.422499
3.601909
3.795624
4.532933
3.355742
3.958941
3.737807
3.681779
3.072619
3.189445
2.423525
2.866983
2.184510
2.439618
2.315640
2.463460
2.401471
2.570748
2.449751
3.116727
3.241897
2.956986
3.024936
2.938509
3.781915
3.635883
3.712773
4.301667
3.531575
3.896952
4.643798
3.874898
4.209876
5.077720
4.779696
4.334450
4.472733
4.862547
5.012751
5.206466
5.126595
5.115867
5.124807
4.633665
5.193949
4.884601
5.010962
4.651546
5.292892
6.146431
5.116463
6.062984
5.480647
5.618930
5.104542
5.213618
5.744696
6.038547
4.647970
5.213618
5.652905
6.168485
4.665852
6.148815
5.515814
5.599856
6.082654
7.191896
7.032752
9.058714
11.297464
11.428595
14.337897
15.332699
17.340779
17.173886
17.119646
16.289949
15.405416
15.833974
13.845563
12.723804
10.626912
8.835793
8.645654
7.576942
6.605983
5.719662
5.211830
5.370975
5.700588
5.562901
6.367564
5.669594
6.382465
7.030964
##ZVALUE=215
13.688803
13.058782
11.521578
9.447932
8.475780
6.332994
7.011890
6.953478
7.755756
6.936789
7.168651
5.143881
4.401803
4.023910
2.926588
2.780557
2.897978
3.409982
3.407598
2.946854
3.703833
3.341436
3.914833
3.745556
3.471971
3.462434
3.368855
4.711747
4.534721
4.546642
4.832745
4.744530
5.144477
4.624724
5.218983
4.962683
5.066991
4.984736
5.419850
5.222559
6.233454
5.225539
5.296469
4.919767
5.929470
6.668568
6.318688
5.798936
6.494522
5.616546
6.189942
5.804896
6.241798
5.032420
5.518794
6.084442
5.911589
5.608797
5.274415
5.273819
5.770922
5.806684
6.081462
5.666614
5.545616
5.666614
6.795526
7.117987
7.750988
10.006428
10.998845
12.448430
13.961792
15.879869
14.827847
15.593767
14.497638
15.173554
13.718605
14.530420
13.645887
12.686849
10.599494
8.665919
8.613467
5.778670
6.184578
6.457567
4.974604
5.491972
4.778504
4.856586
5.241632
5.086660
5.408525
5.488992
##ZVALUE=220
40.834546
39.557815
40.868521
36.847591
32.509565
27.013421
22.164583
16.233921
15.819669
14.210939
14.172792
15.440583
14.850497
12.674928
10.333657
8.448958
6.429553
4.341602
4.819632
3.710985
3.391504
3.510714
3.814697
4.005432
3.783703
3.834963
4.488826
4.345775
5.233884
4.356503
4.617572
4.797578
5.366802
5.026460
5.668998
5.290508
4.783869
5.708933
5.832911
5.314946
5.466938
5.992651
5.323887
5.055666
5.571842
4.621744
4.988909
5.644560
6.399751
5.666614
5.833507
5.916953
6.071925
5.599856
6.018877
6.480813
6.009936
5.993843
6.463528
6.370544
6.093979
6.205440
5.460978
6.485581
5.904436
6.935596
6.737709
6.711483
7.778406
8.717775
10.756850
12.851954
12.406707
14.566779
15.600920
15.114546
15.228987
15.769601
14.825463
14.421940
12.551546
12.421608
11.118650
8.089542
7.249713
8.313656
6.375909
6.037951
6.315708
5.617738
4.502535
5.112886
5.279779
4.985929
5.813837
5.768538
##ZVALUE=225
68.881512
71.360469
87.858438
101.412535
106.376410
95.323920
86.008906
62.772632
50.230622
39.426684
28.500557
26.050806
28.521419
29.826760
29.686689
27.933717
23.020506
18.916726
14.846921
8.387566
6.643534
4.948974
4.112720
4.087687
3.646612
5.316734
4.994869
5.249977
4.674792
4.889965
5.337596
5.887747
5.320907
5.148649
5.107522
5.000830
5.693436
6.348491
6.557703
5.974770
5.425811
5.784631
6.026626
5.904436
6.507635
6.313920
6.302595
5.758405
6.228685
6.373525
5.489588
6.252527
5.897880
6.812811
6.759763
6.462932
7.249713
6.547570
5.879998
7.480979
7.394552
7.080436
6.134510
7.079840
6.780624
7.004738
7.653832
8.145571
8.948445
8.731484
10.776520
11.824965
13.124943
15.856624
15.400648
16.259551
14.316440
13.039708
13.965964
11.591911
12.019873
9.726882
10.142922
8.927584
8.342862
8.361936
7.850528
6.514788
6.385446
6.139874
6.322861
5.924702
6.063581
6.191730
5.481839
5.933642
##ZVALUE=230
56.616664
62.318444
89.252591
138.175488
173.009634
202.305913
208.817720
199.230909
185.379982
158.179998
105.974674
77.531934
53.622723
49.254894
48.950911
51.941872
52.484870
49.816966
45.120716
36.301613
26.871562
18.203855
12.175441
8.212924
6.700754
6.087422
5.109906
5.927682
5.433559
5.621910
5.880594
6.121993
5.348921
5.993843
5.519986
6.197691
6.430745
6.186962
5.733967
6.590486
6.183982
6.301999
6.670952
6.505847
5.962849
5.897880
8.673668
6.429553
6.247759
7.137656
6.584525
6.109476
7.342696
6.870627
7.180572
7.975698
7.583499
7.639527
7.615685
7.060766
7.814765
7.042885
8.354783
8.510947
8.027554
7.749796
8.342862
9.290576
9.683967
10.672808
11.335611
13.564825
15.186667
14.890432
16.655922
17.654896
16.189814
16.048551
14.905930
13.722777
12.041926
11.643767
10.028481
9.495616
9.146929
8.472800
7.726550
8.191466
7.821918
7.875562
7.191896
6.488562
7.044673
6.972551
7.210970
7.171631
##ZVALUE=235
19.378662
20.832419
42.723417
98.910928
153.282881
231.497884
298.846960
377.754569
399.570465
385.878682
345.121622
264.048576
194.887519
126.144886
92.857480
75.624585
70.659518
76.455474
79.516768
82.564950
75.845718
63.531995
50.676465
33.732653
22.268891
17.159581
11.394620
7.038713
7.262826
6.945729
6.609559
6.012917
6.415844
6.349683
5.973577
6.793737
6.160736
6.539822
6.573796
5.619526
6.610751
6.087422
6.875992
7.310510
7.348657
6.629825
7.271767
7.440448
7.955432
7.311702
8.023977
7.638931
7.567406
8.617640
7.372499
7.666945
7.462502
8.042455
7.316470
8.273721
8.027554
8.157492
8.189678
9.678602
8.435845
9.019971
8.931756
9.728670
11.481643
10.430813
12.835860
14.401674
16.056895
16.738772
16.365647
17.849803
17.236471
17.647743
16.196966
14.179945
14.437437
12.216568
11.756420
11.175871
10.554790
9.584427
9.395480
8.843541
8.880496
7.816553
8.721948
8.630753
8.137822
9.078979
8.899570
7.130504
##ZVALUE=240
2.161860
2.735853
9.278655
23.165941
54.373741
120.739937
196.512938
335.720778
431.775451
551.824570
596.573949
586.810708
535.343885
423.017740
319.626927
208.709836
147.509575
104.227662
94.699860
100.587606
109.697580
114.344954
105.903745
105.323792
79.620481
65.625906
43.726563
31.944513
19.749999
13.225675
8.838773
7.930994
7.190704
7.668734
7.065535
6.721616
7.197857
7.094741
8.063912
7.097721
7.402897
7.268786
7.332563
6.716847
7.080436
7.019639
6.567836
7.392764
6.379485
7.790923
7.071495
7.677674
7.095933
7.808805
7.943511
7.972717
8.151531
7.184744
7.679462
7.499456
7.268786
7.509589
8.418560
8.707643
7.746816
8.812547
9.589791
9.639859
9.968877
12.281537
13.409853
13.854504
16.784668
15.544891
16.238689
17.765760
16.574860
16.610622
15.487671
13.902783
13.546944
12.594461
11.512637
11.431575
10.655522
10.558963
9.908676
9.941459
9.595752
9.909868
9.325743
10.281801
8.821487
8.877516
8.395910
9.812713
##ZVALUE=245
1.608729
1.774430
1.984835
2.263784
5.575418
14.160872
49.889684
99.651814
216.919780
325.559974
495.372415
614.040494
688.807964
721.797943
685.320497
563.205481
457.502007
300.797820
214.181542
130.908489
101.485848
97.221732
108.504891
119.714737
129.049420
124.838948
106.076598
92.867613
69.772601
51.405430
37.653446
21.288991
14.599562
9.692907
8.095503
6.648898
7.996559
6.046891
6.963611
6.643534
7.255673
6.411672
5.982518
6.353855
6.514788
6.196499
6.800890
6.725788
6.686449
5.947948
6.099939
6.593466
6.602407
6.717443
6.964803
6.168485
6.874800
7.075667
7.396936
6.677508
7.277727
6.524920
6.862879
7.656813
6.957650
7.745624
8.109808
8.435845
9.513497
9.067655
10.843873
12.519956
12.658834
16.011000
15.127659
14.276505
15.354753
13.696551
13.220906
13.167858
11.330843
11.782646
10.959506
10.017753
9.525418
8.986592
9.505749
8.861423
8.421540
7.495880
8.852482
7.994771
7.548928
8.059740
7.148981
8.236766
##ZVALUE=250
1.449585
1.568794
1.402497
1.665950
1.675487
1.721978
2.587438
10.726452
32.817721
72.700977
179.318786
302.592516
489.403009
619.538426
762.941837
817.930698
817.270875
736.729503
627.298951
430.562496
299.408436
168.132782
117.879510
93.239546
98.652840
115.155578
128.679872
133.599639
129.501820
113.455653
96.568465
73.966980
55.158734
32.015443
22.295713
12.141466
9.017587
6.352663
6.394982
6.564856
6.558895
6.570816
6.413460
6.036758
6.078482
6.105900
5.694628
6.002784
5.350709
5.232692
5.391836
5.674958
5.925894
6.111860
5.807877
6.318688
5.887747
6.327629
5.359650
5.919933
6.301999
5.890727
6.666780
5.989671
6.081462
5.930662
6.421804
7.427931
7.703900
8.490682
9.218454
10.109544
11.501908
11.684895
12.698770
11.806488
11.242628
12.230873
10.883808
9.877682
10.156631
9.116530
8.613467
8.755922
8.551478
7.619858
7.717609
6.664991
7.007718
7.567406
7.206798
8.001924
7.123947
7.690787
6.896853
6.736517
##ZVALUE=255
1.489520
1.320839
1.410842
1.350641
1.881719
1.896620
1.775622
1.922846
2.108812
4.946589
24.473667
61.772466
127.807856
271.986723
419.215560
632.540584
777.194500
905.988812
950.664878
877.516866
752.483606
603.016615
384.529829
241.522789
131.109953
93.616843
88.969469
98.091960
118.049979
133.457780
143.942833
136.652589
127.435923
100.816488
79.929829
52.893758
35.318732
18.864870
12.236834
8.067489
6.179810
5.392432
5.927682
5.578995
4.937649
5.376935
5.060434
5.229712
5.183816
5.388856
5.242825
5.081892
4.442930
5.012751
5.135536
5.266666
5.245805
5.303621
4.954934
4.848838
5.122423
4.995465
5.119443
5.059838
6.011724
5.596876
5.238652
5.896688
6.932616
7.229447
7.798672
8.266568
9.211898
9.117723
10.285974
9.673834
9.891987
9.195805
8.981824
7.834435
8.683801
7.902980
7.728934
7.178783
6.459951
6.321669
6.300807
6.581545
7.015467
6.664991
6.111860
6.318688
6.414652
6.526709
5.844831
6.237626
##ZVALUE=260
0.873804
0.979900
1.152754
1.360774
1.649857
1.213551
1.312494
1.514554
1.681447
1.807809
1.939535
2.895594
9.139776
40.739775
92.808604
221.580863
356.686711
585.126877
761.670470
971.400738
1015.861630
1015.861630
916.958451
749.480724
493.374467
337.092876
193.743706
118.334889
79.220533
79.703927
93.920827
118.994713
133.933425
142.814517
143.588781
123.780966
107.595921
79.192519
59.279799
35.464764
21.487474
11.820793
7.435679
5.711913
4.923940
5.309582
4.889965
4.909635
4.744530
4.880428
4.927516
4.660487
5.054474
5.115867
4.680753
4.577637
4.561543
4.445910
4.719496
4.515648
4.407763
4.312992
4.755855
4.534721
4.620552
5.059838
5.222559
5.825758
6.194711
6.176829
7.186532
8.035898
8.205771
7.855892
8.921623
8.991957
8.964539
7.672906
7.924438
7.043481
7.041693
6.940961
6.425977
5.589724
5.749464
5.899668
5.645752
5.607605
5.002618
5.631447
5.578995
5.598664
5.446672
5.631447
5.762577
5.638599
##ZVALUE=265
1.289845
1.198649
1.064539
1.141429
1.196861
1.151562
1.222491
1.103878
1.471639
1.519918
1.737475
1.827478
2.163649
2.238750
4.900694
26.821494
65.405965
168.401003
291.838646
539.606810
752.332807
943.714976
1015.861630
1015.861630
1015.861630
889.428854
654.142499
460.989475
258.577466
155.534744
96.145868
68.956614
76.475739
103.658438
122.462511
143.192410
150.946975
142.918825
130.971670
102.694631
81.282854
53.277612
35.651922
20.184517
12.152791
6.546974
5.611777
5.085468
4.385710
5.003810
4.733801
4.501939
4.577637
4.190803
4.365444
4.305840
4.035830
4.476905
4.233718
4.251599
4.168749
4.080534
4.154444
4.498959
4.657507
4.514456
4.591942
4.913807
4.930496
5.717874
6.001592
6.545782
6.751418
7.116795
7.025599
7.060766
7.426739
6.818771
6.635785
6.140471
5.673766
6.100535
5.921721
5.373955
5.610585
5.007982
4.973412
4.915595
5.231500
4.975796
5.245805
5.055666
4.826784
5.106926
4.851818
5.119443
##ZVALUE=270
1.071692
1.263618
1.059771
1.243949
1.252890
1.147985
1.090765
1.266599
1.305938
1.345873
1.375675
1.575947
1.488924
1.621842
1.832843
2.161860
2.690554
12.574792
38.411617
120.877624
237.841606
414.164662
710.746646
931.568742
1015.861630
1015.861630
1015.861630
1015.861630
842.551589
630.069971
432.042480
224.213004
129.251480
66.569448
59.229732
78.679919
100.972652
127.239823
143.064857
147.604942
145.344734
127.219558
106.658936
78.717470
57.180524
33.395886
22.182465
13.081431
8.176565
5.759597
4.670620
4.554987
4.412532
4.450679
4.268885
4.327893
4.334450
4.217625
4.587770
3.961921
4.389882
4.096627
4.479885
3.967881
4.080534
4.108548
4.494786
4.519820
4.922748
5.021691
5.513430
5.812645
6.675720
6.699562
6.625652
6.566644
6.457567
6.266832
5.969405
5.706549
5.665421
5.259514
4.825592
4.950762
4.840493
4.871488
4.626513
4.819632
4.889965
4.613996
4.750490
4.507899
4.776716
4.271865
4.660487
4.702806
##ZVALUE=275
0.867844
1.265407
1.167655
0.956655
1.009703
1.115799
0.872612
1.105666
1.100898
1.095533
1.386404
1.367927
1.279712
1.483560
1.572967
1.520514
1.713634
1.824498
2.058744
5.308986
22.344589
64.754486
193.205476
353.174806
641.894937
858.877897
1015.861630
1015.861630
1015.861630
1015.861630
1015.861630
782.772899
553.861856
298.434496
172.051787
76.894760
51.956773
56.678653
74.103475
100.489855
122.350454
141.674876
144.997835
142.094493
128.304958
100.597739
80.002546
55.262446
38.802624
21.299720
13.369918
7.731915
5.634427
4.610419
4.393458
4.054904
3.984571
4.376769
3.957748
4.296899
4.205704
4.099607
3.971457
4.280806
4.510880
3.868937
4.144907
4.039407
4.759431
5.009770
4.994869
5.415678
5.505681
6.147623
6.082654
6.361604
6.141663
5.714893
5.351901
5.475879
5.343556
4.780889
4.884601
4.888773
4.505515
4.745722
4.170537
4.443526
4.160404
4.254580
4.124641
3.903508
4.173517
4.398823
4.484653
4.232526
##ZVALUE=280
0.905991
0.911951
1.229644
0.966787
1.058578
1.007915
0.980496
1.247525
1.111627
1.193881
1.191497
1.069903
1.133680
1.279712
1.205802
1.198649
1.259446
1.408458
1.886487
2.038479
1.940727
2.892613
13.933778
46.244860
149.370432
270.683765
504.434705
739.538670
1012.263894
1015.871763
1015.871763
1015.871763
1015.871763
907.765031
667.826533
382.083654
229.109526
100.675821
55.505633
40.059686
52.011609
76.215863
98.729730
125.242472
137.647986
142.535567
139.665604
124.034882
102.977753
76.386929
56.240559
35.335422
23.080707
12.422800
8.029938
5.295873
4.268885
3.916621
3.798604
4.008412
3.722906
4.006624
3.823638
4.082918
4.207492
3.863573
3.964901
4.544854
4.857779
4.534721
5.069971
5.134940
5.503893
5.776882
5.968809
5.879998
5.320907
5.678535
5.160570
4.902482
4.654527
4.497766
4.314780
4.126430
4.022717
3.808737
3.990531
4.051924
3.934503
4.243851
4.075766
3.760457
3.919601
3.816485
3.894567
3.849864
##ZVALUE=285
0.864863
0.825524
0.911951
0.700951
0.820756
0.829697
0.912547
1.136661
1.007915
1.128912
1.091957
0.891685
1.180768
1.059771
1.162887
1.105666
1.173615
1.320839
1.531839
1.357794
1.446605
1.792908
1.976490
2.689958
5.707741
30.241609
76.650977
200.644732
349.499583
622.432828
865.857601
1015.861630
1015.861630
1015.861630
1015.861630
1015.861630
834.339857
513.656735
321.039557
149.442554
77.545643
35.786629
34.665465
50.572753
68.653822
97.164512
115.060806
132.130980
139.612556
136.162639
124.900937
101.502538
81.703663
54.092407
38.293600
21.559596
13.801455
7.688999
5.543828
4.337430
4.393458
3.468990
4.046559
4.387498
4.194975
4.063845
4.088879
4.366636
4.356503
4.433990
4.875660
5.124807
5.307794
5.282760
5.536675
5.423427
5.194545
4.751682
4.630685
4.623532
4.180670
4.049540
4.250407
3.792644
3.814697
3.730655
4.077554
3.820658
3.840923
3.788471
4.059672
3.997684
3.798604
3.677607
3.770590
3.396869
##ZVALUE=290
0.794530
0.835657
0.883937
0.927448
0.887513
1.060963
1.070499
0.897646
0.913739
1.050830
1.099706
0.900626
1.040697
0.913739
1.216531
1.112819
1.220703
1.060963
1.027584
1.198649
1.450777
1.553893
1.535416
1.807809
1.841784
2.321601
2.932549
10.554790
49.253702
112.843513
264.035463
454.050899
700.546503
1009.579897
1015.861630
1015.861630
1015.861630
1015.861630
977.872610
659.150481
438.623428
215.346813
111.749768
41.390657
25.838614
33.178926
45.715570
67.733526
86.265802
111.155510
125.309825
135.372877
134.705901
119.928718
102.968812
75.669885
56.517720
34.722686
23.560524
12.579560
8.426905
5.237460
4.623532
4.165769
4.165769
3.594756
3.992915
4.281998
4.083514
4.455447
4.501939
4.980564
5.048513
5.272627
5.147457
4.984736
4.792809
4.629493
4.288554
4.220605
4.234910
3.826618
4.049540
3.777742
3.837943
3.723502
3.853440
4.035830
3.825426
3.508925
3.587604
3.575683
3.592968
3.632903
3.500581
3.454685
##ZVALUE=295
0.813603
0.737906
0.760555
0.845790
0.872612
0.668764
0.851750
0.857711
0.794530
0.741482
1.051426
0.893474
0.971556
0.895858
0.874996
1.048446
1.082420
1.122952
1.028776
1.239777
1.167655
1.370907
1.493692
1.602769
1.556873
1.395941
1.835823
1.932979
2.412796
4.412532
15.813708
68.451762
158.020854
369.170904
596.973896
942.227840
1015.861630
1015.861630
1015.861630
1015.861630
1015.861630
809.210539
561.022758
295.293927
159.795880
58.504939
28.331876
21.260977
27.289987
43.840408
60.200691
85.166693
103.553534
123.392940
130.731463
125.502944
115.295649
95.244646
77.161789
52.333474
36.606789
21.657944
13.397932
8.126497
5.722642
4.527569
3.965497
3.963709
4.083514
4.437566
4.689693
4.969835
5.160570
4.912615
5.231500
4.995465
5.065799
4.490614
4.157424
4.163980
3.803968
3.736615
4.212856
3.851652
3.986955
3.696680
3.459454
3.292561
3.413558
3.431439
3.433824
3.364682
3.358722
3.352761
3.286600
3.383756
##ZVALUE=300
0.759959
0.772476
0.670552
0.803471
0.677705
0.768900
0.784993
0.882745
0.740886
0.851750
0.854731
0.819564
0.812411
0.950694
0.866652
0.894666
1.025796
0.995994
0.947714
1.057982
1.116991
0.830889
1.110435
1.308918
1.340508
1.210570
1.418591
1.552701
1.726747
1.992583
1.967549
2.537966
10.158420
37.540793
122.912526
240.039825
486.382842
733.333826
1015.861630
1015.861630
1015.861630
1015.861630
1015.861630
1002.169847
687.043667
445.834994
224.140882
118.700862
42.458773
19.314885
17.954707
23.987889
38.671494
54.172873
76.671839
94.575882
115.235448
121.492743
120.753646
112.324953
93.537569
76.672435
53.461790
39.461851
22.446513
14.504790
8.487701
5.931854
4.560947
4.556775
4.555583
4.566908
4.451871
4.656911
4.358888
4.617572
4.600883
4.304647
4.395843
4.121661
4.118681
3.880858
3.718734
3.943443
3.545880
3.620982
3.469586
3.491640
3.298521
3.389716
3.212690
3.275871
3.133416
3.431439
3.315806
3.338456
##ZVALUE=305
0.602603
0.716448
0.750422
0.693798
0.586510
0.638962
0.691414
0.863671
0.712872
0.725985
0.878572
0.717640
0.763535
0.905991
0.842810
0.713468
0.951886
0.871420
0.985861
0.895858
1.073480
0.925660
1.267791
1.277924
1.228452
1.413822
1.254678
1.396537
1.456738
1.491904
1.609921
1.679659
1.927614
2.354980
5.292892
20.690560
82.606673
178.386569
391.720533
614.128709
869.122744
1015.861630
1015.861630
1015.861630
1015.861630
1015.861630
852.151513
545.775890
339.819789
186.013579
71.362853
30.245781
13.358593
15.081763
24.321675
34.654737
54.042935
72.578788
96.235871
106.591582
116.049647
115.676522
104.803443
92.965961
69.939494
53.231716
34.644604
23.151636
12.514591
8.577704
5.830526
5.311966
4.816651
4.672408
4.447699
4.428625
3.965497
4.150867
3.802776
3.792644
3.899932
3.933907
3.646612
3.793836
3.930926
3.594756
3.574491
3.512502
3.339648
3.689528
3.314614
3.483891
3.441572
2.969503
3.151894
2.959967
##ZVALUE=310
0.577569
0.592470
0.654459
0.647902
0.612736
0.409484
0.747442
0.764728
0.663996
0.603795
0.583529
0.467896
0.633597
0.638962
0.667572
0.786781
0.699759
0.798702
0.730753
0.836849
0.935793
0.861883
0.911951
1.082420
1.001954
1.056790
0.936985
0.956655
1.201630
1.085997
1.242757
1.430511
1.507998
1.666546
1.826882
1.950860
2.283454
10.339618
36.621690
125.009418
242.331028
492.433906
745.749474
1015.763879
1015.763879
1015.763879
1015.763879
1015.763879
1000.394821
686.611533
459.307432
228.128433
120.743513
41.494966
17.224550
10.970831
13.417602
21.449924
30.630827
47.944784
63.619614
85.272789
97.551942
108.832717
109.591484
101.821423
88.764429
69.338679
52.850842
34.244657
23.793578
14.230609
9.217858
6.297827
5.272627
4.403591
4.313588
3.938675
3.799796
3.445745
3.543496
3.207922
3.504753
3.757477
3.525615
3.635883
3.426671
3.333688
3.450513
3.074408
3.188848
3.427863
3.449917
3.100634
2.986789
3.080964
##ZVALUE=315
0.765920
0.579953
0.796914
0.737906
0.787973
0.712872
0.773668
0.832677
0.725985
0.640750
0.864863
0.777841
0.773668
0.591874
0.780821
0.621676
0.707507
0.829697
0.641942
0.821948
0.959635
0.954866
1.007915
0.865459
1.029968
0.965595
0.989437
1.150966
1.030564
1.040697
1.258850
1.248717
1.202822
1.460910
1.446605
1.484752
1.713634
1.872778
2.052784
5.041957
18.923879
83.460808
179.651976
397.118926
627.319813
974.242687
1015.861630
1015.861630
1015.861630
1015.861630
1015.861630
804.705620
567.984581
302.100778
163.261890
59.323907
24.362803
10.252595
9.333491
12.739897
17.986894
30.554533
42.366982
60.795546
75.748563
93.872547
103.125572
102.070570
96.724629
82.751513
68.028569
48.329830
34.676790
20.553470
13.666749
7.938743
5.881786
4.618764
3.977418
3.668666
3.651977
3.563762
3.261566
3.554821
3.596544
3.435612
3.635883
3.376603
3.465414
3.208518
3.306866
3.551841
3.257990
3.266931
3.040433
3.004670
##ZVALUE=320
0.693798
0.704527
0.547767
0.557899
0.731945
0.687838
0.720620
0.518560
0.562668
0.688434
0.651479
0.680685
0.735521
0.582933
0.750422
0.704527
0.699759
0.835657
0.699759
0.553727
0.742674
1.017451
0.882745
0.918508
0.964999
0.848770
0.887513
0.874996
1.113415
0.927448
1.156926
1.110435
1.163483
1.095533
1.219511
1.472831
1.585484
1.425743
1.527667
1.776814
2.246499
2.530813
10.193586
35.585761
129.565597
258.473754
516.124964
752.902627
1015.861630
1015.861630
1015.861630
1015.861630
1015.861630
983.407497
663.583875
429.063439
200.668573
103.465915
35.648942
14.945865
8.386970
8.340478
11.267662
15.798807
26.870966
37.907958
55.926442
70.139766
88.198781
96.171498
97.312927
92.971921
79.442859
65.762997
46.698451
33.940673
20.763874
13.482571
7.714629
5.458593
4.268885
4.032850
3.599524
3.708601
3.488660
3.411770
3.620982
3.212690
3.174543
3.317595
3.296733
3.065467
3.161430
3.200769
3.275871
3.220439
##ZVALUE=325
0.859499
0.670552
0.740886
0.836849
0.525713
0.739694
0.711679
0.727773
0.761747
0.723600
0.639558
0.757575
0.880957
0.701547
0.944734
0.740886
0.804663
0.707507
0.738502
0.796914
0.702739
0.859499
0.781417
0.851750
0.819564
0.941753
1.037717
1.028776
1.000762
0.923872
1.152754
1.037717
1.232624
1.102686
1.296997
1.196861
1.313686
1.281500
1.443624
1.520514
1.618862
1.870990
2.000928
2.301931
5.153418
20.042658
78.893900
167.964697
373.312831
606.475472
958.390832
1015.951633
1015.951633
1015.951633
1015.951633
1015.951633
736.669898
504.073501
262.444615
143.500566
52.022934
21.167994
8.486509
7.518530
8.486509
10.179877
16.210675
23.809671
39.372444
53.390861
71.607828
82.045794
90.694427
91.102719
84.378719
75.625777
58.636665
44.711828
28.960705
19.565821
11.412501
8.057952
5.384684
4.412532
4.039407
3.649592
3.518462
3.424883
3.401637
3.077984
3.187656
3.186464
2.953410
3.330708
3.244877
2.974868
##ZVALUE=330
0.530481
0.604987
0.467896
0.591874
0.714660
0.604987
0.640750
0.664592
0.580549
0.543594
0.555515
0.687838
0.700951
0.705719
0.691414
0.580549
0.778437
0.781417
0.708699
0.790954
0.764728
0.847578
0.692606
0.801682
0.755787
0.809431
0.864863
0.946522
0.868440
0.904799
0.791550
0.889897
0.935793
0.988841
0.978708
0.999570
1.039505
1.163483
1.034737
1.208782
1.021624
1.458526
1.458526
1.798868
1.833439
2.000928
2.670884
11.525750
38.452744
129.953027
252.482891
513.818860
756.580830
1015.861630
1015.861630
1015.861630
1015.861630
1015.861630
925.588012
602.076650
386.022925
178.314447
89.871883
30.079484
11.897683
6.957650
6.684661
7.248521
9.773970
16.018748
22.849441
35.684705
49.430728
66.711903
76.711774
84.880590
85.131526
78.941584
69.693923
53.141713
41.042566
26.434660
19.183755
11.634827
8.260608
5.544424
4.337430
3.788471
3.547668
3.037453
3.139973
3.136992
3.032684
3.081560
2.890825
3.100634
##ZVALUE=335
0.552535
0.564456
0.548959
0.259876
0.687838
0.582933
0.686646
0.513792
0.542998
0.559688
0.559688
0.575781
0.631809
0.575781
0.492930
0.591874
0.721812
0.610948
0.728965
0.702739
0.725985
0.652671
0.676513
0.741482
0.863671
0.686646
0.719428
0.759959
0.677705
0.863671
0.881553
0.940561
0.884533
0.712872
0.978708
0.971556
0.914931
1.102686
0.981688
1.155734
1.194477
1.387596
1.327991
1.340508
1.460910
1.649857
1.811981
1.938939
2.370477
4.257560
24.952888
68.807602
192.792416
348.167419
644.513965
919.768810
1015.874743
1015.874743
1015.874743
1015.874743
1002.262831
778.916478
463.637710
275.612473
117.573738
52.299500
15.509725
8.155704
6.575584
6.663799
7.620454
9.656549
14.793873
21.431446
34.458637
45.598745
60.908794
71.588755
79.277754
79.977512
73.632598
65.072775
51.950812
40.540695
27.582645
19.778609
12.301803
8.302927
5.545616
4.404783
3.766418
3.476739
3.311634
3.135800
3.013611
2.818704
##ZVALUE=340
0.499487
0.488758
0.542998
0.676513
0.634789
0.652671
0.424981
0.618696
0.534654
0.487566
0.536442
0.601411
0.432730
0.614524
0.665784
0.465512
0.667572
0.534654
0.505447
0.609756
0.609756
0.649691
0.671744
0.586510
0.580549
0.676513
0.698566
0.679493
0.722408
0.588894
0.773668
0.735521
0.909567
0.786781
0.804663
0.754595
0.709891
1.036525
1.024604
0.889897
0.820756
0.987649
1.078844
1.006722
1.143813
1.224875
1.401901
1.387596
1.610518
1.666546
1.851916
2.880692
9.577870
48.360825
120.123029
299.230814
505.824685
834.683776
1015.837789
1015.837789
1015.837789
1015.837789
1015.837789
875.458717
611.384511
316.452980
174.914598
67.987442
26.325583
8.682609
6.645918
6.430745
6.521940
7.447600
9.295940
14.231801
20.622611
32.107830
43.224692
58.306456
67.517757
74.148774
74.219704
68.855882
62.497854
49.273968
39.185882
27.344823
19.499660
12.214780
8.046627
5.224943
3.977418
3.604889
3.159642
2.983809
##ZVALUE=345
0.525713
0.489950
0.434518
0.402927
0.558496
0.441670
0.539422
0.491738
0.371933
0.471473
0.439882
0.362992
0.395775
0.353456
0.618696
0.597835
0.587702
0.647902
0.440478
0.560880
0.524521
0.512600
0.603795
0.777841
0.607967
0.500679
0.674725
0.538826
0.630617
0.648499
0.692606
0.728965
0.631809
0.728965
0.778437
0.699759
0.717640
0.879765
0.822544
0.927448
1.047850
0.978708
0.841618
1.135468
1.012683
0.953674
1.100898
1.223683
1.141429
1.407862
1.509786
1.721978
1.779795
2.112985
4.595518
28.195977
77.815652
209.986567
375.344753
683.403611
941.231847
1015.823483
1015.823483
1015.823483
1015.823483
963.582993
714.936852
422.776937
236.752629
91.562867
39.515495
12.527704
7.331967
6.219745
5.965829
5.800724
6.393790
8.305907
11.957884
19.991994
28.041601
41.028857
50.755739
61.112642
66.998601
68.563819
66.040754
57.990551
49.283504
37.681460
28.323531
17.900467
12.304783
7.362962
5.331635
3.929734
##ZVALUE=350
0.530481
0.435710
0.537634
0.536442
0.612736
0.467896
0.511408
0.495911
0.678897
0.539422
0.563860
0.593662
0.701547
0.542998
0.565648
0.699759
0.537634
0.590682
0.660419
0.669956
0.639558
0.639558
0.740886
0.778437
0.770688
0.736713
0.708699
0.776649
0.715852
0.523925
0.525713
0.756979
0.740886
0.676513
0.686646
0.661612
0.765920
0.726581
0.695586
0.830889
0.886917
1.047850
0.931621
1.099706
1.008511
1.062751
0.918508
0.988841
1.159906
1.162887
1.272559
1.320839
1.368523
1.463890
1.600981
1.885891
2.739429
14.337897
47.053695
146.721601
276.077986
551.963449
805.873871
1015.861630
1015.861630
1015.861630
1015.861630
1015.861630
820.941925
494.133830
292.986631
129.721761
58.978796
16.546845
7.711649
6.283522
5.585551
5.361438
5.160570
5.776882
7.194877
11.641979
16.303658
25.568604
33.791661
45.839548
53.700805
61.001778
63.155890
60.226917
55.308938
44.901967
36.591887
26.371479
19.179583
12.154579
##ZVALUE=355
0.494719
0.630617
0.487566
0.578761
0.566840
0.491738
0.505447
0.679493
0.673532
0.544786
0.677705
0.634789
0.620484
0.535846
0.682473
0.661612
0.549555
0.530481
0.537634
0.775456
0.584722
0.544786
0.662804
0.668764
0.662804
0.634789
0.618696
0.661612
0.725985
0.725985
0.676513
0.734925
0.702739
0.697970
0.761747
0.758767
0.686646
0.859499
0.845790
0.812411
0.743866
0.865459
0.899434
0.851750
0.950694
0.957847
1.049638
1.054406
1.065731
1.041889
1.174808
1.172423
1.240969
1.382828
1.363754
1.548529
1.771450
1.836419
2.125502
6.610751
24.950504
99.865794
202.899575
423.751473
661.265850
991.999507
1015.861630
1015.861630
1015.861630
1015.861630
931.957960
621.402860
389.831662
171.134472
80.605745
23.798943
9.549856
5.957484
5.473495
5.126595
4.870892
4.723668
5.290508
6.658435
9.127855
14.782548
21.128654
30.705929
38.511753
48.118830
54.095984
57.467818
56.269765
49.935579
43.474436
34.115911
##ZVALUE=360
0.654459
0.577569
0.780821
0.586510
0.560880
0.631809
0.489950
0.655651
0.614524
0.604987
0.632405
0.596642
0.743866
0.539422
0.551939
0.669956
0.669956
0.625849
0.663996
0.665784
0.535846
0.696778
0.502467
0.443459
0.680685
0.745654
0.755787
0.680685
0.771880
0.781417
0.756979
0.518560
0.785589
0.683665
0.708699
0.764728
0.663996
0.823736
0.969768
0.954866
0.884533
1.035929
0.800490
0.782609
0.860691
0.947714
0.974536
0.928640
1.057982
1.082420
1.199841
1.105666
1.161695
1.259446
1.303554
1.448989
1.433492
1.706481
1.634955
2.017617
2.045631
3.289580
10.724664
52.166581
130.054951
321.158767
528.296828
849.728584
1015.861630
1015.861630
1015.861630
1015.861630
1015.861630
787.178874
509.297848
236.381888
119.119883
40.591955
15.513897
6.686449
5.658865
5.205870
4.939437
4.714727
4.456639
4.860759
5.828738
8.107424
11.434555
17.831922
23.903847
34.094453
40.823817
47.516823
50.977468
51.115751
##ZVALUE=365
0.447631
0.619888
0.581741
0.469685
0.566840
0.588894
0.513792
0.477433
0.620484
0.567436
0.351667
0.636578
0.496507
0.605583
0.670552
0.742674
0.555515
0.593662
0.724792
0.639558
0.587702
0.595450
0.647902
0.502467
0.648499
0.472665
0.643730
0.535846
0.496507
0.638962
0.637770
0.822544
0.761747
0.682473
0.633597
0.692606
0.808835
0.771880
0.725985
0.696778
0.781417
0.999570
0.736713
0.900626
0.774860
0.873804
0.857711
0.951886
0.974536
1.063943
1.095533
1.096725
0.928640
1.187921
1.126528
1.207590
1.426935
1.393557
1.358986
1.553893
1.533628
1.984835
2.084970
2.352595
4.807711
27.867556
77.605844
209.786892
385.542512
704.894662
959.151983
1015.861630
1015.861630
1015.861630
1015.861630
879.083872
625.474453
333.559513
181.124806
61.871409
22.859573
7.036924
5.586743
4.979968
4.552603
4.339814
4.383922
3.610849
4.216433
4.850626
6.127954
9.799600
13.801455
21.801591
27.851462
36.828518
##ZVALUE=370
0.489950
0.420809
0.469685
0.513792
0.379682
0.601411
0.555515
0.635982
0.674725
0.664592
0.645518
0.616908
0.483990
0.557899
0.677705
0.528693
0.657439
0.397563
0.478625
0.468493
0.543594
0.533462
0.565648
0.644922
0.727773
0.724792
0.686646
0.572801
0.614524
0.599623
0.587702
0.504851
0.570416
0.617504
0.631809
0.559688
0.669956
0.745654
0.678897
0.654459
0.637770
0.613928
0.699759
0.663996
0.880957
0.715852
0.778437
0.857711
0.913739
0.866652
0.920892
0.843406
0.830889
0.995994
0.944734
1.020432
1.022816
1.203418
1.147985
1.362562
1.248717
1.356602
1.451969
1.721978
1.820922
1.995564
2.906919
14.727712
49.420595
160.792470
299.960971
565.057993
817.492008
1015.836596
1015.836596
1015.836596
1015.836596
920.154452
678.101778
376.531482
211.503506
81.132650
35.503507
11.653900
5.812645
4.655719
4.389882
4.089475
3.819466
3.605485
3.644824
3.492832
4.062653
5.591512
8.117557
12.591481
##ZVALUE=375
0.459552
0.387430
0.470877
0.613928
0.513792
0.600815
0.650883
0.633597
0.494719
0.532866
0.472665
0.659823
0.463724
0.530481
0.657439
0.721812
0.491738
0.540614
0.383854
0.550747
0.575781
0.600815
0.602603
0.580549
0.630617
0.663996
0.647902
0.548959
0.584722
0.719428
0.612736
0.668764
0.632405
0.616908
0.532866
0.707507
0.624657
0.710487
0.528693
0.746846
0.588894
0.654459
0.778437
0.755787
0.823736
0.741482
0.647902
0.771880
0.880957
0.829697
0.840425
0.841618
0.895858
0.864863
0.916719
1.009703
0.698566
0.911951
1.068711
0.955462
1.014471
1.139641
1.188517
1.229644
1.322627
1.476407
1.499653
1.872778
2.389550
7.543564
27.166605
101.240873
214.577913
464.759469
704.939961
1005.465984
1015.861630
1015.861630
1015.861630
1014.044881
812.323689
497.496724
310.757756
142.385960
69.859624
21.140575
8.003712
4.605651
4.241467
3.970861
3.682971
3.377795
3.393888
3.158450
3.162622
3.840923
##ZVALUE=380
0.429749
0.562668
0.548959
0.523925
0.446439
0.485778
0.417829
0.578761
0.540614
0.427961
0.605583
0.495911
0.559688
0.446439
0.574589
0.497699
0.442863
0.497699
0.434518
0.671744
0.507832
0.420809
0.548959
0.559688
0.641942
0.470877
0.503659
0.577569
0.578761
0.617504
0.542998
0.548959
0.746846
0.702739
0.776649
0.618696
0.628829
0.720620
0.624657
0.536442
0.624657
0.650883
0.760555
0.718832
0.637770
0.716448
0.765920
0.562668
0.725985
0.695586
0.727773
0.645518
0.729561
0.895858
0.608563
0.797510
0.865459
0.814795
0.829697
0.744462
1.084805
0.992417
1.037717
1.136661
1.103878
1.370907
1.297593
1.484752
1.687407
2.017617
2.211928
3.407001
18.479824
58.828592
181.761980
335.140824
622.942448
887.040496
1015.861630
1015.861630
1015.861630
1015.861630
888.664722
662.830472
381.314754
224.777460
92.779994
41.793585
11.298656
5.239844
4.096627
4.019737
3.608465
3.418922
3.156662
3.179908
##ZVALUE=385
0.532866
0.510812
0.400543
0.581741
0.399947
0.433922
0.437498
0.398755
0.486970
0.524521
0.454783
0.576973
0.527501
0.507832
0.569820
0.517964
0.506639
0.594854
0.563860
0.444651
0.459552
0.599623
0.595450
0.575781
0.617504
0.496507
0.584722
0.410676
0.374913
0.632405
0.569820
0.494719
0.490546
0.354648
0.656843
0.526905
0.516772
0.556707
0.650883
0.651479
0.758767
0.387430
0.547767
0.582933
0.640750
0.538826
0.749826
0.634789
0.758767
0.725985
0.755787
0.542998
0.609756
0.668764
0.702739
0.643730
0.711679
0.862479
0.873804
0.789762
0.887513
0.836849
0.963807
1.045465
1.038909
0.989437
1.181960
1.034737
1.508594
1.607537
1.683831
1.767874
2.055764
2.398491
6.594658
39.630532
104.908943
268.771648
469.633937
802.466869
1015.861630
1015.861630
1015.861630
1015.861630
1015.861630
771.939754
538.962483
290.063620
163.147449
64.578652
25.059581
6.746650
4.325509
3.830791
3.434420
3.180504
##ZVALUE=390
0.323653
0.305772
0.306964
0.350475
0.488758
0.423789
0.364780
0.450611
0.563860
0.438690
0.566840
0.470877
0.414848
0.487566
0.452995
0.477433
0.557899
0.389814
0.383854
0.499487
0.487566
0.413656
0.481606
0.516772
0.509620
0.493526
0.646710
0.407696
0.446439
0.586510
0.573993
0.541806
0.511408
0.543594
0.656843
0.627637
0.558496
0.503659
0.512600
0.623465
0.662804
0.675917
0.687838
0.550747
0.670552
0.736713
0.724792
0.486970
0.700951
0.611544
0.691414
0.596642
0.747442
0.754595
0.797510
0.745654
0.695586
0.913739
0.726581
0.961423
0.804663
0.635982
0.872612
0.881553
0.940561
1.001954
1.281500
1.041889
1.505613
1.432896
1.455545
1.543760
1.660585
1.728535
2.078414
2.178550
3.276467
20.236969
62.241554
192.424655
360.656977
669.707656
922.115445
1015.861630
1015.861630
1015.861630
1015.861630
945.885777
718.568563
429.860950
243.617892
95.856786
43.148994
12.680888
5.432963
3.840923
##ZVALUE=395
0.463724
0.496507
0.480413
0.431538
0.367761
0.428557
0.443459
0.362992
0.568628
0.516772
0.551939
0.534654
0.523925
0.410676
0.368953
0.567436
0.557899
0.420809
0.513792
0.389814
0.395775
0.501871
0.472665
0.514984
0.433922
0.501871
0.492930
0.377893
0.498891
0.381470
0.591874
0.493526
0.520945
0.541806
0.633597
0.644922
0.615716
0.710487
0.622869
0.635982
0.661612
0.485778
0.750422
0.651479
0.660419
0.736713
0.573993
0.589490
0.656843
0.614524
0.526905
0.671744
0.646710
0.681877
0.747442
0.705719
0.669956
0.858903
0.727773
0.661612
0.831485
0.856519
0.892878
0.758767
1.028776
0.918508
0.988841
1.143813
1.207590
1.321435
1.340508
1.454949
1.400709
1.476407
1.311898
1.767874
1.807809
2.002716
2.407432
11.224747
40.989518
143.048763
274.823904
523.358583
767.889023
1015.861630
1015.861630
1015.861630
1015.861630
1015.861630
892.723799
540.536642
329.045653
141.735673
65.655708
19.806623
##ZVALUE=400
0.497699
0.440478
0.510812
0.479817
0.454783
0.441670
0.432730
0.343919
0.398755
0.364780
0.577569
0.394583
0.432730
0.486970
0.555515
0.467896
0.627637
0.492930
0.353456
0.344515
0.509620
0.410676
0.619888
0.447631
0.569820
0.503659
0.517964
0.460744
0.461936
0.381470
0.517964
0.551939
0.453591
0.576973
0.512600
0.563860
0.579953
0.371933
0.505447
0.611544
0.523925
0.592470
0.430942
0.521541
0.706911
0.577569
0.583529
0.593662
0.587702
0.678897
0.670552
0.648499
0.663996
0.507832
0.664592
0.768900
0.673532
0.682473
0.699759
0.746846
0.881553
0.778437
0.780821
0.772476
0.746846
0.917912
0.987649
1.185536
1.106858
1.439452
1.333952
1.432896
1.055598
1.232624
1.411438
1.390576
1.459718
1.569986
1.505613
1.809597
2.244711
5.957484
21.375418
81.057549
178.442597
405.031443
637.277961
971.681476
1015.864015
1015.864015
1015.864015
1015.864015
967.222452
633.148551
411.444902
202.876925
##END
