##TITLE=AAI0551
##FORMAT=SPECTACLE-ASCII V-1.2
##DATA TYPE=ULTRAVIOLET SPECTRUM
##SECOND TYPE=ULTRAVIOLET SPECTRUM
##DATE=03/22/18
##TIME=13:17:30
##SPECTROMETER/DATA SYSTEM=SPECTACLE
##XUNITS=NM EM
##YUNITS=ENERGY
##YFACTOR=1
##FIRSTX=220
##LASTX=410
##NPOINTS=96
##3DDATA=Equidistant
##ZUNITS=NM EX
##FIRSTZ=210
##LASTZ=400
##ZPOINTS=39
##XYDATA=(Y..Y)
##ZVALUE=210
3.019571
3.134608
3.493428
2.979636
3.558993
3.040433
3.547668
3.626943
3.912449
2.804995
3.301501
2.553463
2.579689
2.769828
2.553463
2.813935
3.335476
3.571510
3.226995
4.181862
3.745556
3.449917
3.544688
4.569888
4.292727
4.605651
4.859567
5.340576
6.463528
5.662441
5.835891
5.802512
6.002784
6.206632
7.109642
7.125735
7.321835
6.497502
7.414818
7.432699
7.457733
7.469654
7.300973
7.209778
8.301735
7.751584
7.813573
7.410645
7.973909
7.775426
7.651448
8.364916
8.163452
7.916689
8.691549
8.856654
9.063482
8.180737
9.259582
9.448528
9.909868
8.042455
9.004474
8.083582
9.723902
9.238720
11.592507
11.373758
13.645887
16.704798
20.474792
22.899508
24.842620
28.566718
29.157996
32.742620
31.131506
32.011867
29.346943
29.067993
24.102926
22.950768
20.100474
18.665791
15.156865
13.452768
11.981726
10.683537
10.649562
9.423494
8.812547
10.062456
9.665489
10.562539
10.201931
10.755658
##ZVALUE=215
13.905764
13.594627
11.002421
8.707643
8.058548
8.248687
6.754994
6.795526
7.176995
6.999969
5.841851
6.140471
5.261898
4.176497
3.982782
3.219843
3.993511
3.424883
3.703833
4.380941
3.443956
4.324913
4.231930
4.745722
5.185604
5.298853
4.804730
5.931854
6.070733
6.330609
6.608963
7.837415
7.438660
6.969571
8.360744
7.458925
6.938577
7.730722
7.688999
8.055568
7.960796
8.615851
7.764697
8.345842
8.375645
8.376837
8.607507
8.000731
8.146763
9.454489
8.809566
9.718537
8.436441
8.908510
9.546876
8.664727
8.652806
8.657575
8.668900
9.606481
10.179877
9.281635
9.902716
9.565949
9.796619
9.901524
11.012554
12.202859
13.362765
16.030669
18.419623
21.481514
22.277832
28.126836
28.734803
30.128956
29.302835
28.582811
26.956797
25.052428
23.631454
20.449758
19.591451
16.302466
15.012622
12.290478
11.245608
11.343956
9.816885
10.031462
10.031462
9.428859
9.158850
10.141730
9.504557
10.040998
##ZVALUE=220
45.846701
42.298436
45.275688
40.945411
35.610795
31.856894
21.584630
17.368793
14.825463
13.673902
15.825629
14.230609
13.557673
12.349486
9.921789
8.131862
6.601810
6.119609
4.710555
3.973842
4.177690
4.191995
4.288554
4.626513
5.177855
5.530715
5.555749
6.365776
5.899668
6.854534
8.385777
7.965565
9.173751
8.447766
8.211732
8.970499
8.864999
10.177493
10.219812
9.431839
9.753704
8.644462
9.211898
9.033680
9.714961
9.117723
8.609891
9.664893
9.266734
10.441542
9.442568
8.919835
9.910464
9.485483
9.399652
10.108948
9.060502
10.173917
10.854602
9.260774
10.988712
10.034442
10.736585
9.920597
10.250807
11.157990
11.657476
12.085438
12.753606
16.283989
17.229915
22.060871
24.441481
26.523471
27.036667
31.024814
29.288530
29.740930
28.234720
25.829673
24.747849
22.607446
20.060539
17.642975
14.189482
14.464855
12.928843
11.139512
10.209680
9.787679
10.401607
10.514855
10.823607
9.105802
9.780526
10.450482
##ZVALUE=225
70.916414
78.722835
93.981624
111.639500
119.418502
114.399791
101.301670
77.370405
58.226585
44.630766
31.485558
28.470755
26.416779
28.826594
29.197931
27.514696
22.811890
18.504858
12.593865
11.000633
7.732511
5.687475
5.229712
5.883574
5.571842
6.040931
6.713867
6.499887
8.013844
7.881522
8.808970
9.664893
10.230541
10.304451
9.130836
10.531545
11.586547
10.583997
10.323524
11.164546
10.780692
11.086464
10.079741
10.470748
9.877682
10.976791
10.659695
9.761453
10.317564
10.463595
10.524988
11.077523
10.408759
11.555552
11.204481
10.485649
10.356903
10.488629
10.558963
11.872649
12.509823
11.504889
11.403561
12.033582
12.336969
11.650920
12.009740
13.718605
14.418960
17.089844
20.399690
22.062659
21.934509
26.345849
28.316975
29.160976
27.846694
26.138425
25.626421
25.145411
21.495819
19.330978
16.648769
16.120672
15.962720
14.031529
12.810826
12.462735
10.901690
12.209415
11.516809
11.233687
10.557771
11.502504
10.724664
11.471510
##ZVALUE=230
61.235428
70.134997
107.579827
163.868666
208.251476
255.871415
269.969702
261.686444
230.886936
198.901892
136.033893
93.588829
60.696602
51.870942
45.867562
52.976608
51.129460
52.911639
43.521523
36.100745
27.841926
18.605590
13.505816
8.701682
6.656647
7.313490
6.683469
7.210970
8.665919
8.380413
9.479523
10.124445
8.551478
10.072589
9.575486
10.556579
10.634661
9.814501
10.103583
10.119677
10.829568
11.493564
11.288524
11.353493
9.882450
11.629462
10.993481
11.212826
10.944605
10.611415
11.516809
11.695623
10.020733
11.309981
11.932850
11.703968
12.895465
11.565685
11.540651
13.108850
11.959672
12.286901
13.002753
12.626648
12.591481
13.615489
14.133453
16.254783
17.414689
20.617843
21.162629
23.649931
26.198626
29.773712
31.582713
29.764771
29.068589
27.206540
26.899576
24.958849
24.216771
22.632480
18.843412
17.572641
17.192960
15.774965
15.069842
13.823509
14.304519
14.510751
13.142824
12.083650
12.823939
12.332797
12.486577
13.009906
##ZVALUE=235
21.091700
24.850965
54.308772
114.115477
183.506608
282.856822
366.566777
471.617579
503.735542
498.906970
442.947745
345.692635
253.617764
160.290003
110.630989
86.025596
73.138475
76.580644
84.084868
84.502697
76.219440
65.802932
49.389601
36.167502
24.173856
15.912652
12.415648
8.878708
9.634495
7.870793
8.685589
8.725524
9.245872
10.213852
9.793639
11.085868
10.737777
9.772778
10.639429
10.848641
10.762811
10.520816
10.659695
10.413527
10.702610
10.184646
10.717511
11.816621
12.206435
11.642575
11.253953
12.639761
11.186600
10.555983
13.294816
13.285875
12.951493
13.110638
14.638901
13.870597
14.609694
14.821887
13.345480
15.634894
14.660954
15.025735
15.799999
18.765926
20.158887
21.867752
22.224784
26.714802
28.418899
32.017827
32.800436
34.211874
31.967759
30.785799
30.555725
27.831793
24.145842
22.569895
23.157001
19.371510
19.195676
17.337799
17.174482
16.767979
16.209483
15.688539
15.829802
15.360713
14.658570
15.172958
15.558600
15.639663
##ZVALUE=240
2.048612
2.729893
7.105470
30.491948
63.793659
144.365430
241.089463
410.821438
557.612777
689.162016
797.008872
811.522007
710.973740
613.538623
449.074507
316.618681
183.676481
134.540796
113.268495
100.245476
107.596517
118.117929
110.376477
97.555518
87.489486
63.869953
48.166513
30.327439
24.256706
15.480518
13.081431
11.711717
10.359883
9.685755
10.865927
9.624958
11.200905
11.286736
10.199547
10.622740
10.359883
10.707974
10.960698
10.654926
11.319518
10.849833
11.068583
11.853576
12.699962
10.851622
12.427568
13.202429
11.387467
13.539791
13.091564
13.309717
14.319420
13.263822
13.068914
13.641715
14.551878
15.405416
15.359521
15.205741
14.920831
15.865564
17.496943
17.233491
19.113421
22.711754
24.376512
29.568672
31.867623
33.311844
35.631657
34.879446
30.903816
32.478571
32.158494
28.862953
26.977658
26.245713
24.749637
23.436546
21.208525
20.297766
19.259453
17.393827
18.173456
18.433928
16.981959
16.773939
17.294884
16.814470
18.743873
17.602444
##ZVALUE=245
1.948476
2.048612
2.046824
2.423525
5.990863
16.783476
58.767796
124.365687
273.378491
416.341424
654.257536
815.441012
936.573744
997.054577
968.682766
807.445645
665.747523
452.110767
306.406617
180.550814
125.076771
107.571483
108.619928
123.499632
126.742721
123.395920
110.843778
94.272494
71.642995
53.373575
42.180419
24.115443
18.394589
12.612939
10.283589
10.218620
10.806918
10.845661
10.053515
10.238886
10.499954
9.937882
10.668635
10.891557
10.385513
10.319948
10.712743
11.510849
10.428429
10.460615
10.797977
10.542870
10.511875
10.911822
11.379719
12.129545
11.622906
12.710690
12.991428
12.661815
12.378693
13.051629
13.410449
12.490749
13.167858
13.839602
14.665723
16.618967
16.086698
18.300414
19.780993
23.617744
25.370717
26.855469
28.205514
28.864741
28.174520
28.066635
25.239587
23.378730
22.934675
22.702813
20.082593
19.764900
18.083453
17.640591
16.372800
15.952587
16.730428
15.343428
15.737414
15.237927
15.911460
15.222430
14.979839
15.266538
##ZVALUE=250
1.734495
1.527667
1.626611
1.637936
2.035499
2.176762
2.986789
14.602542
39.087534
91.193914
225.970745
388.889909
655.511022
833.541751
1010.793447
1015.861630
1015.861630
1012.910008
895.645022
615.704656
418.735743
230.584741
146.473646
104.753971
102.299452
120.633841
131.444931
135.503411
135.071874
118.440986
102.591515
80.915689
59.358478
35.815835
25.826693
16.816854
12.663603
10.793805
10.155439
10.235906
9.867549
9.825826
9.871721
8.843541
10.333657
9.692907
10.088682
10.068417
9.185672
9.289980
9.590983
9.510517
8.735657
9.345412
9.681582
9.602904
8.973479
9.912848
9.627938
10.801554
9.694695
10.553598
10.924935
10.943413
11.067986
11.800528
11.374950
13.253689
14.491677
15.729666
18.243790
19.732714
19.786954
23.411512
23.720860
22.789836
24.809837
21.914840
21.153688
20.728707
19.500852
17.435551
17.035604
15.948415
15.299916
14.866590
13.851523
13.758540
14.354587
14.198422
13.740659
13.539791
14.085770
13.463497
13.846755
13.522506
##ZVALUE=255
1.754761
1.571774
1.964569
1.567602
1.867414
1.709461
1.638532
2.018809
2.516508
7.641912
26.517510
89.548826
183.292627
378.498435
566.679835
851.296782
1015.861630
1015.861630
1015.861630
1015.861630
1015.861630
881.642699
562.713742
359.175801
188.957453
121.523738
97.814798
101.851821
123.760700
139.988661
143.608451
141.753554
130.822659
107.124448
84.744692
56.971908
41.016936
24.712682
17.434955
11.854768
9.804964
10.226965
9.570718
9.032488
8.872747
9.521842
8.896589
9.641647
9.154677
8.694530
9.075999
8.466840
9.059906
8.378625
9.108782
9.482503
8.778572
8.976460
8.616447
9.193420
8.301735
9.328723
8.777976
10.111928
9.697676
9.710789
10.951757
11.382699
12.053847
14.228821
14.348626
16.036630
16.897917
18.570423
18.863678
19.051433
19.510984
18.111467
18.067956
16.653538
15.537739
14.817715
13.936758
12.576580
13.482571
13.441443
12.469888
12.180805
11.925697
12.175441
12.017488
11.214614
11.833906
12.387633
11.455417
10.734797
##ZVALUE=260
1.385808
1.320839
1.504421
1.488924
1.372695
1.604557
1.896620
1.780987
2.122521
2.128482
2.580881
3.779531
11.552572
55.565834
121.688843
299.529433
497.971773
811.249614
1015.861630
1015.861630
1015.861630
1015.861630
1015.861630
1015.861630
758.566856
521.128774
291.680694
171.514750
98.391771
87.001920
100.262761
126.122832
143.912435
151.849985
146.648884
133.726597
113.390684
81.743002
63.713789
40.573478
27.851462
17.628670
13.006926
10.747910
10.165572
9.180903
9.536743
9.252429
8.897781
9.121895
8.673668
8.714795
8.651614
8.228421
8.709431
8.493662
8.479953
8.121729
8.360744
8.676648
8.760691
8.634925
8.655787
8.644462
8.609891
8.861423
9.631515
9.810925
10.378957
12.020469
12.689829
14.906526
14.867783
16.491413
16.560555
16.313791
16.605854
15.429854
14.938712
14.034510
13.678670
12.681484
12.165904
12.344718
11.096597
11.469722
11.783838
10.496974
10.929704
10.232925
10.661483
11.068583
9.932518
10.668635
9.992719
10.586977
##ZVALUE=265
1.299977
1.371503
1.194477
1.321435
1.346469
1.446605
1.806617
1.801848
2.019405
1.846552
1.865625
2.233982
2.008677
2.655983
7.153749
36.768913
90.903640
231.721997
410.217643
757.831931
1014.133692
1015.861034
1015.861034
1015.861034
1015.861034
1015.861034
997.003913
740.459561
411.811471
239.739418
138.858557
81.517696
84.849596
112.245679
130.865574
150.349736
156.487823
149.365664
136.224627
110.365748
87.356567
58.133602
40.815473
24.255514
17.324686
11.941791
9.867549
9.544492
9.173751
8.503795
8.549690
8.661747
9.375811
9.223819
8.836985
8.692741
8.063912
8.312464
8.581877
8.173585
8.992553
8.058548
8.484721
8.231997
7.696748
8.795857
9.340644
9.544492
9.858608
11.021495
11.708736
13.344884
13.128519
14.191866
14.460683
14.404655
14.290810
13.608932
13.050437
12.596846
11.759996
11.713505
11.483431
10.733604
10.760427
11.215806
9.859800
9.525418
9.709597
9.494424
10.246634
9.404421
10.080934
10.014772
10.262728
9.702444
##ZVALUE=270
1.238585
1.102686
1.339912
1.255870
1.711845
1.458526
1.393557
1.326799
1.535416
1.594424
1.780987
1.768470
2.003908
1.999736
2.320409
2.350807
3.174543
16.588569
51.903725
166.464448
333.160758
575.099587
975.350738
1015.870571
1015.870571
1015.870571
1015.870571
1015.870571
1015.870571
969.914794
671.547651
353.218913
193.014741
87.938905
70.379972
86.364746
107.117891
133.797526
149.735808
155.337453
153.737664
132.904649
113.240480
81.520677
61.818957
38.010478
26.759505
17.131567
12.625456
9.624958
9.009838
8.535981
8.230805
8.213520
8.730888
8.280873
8.385777
8.499622
8.386970
8.073449
8.242726
8.651614
8.272529
8.325577
8.687973
8.347631
8.494854
8.936524
9.790659
10.370612
10.681748
11.497736
12.478828
14.309883
13.713837
13.843775
12.616515
13.117790
11.722445
11.040568
11.204481
10.407567
10.224581
9.864569
9.427667
9.567738
9.403825
9.650588
9.507537
9.351969
9.123683
9.187460
9.280443
8.955598
9.138584
9.396672
##ZVALUE=275
1.229644
1.181960
1.226664
1.025796
1.180768
1.493692
1.116991
1.443624
1.343489
1.552701
1.414418
1.686811
1.572967
1.797676
1.885891
1.886487
2.456903
2.654791
2.482533
7.870793
29.573441
91.697574
265.666842
498.382449
926.941633
1015.861630
1015.861630
1015.861630
1015.861630
1015.861630
1015.861630
1015.861630
867.843032
468.970537
265.529752
113.330483
66.349506
62.325001
80.542564
107.898712
127.242804
146.324635
151.217580
145.037770
135.931969
106.508732
84.267855
58.797598
41.824579
24.789572
16.689897
11.526942
9.555817
8.626580
8.326769
7.716417
7.906556
8.454919
7.944703
7.883906
7.816553
7.919669
7.916689
8.004904
7.772446
7.909536
8.176565
8.321404
9.174943
9.889603
10.232925
11.776686
12.069941
11.294484
12.954473
13.073683
12.621880
12.207627
11.444688
10.875463
10.042787
10.070801
9.505749
9.085536
9.035468
8.507967
8.394718
8.668900
8.538961
8.360744
8.790493
8.262992
8.498430
8.309484
8.251667
7.334948
##ZVALUE=280
0.982881
1.215935
1.325607
1.150966
1.068711
1.132488
1.245737
1.025796
1.137853
1.407862
1.365542
1.450777
1.491904
1.629591
1.585484
1.512766
1.829863
2.048612
2.081990
2.522469
2.558827
4.397631
18.840432
64.335465
208.776593
387.416482
723.883510
1011.366844
1015.861630
1015.861630
1015.861630
1015.861630
1015.861630
1015.861630
938.970447
630.365014
313.944817
165.181756
66.800714
46.886802
58.109760
75.687766
123.643875
125.169754
144.092441
148.612857
141.706467
128.795505
104.594827
82.417727
56.874752
40.250421
24.573803
16.652942
11.015534
8.709431
7.711649
7.497668
7.389784
7.302761
7.680655
7.714629
7.360578
7.754564
7.556677
7.950664
8.199811
8.537769
8.732677
9.129643
9.621978
10.527968
11.559725
11.452436
11.873841
11.563897
10.665655
11.163950
10.858774
9.614825
9.425879
9.441972
8.953810
8.711815
8.156896
7.984638
8.287430
8.127689
7.883906
8.101463
7.743835
7.879734
8.001924
7.422566
7.784963
7.679462
##ZVALUE=285
1.060963
1.043677
1.042485
0.863671
0.948906
0.851750
1.111627
1.215935
1.194477
1.231432
1.331568
1.377463
1.424551
1.466870
1.485944
1.350641
1.651645
1.771450
1.952648
1.972914
1.997948
2.227426
2.506971
2.693534
9.225607
33.909678
120.335817
255.087018
561.740994
868.144631
1015.871763
1015.871763
1015.871763
1015.871763
1015.871763
1015.871763
1015.871763
779.864788
494.619012
229.752660
114.510655
45.921803
36.970973
53.346753
71.398616
99.606514
118.924975
136.677623
141.804814
138.598680
130.587816
106.163621
86.493492
60.206652
42.375922
25.619864
16.294718
10.502934
8.837581
7.241964
7.192492
7.408857
7.078648
7.434487
7.393956
7.433891
7.622838
7.994771
8.155704
8.944869
9.062886
9.870529
10.367632
10.824800
10.639429
10.583997
10.393858
9.711981
10.192990
9.125471
8.369684
8.927584
8.121729
8.696914
7.983446
8.160472
7.518530
7.660985
7.766485
7.646680
7.630587
7.512569
7.356405
7.350445
7.439852
7.447600
##ZVALUE=290
0.994802
1.048446
0.962615
1.006722
0.958443
1.065731
1.105666
0.978708
1.249909
1.232624
1.147985
1.209974
1.392961
1.405478
1.487732
1.416802
1.469851
1.683831
1.740456
1.803637
1.779795
1.852512
2.008677
2.250671
2.560616
3.015995
4.304647
13.715625
65.859556
159.667730
319.612622
671.302676
990.616679
1015.947461
1015.947461
1015.947461
1015.947461
1015.947461
1015.947461
976.099968
661.588907
333.339572
171.165466
62.464476
33.017993
36.119819
49.011707
70.530772
91.786981
116.016865
130.189657
137.294531
138.463974
123.380423
107.213855
79.406500
60.449839
38.499832
27.596951
15.610456
12.043715
8.668900
7.765889
7.119775
7.423759
7.556677
7.530451
7.733703
7.875562
8.582473
8.933544
9.184480
9.590983
9.713769
10.045767
9.668469
9.722710
9.447932
8.972883
8.532405
8.453727
7.952452
8.208752
8.039474
7.754564
7.573962
7.432699
7.608533
7.367730
7.865429
7.392764
7.181764
7.358789
7.418990
7.847548
7.015467
##ZVALUE=295
0.952482
0.920892
0.899434
0.882745
0.883937
0.901818
1.120567
0.915527
0.947714
1.057982
1.163483
1.174808
1.160502
0.992417
1.089573
1.195669
1.183748
1.274943
1.466870
1.413822
1.644492
1.839995
1.804829
1.827478
1.888871
2.003908
2.385974
2.832413
3.013611
7.487535
26.984811
116.834641
252.382755
572.896600
900.200605
1015.861630
1015.861630
1015.861630
1015.861630
1015.861630
1015.861630
1015.861630
877.116919
466.158986
251.111984
88.847876
40.159822
24.558902
30.404925
46.618581
64.473748
90.083480
107.495785
126.840472
134.468675
129.952431
119.166970
98.997951
80.720782
55.377483
40.049553
24.747849
17.011762
11.009574
9.128451
7.759929
7.639527
7.356405
7.670522
8.334517
8.933544
9.248853
9.788871
9.776950
10.026693
9.812713
9.151697
9.040833
8.827448
8.228421
8.064508
8.231997
7.820725
7.555485
7.290840
7.214546
7.897615
7.514954
7.104874
7.345676
7.119775
7.190704
6.954670
7.041693
7.120967
6.593466
##ZVALUE=300
0.814795
0.908971
1.036525
0.723600
0.879765
0.938773
0.914931
0.825524
0.843406
0.953674
0.965595
0.855923
1.062751
1.082420
1.072884
0.947714
1.254678
1.064539
1.106858
1.282692
1.279712
1.403689
1.535416
1.592636
1.411438
1.949668
1.847744
2.030730
2.076626
2.342463
2.801418
3.736615
14.512539
52.485466
179.128051
357.766747
736.323595
1015.861630
1015.861630
1015.861630
1015.861630
1015.861630
1015.861630
1015.861630
980.056524
663.848519
330.502987
178.259611
64.356923
26.757717
20.308495
26.503801
41.936636
58.070421
81.519485
100.104809
118.775964
126.147866
124.194622
116.001964
96.475482
79.505444
56.641698
41.194558
25.018454
17.503500
10.735989
8.888841
7.654428
7.884502
8.347631
8.465648
8.908510
8.927584
8.615851
8.654594
8.873940
8.312464
7.932782
7.912517
7.667542
7.498860
7.467866
7.349849
7.295609
7.113814
7.141829
6.991625
6.882548
7.069707
6.764531
6.542802
6.590486
6.678700
6.503463
6.503463
##ZVALUE=305
0.805855
0.753999
0.939965
0.903606
0.732541
0.973940
0.788569
0.942945
0.860691
0.887513
0.999570
0.905991
1.034737
1.029968
1.034737
1.031756
1.105666
1.025796
1.225471
1.290441
1.183748
1.265407
1.308918
1.382828
1.441836
1.759529
1.725554
1.576543
1.821518
1.905560
2.161860
2.295971
2.538562
3.233552
5.479455
35.550594
102.138519
292.322636
528.303981
965.856910
1015.861630
1015.861630
1015.861630
1015.861630
1015.861630
1015.861630
1015.861630
847.538710
539.001822
255.526900
127.107501
41.180849
18.822551
18.769503
25.291443
40.248632
56.076646
77.659488
94.116926
111.979842
118.873715
118.203759
108.151436
91.851950
76.300502
54.470897
38.651824
24.062991
16.786456
11.784434
9.587407
8.868575
8.836985
8.811951
8.802414
8.194447
7.933974
7.735491
7.611513
7.102489
7.265806
7.227659
7.187724
7.366538
6.973743
6.907582
6.983876
6.916523
6.799698
7.074475
6.918907
6.553531
6.362796
6.714463
6.346703
6.583929
##ZVALUE=310
0.846982
0.716448
0.821948
0.796914
0.796914
0.819564
0.843406
0.713468
0.892878
0.797510
0.830889
0.790954
0.775456
0.861883
0.877976
0.987649
0.927448
0.951886
1.008511
1.144409
1.088977
1.137853
1.162887
1.395941
1.193881
1.308918
1.432896
1.546741
1.569986
1.617670
1.739860
1.931787
2.004504
2.386570
2.566576
2.835989
3.444552
15.046597
53.520799
186.686516
374.387503
783.742666
1015.859842
1015.859842
1015.859842
1015.859842
1015.859842
1015.859842
1015.859842
1015.859842
755.727887
379.558802
201.155543
68.788528
26.071668
13.820529
16.483665
23.843646
33.340454
51.255822
66.391826
88.122487
101.427436
112.416744
113.614798
103.572607
92.371702
72.094798
55.770874
36.938787
26.531816
17.344952
13.411641
9.909868
8.988976
8.141994
7.981658
7.464886
7.026792
7.114410
6.863475
6.743670
7.058978
6.979704
6.868839
7.117987
7.140636
6.945729
6.919503
6.550550
6.619692
6.476641
6.115437
6.515980
6.301999
6.498694
##ZVALUE=315
0.724792
0.885725
0.859499
0.756979
0.783801
0.845790
0.894666
0.759959
0.907779
0.816584
0.842810
0.953674
0.832677
0.909567
0.856519
0.839829
0.904799
1.133680
1.045465
1.021624
0.947714
1.093745
1.256466
1.164675
1.166463
1.184940
1.313686
1.406670
1.356602
1.349449
1.539588
1.580715
1.826882
2.037883
2.065897
2.170801
2.498627
2.750754
3.428459
6.759763
27.389526
120.263696
276.286602
641.816854
986.034870
1015.861630
1015.861630
1015.861630
1015.861630
1015.861630
1015.861630
1015.861630
979.619622
538.417697
299.977660
109.219551
42.654872
14.179945
12.538433
15.633702
20.669699
33.458471
45.527816
64.209700
80.170631
96.956491
105.771422
107.177496
100.739002
85.124969
70.655942
53.121448
39.271712
25.160909
17.981529
11.750460
9.850860
8.221865
7.503629
7.011890
7.027984
6.654859
7.057786
6.930828
6.614923
6.570816
6.839633
6.700754
6.617904
6.826520
6.559491
6.639957
6.323457
6.593466
6.088614
6.101727
##ZVALUE=320
0.668764
0.767708
0.592470
0.719428
0.681877
0.714660
0.784993
0.898838
0.730753
0.659823
0.908971
0.869632
0.860691
0.915527
0.807643
0.862479
0.778437
0.981688
0.956655
0.966787
0.953674
1.020432
1.013875
1.150966
1.122952
1.187921
1.103878
1.273751
1.206994
1.493692
1.435876
1.527667
1.584888
1.591444
1.773834
1.862645
2.096891
2.165437
2.347827
2.615452
2.851486
3.953576
12.274981
72.149634
185.235739
481.223464
814.563632
1015.861630
1015.861630
1015.861630
1015.861630
1015.861630
1015.861630
1015.861630
1015.861630
677.095652
376.045704
154.222846
66.719651
19.265413
11.275411
11.462569
13.494492
19.753575
27.193427
43.025613
56.891441
77.354908
89.157820
99.940896
101.641417
94.982982
85.904002
66.117644
51.235557
34.923553
24.736524
15.997887
11.816621
8.500814
7.288456
6.833673
6.648898
6.601810
6.539822
6.511807
6.461740
6.495714
6.128550
6.123781
6.315708
6.398559
6.194711
5.955696
6.293654
5.974770
##ZVALUE=325
0.687838
0.861883
0.821948
0.757575
0.865459
0.538826
0.634789
0.687838
0.793934
0.900626
0.854731
0.798702
0.831485
0.983477
0.964999
0.686646
0.800490
0.806451
0.958443
0.926852
0.891685
0.930429
0.946522
1.162887
1.062751
1.130700
1.205802
1.275539
1.324415
1.289845
1.323819
1.326799
1.399517
1.470447
1.401901
1.591444
1.761913
1.778603
1.935959
2.119541
2.336502
2.518892
2.825856
3.204942
6.510615
43.501854
119.440556
324.088931
591.210723
1015.888453
1015.888453
1015.888453
1015.888453
1015.888453
1015.888453
1015.888453
1015.888453
830.916762
497.644544
211.640596
98.271966
27.389526
12.541413
9.655952
10.265708
13.428926
17.947555
28.251410
39.464831
57.704449
71.084499
86.796880
94.104409
94.777942
89.133978
76.290965
62.874556
46.088696
33.202767
20.838976
14.826655
10.059476
8.314848
7.054806
6.801486
6.696582
6.513000
6.299615
6.054640
6.385446
5.970597
6.134510
5.944967
5.916953
6.259680
6.070733
##ZVALUE=330
0.653863
0.655651
0.738502
0.729561
0.842810
0.639558
0.588894
0.730753
0.624657
0.684857
0.709891
0.625849
0.679493
0.704527
0.870824
0.837445
0.865459
0.697970
0.895858
0.894666
0.856519
0.991821
0.794530
0.758767
0.934601
1.034737
1.182556
1.067519
1.176000
1.104474
1.104474
1.299977
1.252890
1.275539
1.390576
1.302958
1.344681
1.471639
1.661777
1.616478
1.817942
2.086759
2.178550
2.321601
2.519488
2.976656
3.898740
18.467903
62.095523
218.205452
434.788465
895.477533
1015.861630
1015.861630
1015.861630
1015.861630
1015.861630
1015.861630
1015.861630
998.967886
670.783520
305.794477
149.754882
48.000813
17.435551
9.339452
9.293556
9.691715
12.130737
18.299818
25.860667
39.240718
52.249432
69.739819
80.769658
89.015961
89.564919
82.616806
72.185993
56.015849
43.367743
29.272437
21.164417
14.722943
10.947585
8.190870
7.228851
6.459951
6.178617
5.930662
5.956888
5.531907
5.860925
5.983710
5.414486
5.647540
##ZVALUE=335
0.732541
0.684857
0.690818
0.733733
0.550747
0.734925
0.633597
0.688434
0.806451
0.864863
0.762939
0.794530
0.794530
0.636578
0.799894
0.608563
0.923872
0.835657
0.818968
0.838637
0.738502
0.760555
0.893474
0.970960
0.784993
0.980496
0.898838
0.973940
0.872612
0.945926
1.209974
1.352429
1.190901
1.143813
1.256466
1.399517
1.170635
1.437664
1.464486
1.357794
1.655817
1.758933
1.856685
1.946688
2.122521
2.484918
2.669692
2.866983
3.469586
8.820891
34.140944
141.389966
306.304693
691.684484
1015.861630
1015.861630
1015.861630
1015.861630
1015.861630
1015.861630
1015.861630
1015.861630
833.437443
424.543619
219.572783
70.193410
26.187897
10.207891
9.177923
9.191632
9.991527
12.406707
16.507506
25.989413
35.579801
51.927567
63.288808
75.409412
81.664920
82.574487
77.790618
66.056848
55.677891
42.085648
32.820702
21.190643
15.318990
10.430813
8.195639
6.871819
6.337762
5.731583
5.620718
5.563498
5.345941
5.286932
##ZVALUE=340
0.717640
0.719428
0.846982
0.896454
0.733733
0.775456
0.685453
0.593662
0.730753
0.845790
0.757575
0.726581
0.829697
0.784993
0.658631
0.762939
0.804663
0.781417
0.713468
0.890493
0.866652
0.794530
0.863671
0.810623
0.859499
0.968575
0.911951
0.886917
0.941753
0.952482
1.078844
1.113415
1.192689
1.138449
1.063943
1.230836
1.234412
1.220703
1.341701
1.472831
1.531839
1.605749
1.441836
1.579523
1.803637
2.086759
2.069473
2.314448
2.535582
3.018975
3.187656
4.811883
17.631650
93.723536
229.612589
574.441552
956.432819
1015.889645
1015.889645
1015.889645
1015.889645
1015.889645
1015.889645
1015.889645
1008.066535
549.538732
295.976400
110.827684
39.857626
12.434721
9.620786
9.224415
8.985996
10.071993
11.898875
16.988516
23.011565
34.374595
45.663714
60.732961
69.831610
77.409744
77.553988
72.392821
65.404773
52.422881
41.647553
29.929876
22.371411
14.357567
10.627508
7.808805
6.715655
5.999804
5.992651
5.533695
##ZVALUE=345
0.627637
0.706911
0.631809
0.473857
0.660419
0.652671
0.712872
0.737906
0.782609
0.688434
0.707507
0.739694
0.744462
0.699759
0.750422
0.613928
0.782609
0.743866
0.761747
0.783801
0.631809
0.785589
0.940561
0.767708
0.824928
0.814795
0.928640
0.801682
0.888705
0.800490
1.011491
0.951886
1.072884
0.988841
1.067519
1.197457
1.240969
1.084805
1.328588
1.316667
1.282692
1.188517
1.509786
1.441836
1.654625
1.676679
1.747608
1.732707
1.847744
2.025962
2.228618
2.600551
2.958775
3.431439
7.702708
50.268769
144.018531
389.961004
689.697862
1015.861630
1015.861630
1015.861630
1015.861630
1015.861630
1015.861630
1015.861630
1015.861630
733.069777
409.317613
160.280466
64.581633
18.997788
10.694861
9.422898
8.786917
8.442998
8.873940
10.742545
14.223456
21.546483
30.276775
43.083429
53.348541
63.881874
69.727898
70.783496
68.627000
61.288476
52.808523
40.014982
30.538440
20.253658
15.123487
10.303855
8.017421
6.611943
##ZVALUE=350
0.525713
0.621676
0.756979
0.660419
0.705719
0.768900
0.712872
0.698566
0.654459
0.742674
0.683665
0.778437
0.873804
0.776649
0.744462
0.675917
0.776649
0.702739
0.917912
0.707507
0.861883
0.888705
1.014471
0.751615
0.948906
0.848770
0.905991
0.747442
0.824928
1.114607
1.053810
0.957847
0.851750
0.878572
1.153946
0.983477
1.052618
1.062751
1.329780
1.221895
1.190901
1.090765
1.196861
1.324415
1.520514
1.480579
1.651645
1.613498
1.604557
1.827478
1.958609
1.897812
2.168417
2.549887
2.730489
3.181696
5.461574
19.983649
95.797777
229.069591
567.483902
951.339006
1015.861630
1015.861630
1015.861630
1015.861630
1015.861630
1015.861630
1015.861630
958.461761
485.104918
262.755752
94.782710
34.449697
11.551976
8.927584
8.233786
7.557869
7.404685
8.126497
10.097623
13.136864
19.779801
26.007891
37.406683
46.016574
56.728721
63.006878
65.901875
63.427687
56.699514
49.730539
37.956834
29.472709
20.250678
15.168786
##ZVALUE=355
0.786781
0.683665
0.815988
0.718832
0.799894
0.884533
0.776649
0.686646
0.658631
0.755787
0.704527
0.868440
0.718832
0.720620
0.787973
0.772476
0.619888
0.829697
0.893474
0.848770
0.897646
1.187921
0.859499
1.104474
0.916719
0.935793
0.932813
0.972748
1.073480
0.890493
0.910759
0.995994
0.884533
1.015663
1.005530
0.975728
1.139641
1.106858
1.180768
1.286864
1.116991
1.333952
1.299977
1.291633
1.432896
1.340508
1.439452
1.471639
1.606941
1.756549
1.812577
1.744628
1.758933
2.279878
2.436638
2.667904
2.747774
3.259778
3.486872
11.935830
46.294928
182.165504
374.200940
795.430541
1015.861630
1015.861630
1015.861630
1015.861630
1015.861630
1015.861630
1015.861630
1015.861630
739.579797
323.935747
151.075721
41.562915
14.929771
8.656979
8.004904
7.832646
7.042885
6.993413
7.447600
8.892417
11.767745
17.468929
23.296475
32.936931
40.877461
49.721003
56.203604
59.483647
59.039593
52.564740
46.635866
37.341714
##ZVALUE=360
0.723600
0.658631
0.715852
0.722408
0.648499
0.727773
0.561476
0.650883
0.963807
0.834465
0.856519
0.750422
0.891685
0.921488
0.763535
0.743866
0.745654
0.859499
0.786781
0.909567
0.822544
0.903606
0.799894
1.043677
0.838637
0.859499
1.070499
0.936985
0.987649
1.123548
0.876784
1.053810
0.981688
1.001954
1.026988
1.218915
1.144409
1.055598
1.178980
1.096725
1.039505
1.276731
1.220703
1.415610
1.252890
1.452565
1.303554
1.583695
1.401901
1.612902
1.765490
1.671910
1.831651
1.927614
2.075434
2.098680
2.306700
2.563000
2.795458
3.324747
3.470778
5.616546
18.984675
90.971589
223.777890
559.948683
928.226709
1015.861630
1015.861630
1015.861630
1015.861630
1015.861630
1015.861630
1015.861630
919.363499
445.408821
226.053596
78.236461
26.691556
9.533763
8.175969
7.586479
7.068515
6.732941
6.573796
6.558895
7.263422
10.040998
13.305545
19.115806
26.289821
35.778880
42.789578
50.861835
53.116679
53.628683
##ZVALUE=365
0.735521
0.848770
0.673532
0.838637
0.747442
0.784993
0.692606
0.824928
0.753999
0.717640
0.760555
0.758767
0.589490
0.674725
0.722408
0.686646
0.810623
0.739694
0.822544
0.859499
0.665784
0.836849
0.839829
0.922680
0.681877
0.774860
0.934601
0.871420
0.834465
0.967979
0.813603
0.991821
1.073480
0.989437
0.937581
1.122952
0.997782
1.139641
1.156926
1.143813
1.263618
1.147985
1.206994
1.193881
1.278520
1.361966
1.408458
1.246929
1.446605
1.595616
1.631975
1.399517
1.542568
1.531839
1.902580
1.825690
1.932979
2.016425
2.180934
2.492666
2.808571
3.238916
3.528595
4.215837
8.568764
51.432848
141.119957
377.002954
708.476901
1015.861630
1015.861630
1015.861630
1015.861630
1015.861630
1015.861630
1015.861630
1015.861630
620.141029
327.456594
113.904476
41.757822
11.096597
7.809997
7.361770
6.671548
6.387830
6.032586
5.827546
5.968809
6.380677
8.056760
11.702776
15.625954
23.285747
29.823780
38.454533
##ZVALUE=370
0.610948
0.742674
0.679493
0.589490
0.654459
0.690818
0.844598
0.728965
0.796914
0.658631
0.646710
0.744462
0.827909
0.798702
0.734925
0.677705
0.969768
0.845790
0.789762
0.869632
0.793934
0.777841
0.698566
1.000762
0.901818
0.937581
0.743866
0.790954
0.927448
0.977516
0.928640
0.908971
0.903606
0.987649
0.949502
1.010895
0.915527
1.056790
1.036525
1.099706
1.147985
1.096725
1.225471
1.108646
1.042485
1.164675
1.152754
1.236796
1.195669
1.257658
1.382828
1.344681
1.512766
1.516938
1.363754
1.586676
1.706481
1.678467
1.818538
2.009869
2.213717
2.309680
2.524853
2.688766
3.027916
3.442764
4.921556
25.335550
88.141561
296.041965
564.137697
1015.861630
1015.861630
1015.861630
1015.861630
1015.861630
1015.861630
1015.861630
1015.861630
784.397721
442.124009
166.580677
70.830584
19.948483
8.905530
6.848574
6.563663
6.288886
5.754828
5.459785
5.323887
5.322695
5.735755
7.545948
9.780526
14.518499
##ZVALUE=375
0.658631
0.599623
0.611544
0.547767
0.619888
0.721812
0.515580
0.679493
0.821948
0.561476
0.709891
0.768900
0.731945
0.635982
0.641942
0.588894
0.719428
0.663996
0.674725
0.668764
0.673532
0.740886
0.732541
0.821948
0.775456
0.727773
0.911951
0.759959
0.667572
0.814795
0.803471
0.861883
0.808835
0.778437
0.875592
0.782609
0.779629
1.163483
0.857711
0.908971
0.989437
0.944734
0.890493
0.859499
0.892878
1.030564
1.095533
1.128912
1.051426
1.097918
1.118779
1.242757
1.305938
1.249909
1.215935
1.291633
1.260638
1.369715
1.456738
1.614690
1.843572
1.794696
1.953840
2.098680
2.107620
2.310872
2.662539
3.223419
3.899932
12.788773
45.499802
173.966885
386.624932
871.787667
1015.861630
1015.861630
1015.861630
1015.861630
1015.861630
1015.861630
1015.861630
957.955718
609.197617
296.544433
144.307613
40.886998
13.802648
7.001758
6.484985
5.457997
5.490780
5.212426
4.997849
4.802942
4.796982
5.060434
##ZVALUE=380
0.552535
0.547767
0.510812
0.607967
0.637770
0.651479
0.496507
0.775456
0.693798
0.678897
0.624657
0.733733
0.512600
0.658631
0.597835
0.732541
0.500679
0.571609
0.545979
0.687838
0.827909
0.510812
0.729561
0.658631
0.608563
0.732541
0.642538
0.657439
0.799894
0.686646
0.514984
0.834465
0.586510
0.756979
0.796914
0.745654
0.803471
0.779629
0.762939
0.795722
0.948906
0.850558
0.912547
0.874996
0.893474
0.979900
0.942945
0.928640
1.038909
1.052618
0.817776
0.893474
1.086593
1.055598
1.073480
1.167655
1.124740
1.370907
1.498461
1.388788
1.423955
1.320839
1.513958
1.796484
1.736879
2.164841
2.181530
2.393723
2.992749
3.429651
3.853440
6.458759
24.415851
120.463967
285.938978
695.473552
1015.853882
1015.853882
1015.853882
1015.853882
1015.853882
1015.853882
1015.853882
1015.853882
886.432528
423.321724
212.457776
68.814754
24.266839
7.753968
6.026626
5.712509
5.275607
5.094409
4.886985
4.581809
##ZVALUE=385
0.475645
0.534654
0.539422
0.570416
0.555515
0.680685
0.594854
0.673532
0.615716
0.608563
0.426769
0.584722
0.414848
0.638962
0.615716
0.704527
0.465512
0.483990
0.698566
0.631809
0.472665
0.727773
0.622869
0.691414
0.794530
0.746846
0.652671
0.748634
0.896454
0.726581
0.738502
0.613928
0.668764
0.621676
0.703931
0.736713
0.822544
0.922680
0.877976
0.739694
0.832677
0.838637
0.720620
0.649691
0.755787
0.851750
1.033545
0.910759
0.870824
0.928640
0.909567
1.051426
1.022816
1.061559
1.022816
0.986457
1.111627
1.261830
1.202822
1.222491
1.422763
1.179576
1.407862
1.357794
1.485944
1.616478
1.798868
2.036691
2.297759
2.619624
2.777576
3.318787
3.600717
4.317760
11.994839
72.298646
188.791752
471.469760
843.883753
1015.861630
1015.861630
1015.861630
1015.861630
1015.861630
1015.861630
1015.861630
1015.861630
616.053939
342.187881
134.293437
49.634576
10.890961
6.317496
5.377531
5.144477
5.144477
##ZVALUE=390
0.477433
0.489950
0.574589
0.643730
0.658631
0.479817
0.584722
0.528693
0.457764
0.486970
0.491738
0.589490
0.720620
0.599623
0.466704
0.610948
0.632405
0.649691
0.701547
0.619888
0.632405
0.725985
0.784993
0.753999
0.560880
0.675917
0.702739
0.671744
0.624657
0.798702
0.751615
0.709891
0.709891
0.651479
0.666976
0.984669
0.781417
0.806451
0.802875
0.722408
0.779629
0.790954
0.875592
0.796914
0.790954
0.931621
1.007915
0.831485
0.836849
0.915527
0.928640
0.914931
0.913739
0.951886
1.103878
1.179576
1.129508
1.378655
1.205802
1.263618
1.293421
1.262426
1.380444
1.297593
1.508594
1.515746
1.571774
1.919866
2.233982
2.446771
2.496839
2.923608
2.857447
3.152490
3.343821
3.635883
6.185770
40.479898
127.037764
379.209518
705.913901
1015.861630
1015.861630
1015.861630
1015.861630
1015.861630
1015.861630
1015.861630
1015.861630
895.216465
508.184433
198.689699
87.858438
23.393631
8.175969
5.506873
##ZVALUE=395
0.594854
0.676513
0.584722
0.428557
0.523925
0.553727
0.598431
0.561476
0.594854
0.577569
0.641942
0.596642
0.450611
0.464916
0.644922
0.630617
0.523925
0.478625
0.600815
0.682473
0.681877
0.553727
0.521541
0.774860
0.629425
0.640750
0.675917
0.612736
0.613928
0.632405
0.701547
0.791550
0.693798
0.660419
0.827909
0.824928
0.856519
0.846982
0.761747
0.817776
0.921488
0.828505
0.826716
0.794530
0.860691
0.752807
0.880957
0.909567
0.738502
0.829697
0.900626
1.176000
0.985861
0.881553
0.997782
1.163483
1.101494
1.001954
1.177788
1.049638
1.156926
1.235604
1.324415
1.254678
1.291633
1.466870
1.469851
1.927614
1.903772
2.034903
2.397895
2.484918
2.676845
2.779961
2.494454
2.796650
2.858639
3.102422
4.116893
22.552609
86.734891
292.247534
543.566942
980.095863
1015.861630
1015.861630
1015.861630
1015.861630
1015.861630
1015.861630
1015.861630
1015.861630
695.236921
297.683477
138.230920
39.952993
##ZVALUE=400
0.573993
0.586510
0.585914
0.512600
0.480413
0.453591
0.512600
0.568628
0.537634
0.447631
0.577569
0.708699
0.623465
0.581741
0.544786
0.562668
0.524521
0.602603
0.552535
0.528693
0.665784
0.708699
0.519753
0.621676
0.769496
0.644922
0.568628
0.745654
0.498891
0.684857
0.556707
0.617504
0.712872
0.633597
0.678897
0.725985
0.795722
0.802875
0.858903
0.810623
0.854731
0.808835
0.738502
0.953674
0.913739
0.890493
0.931621
0.787973
0.826716
0.889897
0.968575
0.877976
0.967979
1.017451
1.038909
0.959635
1.012683
0.907779
1.089573
1.144409
1.030564
1.146793
1.056790
1.281500
1.330972
1.505613
1.528859
1.700521
1.995564
2.077818
2.200603
2.504587
2.269745
2.318621
2.242923
2.234578
2.457500
2.469420
2.667904
3.334880
3.587604
11.463761
44.594407
170.140862
363.546610
812.221766
1015.861630
1015.861630
1015.861630
1015.861630
1015.861630
1015.861630
1015.861630
1015.861630
896.914005
439.130664
##END
