##TITLE=KDZ0102
##FORMAT=SPECTACLE-ASCII V-1.2
##DATA TYPE=ULTRAVIOLET SPECTRUM
##SECOND TYPE=ULTRAVIOLET SPECTRUM
##DATE=03/22/18
##TIME=12:30:20
##SPECTROMETER/DATA SYSTEM=SPECTACLE
##XUNITS=NM EM
##YUNITS=ENERGY
##YFACTOR=1
##FIRSTX=220
##LASTX=410
##NPOINTS=96
##3DDATA=Equidistant
##ZUNITS=NM EX
##FIRSTZ=210
##LASTZ=400
##ZPOINTS=39
##XYDATA=(Y..Y)
##ZVALUE=210
2.748966
2.614856
2.406836
2.300739
3.715754
2.738833
3.674626
3.482699
3.556609
3.404617
2.626777
2.115965
2.602935
2.589822
2.548695
2.439618
2.928972
2.913475
3.219843
3.771782
3.434420
3.708601
4.249811
4.323721
4.285574
4.400611
5.091429
5.271435
5.260706
4.889965
4.792809
5.290508
6.319880
6.325841
6.090999
5.808473
6.796718
6.582737
7.329583
7.004738
6.827712
6.877780
7.320642
7.277727
7.478595
7.723570
7.031560
8.529425
8.045435
8.906722
8.137822
7.668734
8.131862
8.796453
9.536743
8.721948
9.336472
9.528995
9.744763
9.749532
10.188818
9.050965
9.691715
10.536909
10.066628
10.785460
10.591745
13.917685
14.255643
18.524528
20.137429
23.457408
27.528405
32.038689
35.457611
34.869909
33.772588
34.327507
34.287572
31.996965
27.829409
25.480986
24.946928
21.281838
16.928911
14.120936
11.642575
10.775924
10.028481
9.216666
9.882450
8.843541
9.360909
9.206533
10.823607
10.880828
##ZVALUE=215
9.755492
10.008812
8.766651
7.968545
7.153749
6.106496
5.662441
6.395578
6.435513
6.058812
5.701780
5.160570
4.889965
3.789663
2.835989
3.945827
2.942681
3.273487
3.763437
4.277825
3.488660
3.743768
4.864931
4.142523
4.398823
4.749894
5.385876
5.292892
4.880428
5.367994
5.047917
6.384850
5.913973
6.125569
6.553531
6.875992
6.525517
7.502437
7.156730
7.335544
8.201599
7.515550
7.558465
7.752776
8.404851
7.017851
7.737875
8.812547
8.525848
8.378625
9.157658
9.105802
9.394884
8.750558
9.477735
9.997487
9.457469
10.705590
9.783506
10.666847
9.852648
10.044575
10.742545
9.670854
9.706616
11.034608
11.884570
12.517571
15.102625
16.233921
19.819736
22.224784
25.412440
28.509498
30.592680
30.636787
33.275485
32.732487
29.461980
30.264854
28.143525
24.379492
21.785498
18.457770
16.105771
13.675690
12.299418
10.827780
11.306405
10.493994
10.104775
9.312630
9.660721
9.373426
9.721518
9.250641
##ZVALUE=220
34.129620
34.253597
36.784410
35.481453
30.989647
23.863912
19.630790
15.368462
12.545586
12.381673
14.043450
13.171434
13.011694
11.601448
9.336472
8.015633
5.976558
5.520582
4.475713
4.284978
4.794598
3.863573
4.487634
4.982948
5.765557
5.694628
6.253719
5.574822
5.787611
6.090999
6.126761
6.417632
6.284714
6.891489
7.769465
7.874966
7.613897
8.389950
8.272529
7.415414
8.609891
9.844899
8.314848
8.501410
9.262562
9.979606
8.189678
8.423924
9.107590
9.644628
9.507537
9.663701
10.844469
8.852482
9.789467
10.631680
9.675622
10.134578
10.652542
11.173487
10.389686
11.731982
11.461973
11.404753
11.426806
12.290478
12.199879
13.010502
15.016794
16.241670
20.020604
21.298528
25.633574
26.844740
30.320883
31.538606
31.829476
29.585958
28.496981
26.470423
26.596785
21.695495
20.834804
17.576814
15.724897
14.485717
13.038516
11.409521
11.221766
9.667873
9.866953
8.836985
9.939671
10.103583
10.122657
9.093881
##ZVALUE=225
59.569478
60.013533
78.049898
97.552538
100.178719
97.027421
88.290572
68.013668
52.569509
39.715767
29.616952
25.835633
23.589730
25.805831
24.573803
26.495457
20.010471
17.210841
13.158917
9.278655
7.454753
5.028844
4.764795
4.781485
5.049706
5.662441
5.356669
5.912781
5.585551
6.960630
6.821752
7.127523
7.232428
8.073449
7.954836
8.022785
8.255839
8.966923
7.395744
8.183718
8.748770
8.610487
9.244680
8.802414
9.101629
9.655952
9.772778
9.850860
9.704828
10.257959
10.819435
10.108948
9.885430
10.387897
11.249781
9.780526
10.540485
11.187792
11.569858
11.982918
11.916757
11.958480
12.360811
11.763573
12.226701
11.912584
13.402700
12.730956
15.015602
18.502474
19.691586
24.368763
22.856593
26.322603
27.840734
27.969480
27.894974
26.193857
25.394559
23.173690
23.170710
21.354556
20.236969
17.145872
14.367700
13.920665
12.314916
12.354851
11.281967
10.477901
10.806918
11.441708
11.433959
10.959506
11.938810
10.983944
##ZVALUE=230
55.001974
60.629845
89.144707
143.874884
180.704594
219.223499
231.702924
229.749680
212.182999
162.980556
117.175579
86.090565
59.952736
47.823787
45.535564
48.008561
51.431656
49.629807
43.467879
36.764741
26.862621
19.219518
12.771487
9.232759
7.894635
6.783605
6.286502
7.054806
6.475449
7.373691
6.741881
7.570982
7.839799
7.593632
8.300543
8.332729
8.316636
8.152723
8.056760
9.425879
9.720922
9.006858
10.208488
10.385513
10.073781
9.919405
10.642409
11.376739
10.018945
10.347962
11.254549
10.572672
11.254549
11.270642
12.663603
12.093782
11.558533
12.421608
12.245774
13.275743
13.495684
13.375878
14.511943
14.285445
14.412999
15.158653
14.721751
17.335415
17.858744
19.135475
22.146702
23.915768
25.496483
29.542446
29.304624
29.722452
31.286478
28.549433
29.003620
27.287602
24.393797
21.204948
20.610690
18.953681
18.066764
16.957521
14.611483
16.539693
14.187694
14.851689
13.602972
12.482405
14.597774
14.660954
13.210773
13.762712
##ZVALUE=235
18.584728
21.647811
44.668913
107.264519
167.929530
265.324712
336.403847
430.764556
464.882851
449.995995
400.354862
323.649645
219.848752
159.653425
105.541945
83.613992
72.248578
75.482726
80.325603
82.804561
77.235699
65.004826
53.588748
35.985708
25.872588
15.502572
12.738705
8.316636
7.316470
7.698536
8.204579
7.495880
8.893609
9.176731
7.980466
8.974671
9.295940
9.531975
8.719563
9.251833
10.247827
10.189414
9.872913
10.363460
10.674596
9.602904
10.742545
10.131598
11.669993
10.213852
11.967421
12.539625
12.180805
12.224913
10.262728
12.713671
11.928678
13.303757
12.318492
13.052821
13.488531
13.420582
13.420582
15.642643
14.758706
15.898943
16.477704
18.576980
18.379688
21.246672
22.780895
25.222898
29.226542
29.477477
32.237768
32.635927
31.225681
29.863715
28.946996
26.040673
27.855635
23.738742
20.996928
19.876957
20.681620
18.785596
18.520951
17.631650
17.162561
16.137958
15.274882
15.833974
15.425682
16.428828
15.231967
15.359521
##ZVALUE=240
2.180934
2.599955
7.514954
25.470853
58.509707
130.478740
217.754841
376.794934
497.915745
652.236938
720.858574
721.804500
640.057921
549.149513
390.380621
268.910527
165.544748
123.222470
95.835924
97.084641
109.608769
113.361478
108.174682
96.991658
77.909827
63.819885
47.975779
32.160878
21.663904
14.336705
10.912418
9.010434
10.048747
9.112954
9.656549
10.750890
9.710789
8.520484
9.340644
11.049509
9.293556
9.365678
9.665489
9.894967
10.792613
10.690689
11.010766
10.259748
10.874867
10.194778
11.727810
11.286736
11.256933
11.306405
12.263656
11.717677
11.594892
13.228655
12.574792
13.799667
13.730526
14.351606
11.939406
14.721751
15.182495
14.703870
14.904737
17.151833
18.182993
21.647811
23.583770
27.139783
27.843714
30.008554
30.488968
32.500625
33.019781
27.810931
29.005408
26.758909
25.476813
23.338795
23.381710
21.180511
20.927787
18.662810
18.369555
18.763542
18.071532
18.361807
16.405582
18.455982
16.900897
16.506910
17.749667
18.326640
##ZVALUE=245
1.510978
1.886487
1.718998
1.627803
5.363822
14.563799
55.951476
109.393001
257.598758
384.603739
592.097640
738.976598
841.994882
888.671875
842.458010
703.364015
573.360920
377.169847
260.793567
154.162645
112.759471
101.378560
109.213591
119.877458
127.279758
118.783712
108.065605
93.236566
67.776442
54.385662
40.144920
23.221970
16.249418
11.728406
10.165572
9.279847
8.493662
8.798838
8.537769
8.704662
8.773804
8.351803
9.318590
8.343458
8.877516
9.347796
9.561777
9.562969
9.097457
10.156631
10.008812
9.907484
11.179447
9.771585
10.113716
10.043979
10.029674
10.620952
10.547638
11.792779
11.983514
11.941791
12.639761
12.759566
13.179779
12.978911
13.923645
15.032887
16.195774
17.424822
18.905997
22.423863
23.376942
25.688410
26.010871
25.047660
26.730895
25.997758
26.279688
23.335814
22.100806
20.845532
20.520687
18.132925
18.792748
17.370582
16.915798
16.027689
18.280745
16.435981
15.053749
16.750693
16.123652
16.088486
15.979409
14.600754
##ZVALUE=250
1.618862
1.934767
1.754761
1.671910
1.789927
1.828671
3.132820
9.366870
41.545630
94.030499
227.677822
376.072526
552.338958
786.478519
934.761763
1015.861630
1015.861630
918.495655
766.607523
534.352660
358.142853
232.921839
129.548907
98.996758
104.737878
115.565658
129.167438
134.283900
129.998922
116.462708
103.932619
77.086687
57.583451
36.824942
23.398995
14.517903
10.456443
8.902550
8.936524
8.022785
8.349419
8.494854
8.880496
8.152723
8.167624
8.728504
7.743835
8.883476
8.628964
9.259582
8.209944
7.888675
8.627772
8.507967
9.211898
9.176731
9.449720
8.387566
10.106564
10.070801
9.721518
10.644794
9.346604
10.394454
10.019541
10.523796
11.601448
13.449788
14.085770
15.506744
16.300678
18.561482
20.366907
20.839572
22.986531
22.460818
22.552609
20.946860
20.528436
19.962788
19.837618
17.649531
17.418861
16.759634
16.324520
15.896559
15.342832
14.691949
15.275478
15.613437
14.679432
14.570951
13.065934
14.468431
13.997555
13.978481
##ZVALUE=255
1.312494
1.287460
1.332760
1.926422
1.605749
1.654625
1.899600
1.780987
1.997948
5.782843
30.075908
72.770715
152.947903
328.995585
510.231853
791.420937
981.457829
1015.861630
1015.861630
1015.861630
988.376737
788.746476
495.924950
318.886638
164.291859
112.086535
90.198517
99.531412
120.490789
130.597949
139.733553
138.752460
123.946667
101.502538
80.868602
54.652691
38.610697
23.468733
14.468431
10.140538
8.401871
7.768869
7.549524
7.247925
7.723570
8.148551
7.977486
8.287430
8.395910
7.706881
7.880926
8.518696
8.287430
8.500814
8.531809
8.542538
8.787513
8.277893
8.161664
8.435845
8.582473
9.094477
9.130836
9.244680
8.905530
9.403825
10.832548
11.405945
12.051463
12.924671
14.818907
16.274452
16.318560
18.100739
18.194914
19.877553
19.009709
19.127727
17.509460
16.979575
17.214417
14.900565
14.933944
14.662743
14.480948
13.591647
13.633966
13.362765
13.054609
13.320446
13.523698
13.301969
12.089610
12.781620
12.940764
12.829900
##ZVALUE=260
1.180768
1.311898
1.480579
1.439452
1.479983
1.483560
1.581907
1.838803
1.808405
1.846552
2.149940
3.186464
11.281967
49.203634
110.062957
267.393589
445.001721
733.305812
967.925787
1015.846729
1015.846729
1015.846729
1015.846729
993.725657
670.109987
460.798740
252.195001
156.533718
91.874599
82.252622
93.991756
120.524764
135.158896
146.828890
142.042637
125.843883
106.858611
80.236793
59.796572
39.068460
24.710894
14.178753
10.514855
8.632541
7.928610
7.920861
8.270741
8.360744
7.821918
7.788539
8.099675
7.561445
7.761717
8.203983
7.391572
7.358789
7.765889
7.646680
9.131432
8.557439
8.451939
8.515716
8.400679
8.418560
8.336902
9.498000
9.214878
10.713935
10.276437
12.164712
13.069510
14.012456
14.262795
16.324520
16.552806
17.345548
16.689897
16.248822
15.464425
15.008450
14.542937
13.781786
13.741851
12.203455
12.550950
12.010932
12.108684
12.716651
12.475848
11.990666
12.025833
11.665821
11.501908
11.358857
11.994839
11.329651
##ZVALUE=265
1.185536
1.250505
1.549721
1.060963
1.379848
1.290441
1.565814
1.460910
1.753569
1.500845
1.772642
1.947880
2.022982
2.241731
7.721782
27.031898
99.018812
198.105574
350.276828
666.137934
943.240523
1015.861630
1015.861630
1015.861630
1015.861630
1015.861630
932.817459
590.314865
387.330651
198.832750
116.549730
75.485706
79.372525
106.418729
126.303434
143.282413
149.765611
143.590569
129.528642
102.629662
83.006620
55.468678
38.605928
23.184419
14.892817
10.015965
9.032488
7.839799
8.340478
8.187890
8.567572
8.202791
8.418560
8.648634
8.049607
8.042455
8.575916
8.498430
8.460879
7.981658
9.061694
8.169413
8.442998
8.608699
8.216500
8.564591
9.405613
10.114908
10.254979
10.968447
12.396574
12.505651
14.189482
14.730692
14.958978
15.190840
14.819503
14.239550
14.255643
12.637973
13.096929
12.153983
11.550784
11.174679
11.184812
11.677742
11.393428
11.402965
10.654926
11.347532
11.137724
11.239648
10.989904
10.417700
10.529757
10.484457
##ZVALUE=270
1.042485
1.179576
1.207590
1.197457
1.304746
1.214743
1.329780
1.279712
1.438856
1.412630
1.614690
1.734495
1.660585
1.982450
2.066493
2.322793
3.291965
16.063452
49.666762
155.603886
303.186774
514.853597
915.901661
1015.861630
1015.861630
1015.861630
1015.861630
1015.861630
1015.861630
909.370780
563.089848
352.247953
166.417956
92.076659
65.792799
78.014731
106.052756
126.619935
145.582557
148.470998
142.660737
132.665634
106.714964
82.953572
56.125522
38.923621
24.856925
17.916560
11.913776
10.154843
8.911490
8.884668
9.399652
8.470416
8.965731
9.028912
9.322762
9.400845
8.656979
9.100437
8.561611
9.040833
8.495450
9.527802
8.918643
9.174943
9.554625
9.380579
10.458827
11.425614
11.595488
12.755990
14.009476
14.056563
14.487505
15.399456
14.292598
13.590455
13.163686
12.368560
11.943579
11.309981
11.722445
10.996461
10.934472
11.199713
10.393858
10.791421
10.580420
10.973811
10.631680
10.515451
10.257959
9.981990
9.800792
10.402799
##ZVALUE=275
1.173615
1.125932
1.310706
1.067519
1.231432
1.181960
1.083612
1.318455
1.329780
1.369715
1.307726
1.411438
1.547933
1.720786
1.675487
1.959801
1.842976
2.327561
2.675653
6.942749
27.892590
81.924796
237.984657
447.574854
836.945772
1015.864015
1015.864015
1015.864015
1015.864015
1015.864015
1015.864015
1015.864015
859.586000
473.140478
272.361636
116.816759
65.770745
59.124827
76.912642
105.063915
124.725699
141.667724
149.985552
144.906640
130.077600
106.395483
84.856749
60.070753
43.526888
25.535822
17.967820
12.373924
10.501742
9.361506
9.078979
9.215474
8.610487
9.220839
9.498596
9.119511
9.467602
8.635521
8.827448
9.056926
9.248853
9.717941
9.300709
9.534955
10.837913
11.153817
12.283921
12.387633
13.606548
14.275908
14.585853
13.926625
13.837814
13.672709
13.216734
12.279749
11.989474
11.012554
10.866523
10.537505
10.544658
10.630488
10.692477
10.217428
10.444522
10.380745
10.506511
10.442734
10.076761
9.637475
9.598732
9.860992
##ZVALUE=280
1.177788
0.994802
1.022816
1.138449
1.227856
1.191497
1.187921
1.117587
1.353621
1.240969
1.255870
1.428723
1.525879
1.433492
1.529455
1.475811
1.794696
1.955628
2.051592
2.352595
2.377629
3.244877
18.406510
62.216520
195.978880
360.063910
678.270459
976.490974
1015.859842
1015.859842
1015.859842
1015.859842
1015.859842
1015.859842
1015.859842
674.851537
423.264503
188.171864
93.721747
48.423409
55.217743
78.702569
101.161599
126.630664
140.394568
145.053864
140.277743
125.108957
107.286572
80.569983
60.979724
40.213466
27.453899
17.832518
12.840629
10.337830
8.987784
8.930564
9.547472
9.115934
9.105802
9.342432
9.495616
9.312630
9.289980
9.485483
9.922981
9.443760
10.124445
10.971427
11.522770
11.992455
12.354851
13.572574
13.142824
13.525486
13.341904
12.022853
11.675954
11.695623
11.169910
10.722876
10.357499
10.049939
10.005832
10.010600
10.090470
10.126829
10.182858
10.262728
9.677410
9.615421
9.722710
9.270906
9.124875
9.593964
##ZVALUE=285
1.348853
1.112819
1.019835
1.229644
1.008511
1.188517
1.173615
1.109838
1.220703
1.212955
1.163483
1.308918
1.511574
1.556873
1.590848
1.449585
1.539588
1.808405
1.872778
1.843572
2.031922
2.326965
2.512932
3.061891
8.980632
31.478405
112.211704
232.175589
507.990718
810.604692
1015.961766
1015.961766
1015.961766
1015.961766
1015.961766
1015.961766
1015.961766
828.494430
526.474714
250.516534
125.342607
49.277544
38.195848
53.696632
71.749687
99.848509
117.820501
135.611892
142.408609
137.009621
127.089620
104.882717
84.657669
60.143471
42.817593
25.749803
18.222928
11.917949
10.324717
8.627772
8.836985
9.016991
8.392930
9.129643
8.963943
9.196997
9.581447
9.320974
10.219812
10.541677
10.652542
11.490583
11.994839
12.504458
12.159944
12.125969
11.738539
11.681914
10.972619
11.123419
10.934472
10.239482
10.241866
9.996891
10.089874
9.946823
9.809732
9.281635
9.562969
9.522438
9.301901
9.367466
9.177923
9.665489
9.303689
8.857846
##ZVALUE=290
0.809431
0.970960
0.982881
0.965595
0.896454
0.972748
1.007915
1.195669
0.925660
1.153946
1.024604
1.073480
1.041889
1.221895
1.254678
1.164675
1.300573
1.268983
1.345873
1.550913
1.711845
1.880527
1.881719
2.110600
2.308488
2.784729
3.594756
16.716719
53.161979
171.011686
330.797434
687.256455
996.065736
1015.861630
1015.861630
1015.861630
1015.861630
1015.861630
1015.861630
988.746881
680.069923
344.880819
179.866552
66.350698
33.513904
35.180449
46.562552
70.643425
90.398788
113.677979
128.783584
137.237906
135.241747
122.444630
105.316639
77.781677
58.898926
38.531423
27.383566
16.962886
12.567639
10.035634
8.913875
8.244514
8.069873
8.423924
8.804798
9.144545
9.132624
9.548664
10.171533
10.366440
11.576414
11.348724
11.706948
11.400580
11.002421
10.736585
10.240674
10.040998
9.853840
9.618998
9.986758
9.577870
9.733438
9.357929
9.165406
9.343624
9.129643
9.384751
9.503961
9.159446
8.886456
9.098649
8.901954
8.795857
##ZVALUE=295
0.937581
0.824928
0.882745
1.006722
1.020432
1.016855
0.921488
0.997782
1.026988
0.915527
0.938773
1.160502
1.038909
1.063943
1.182556
1.299977
1.156926
1.311898
1.449585
1.399517
1.450777
1.540780
1.808405
1.863837
1.870990
2.066493
2.424717
2.622604
2.975464
5.708933
21.224618
93.190670
217.143893
520.526767
844.385028
1015.861630
1015.861630
1015.861630
1015.861630
1015.861630
1015.861630
1015.861630
859.787464
457.665920
244.813561
85.699558
38.140416
23.510456
29.393435
46.397448
62.427521
87.368488
103.352666
123.646855
129.944682
127.355456
116.551518
97.085834
80.151558
55.257678
40.399432
25.621653
17.633438
11.600852
9.521842
7.941723
8.422732
8.812547
9.022951
9.309649
9.746552
10.183454
10.464787
10.731816
10.647774
11.060834
10.443926
10.613799
9.802580
9.747744
9.549856
9.665489
8.800626
9.184480
9.133816
9.105802
8.915663
9.109974
9.336472
8.787513
8.721948
9.026527
8.654594
8.543730
8.289814
8.898973
##ZVALUE=300
0.809431
0.804663
0.853539
0.972748
0.943542
0.847578
0.912547
0.964999
0.786781
0.969768
1.171827
0.930429
1.137853
0.959635
1.198649
0.939965
1.062751
1.115799
1.226664
1.209974
1.294613
1.306534
1.321435
1.497865
1.648664
1.626611
1.831651
2.038479
2.267957
2.412796
2.949834
3.394485
9.447932
56.226850
142.031908
368.620753
639.158487
1015.861630
1015.861630
1015.861630
1015.861630
1015.861630
1015.861630
1015.861630
1015.861630
620.470643
373.896956
165.054798
73.661804
24.293661
19.234419
27.501583
37.577748
57.781935
76.229572
99.699497
113.156438
123.505592
121.202469
111.241937
97.463727
74.776411
58.523417
38.064718
27.529597
16.750693
12.227893
9.486675
8.616447
9.045601
8.687973
9.803772
9.938478
10.218620
10.108948
10.226965
9.914637
9.578466
9.382963
9.425879
8.856654
8.965731
9.596944
9.567738
8.754730
9.098649
8.796453
8.944869
8.951426
8.948445
8.687973
8.809566
8.633733
8.281469
8.416772
8.288622
##ZVALUE=305
0.776649
0.808835
0.854731
0.711679
0.792742
0.711679
0.752807
0.814795
0.767708
0.826716
0.798702
0.813603
0.800490
0.701547
0.913739
0.994802
0.881553
0.848770
0.917912
1.017451
1.159906
1.201630
1.173615
1.233816
1.500845
1.447797
1.379848
1.570582
1.686811
2.024770
1.971722
1.936555
2.248883
3.069639
5.216002
33.065677
95.107555
278.438926
506.886840
952.948928
1015.733480
1015.733480
1015.733480
1015.733480
1015.733480
1015.733480
1015.733480
883.777738
557.683706
250.465870
117.083788
35.201907
17.522573
18.367767
24.670959
39.604902
55.062771
76.565742
91.448426
110.347867
116.395950
114.854574
107.219815
90.933442
73.896646
51.890612
38.559437
25.405884
17.427802
11.904836
10.104775
9.918809
9.679794
9.544492
10.108948
9.797812
9.334683
9.230971
9.031892
9.123683
8.634925
9.139776
9.063482
8.636713
8.812547
9.012818
8.493662
8.899570
8.715987
8.634925
8.573532
8.302927
8.448958
8.412600
8.276701
8.488894
##ZVALUE=310
0.829697
0.804663
0.698566
0.748634
0.762939
0.764728
0.708699
0.884533
0.705719
0.998974
0.906587
0.771880
0.803471
0.897646
0.891685
0.996590
1.047850
0.995994
1.093745
0.933409
1.129508
1.110435
1.205802
1.237988
1.387596
1.316667
1.353621
1.331568
1.418591
1.558661
1.687407
1.797676
1.899600
2.409816
2.605915
3.059506
3.483891
14.250875
50.022006
169.955492
342.153907
715.786815
1015.861630
1015.861630
1015.861630
1015.861630
1015.861630
1015.861630
1015.861630
1015.861630
823.062658
422.213674
226.669908
76.990724
27.650595
13.503432
15.612841
22.996664
32.753944
49.894452
64.713955
84.729791
98.770857
108.720660
110.692978
102.441907
92.026591
72.141886
56.769848
38.043857
27.968884
19.091964
14.286637
11.024475
10.207891
10.124445
9.737611
8.684993
8.866787
8.969903
8.948445
8.949637
9.018779
9.158850
9.099841
8.950830
9.029508
9.165406
9.248853
8.666515
8.673668
8.379817
8.619428
8.564591
8.316636
8.634925
##ZVALUE=315
0.814795
0.721812
0.742674
0.797510
0.869632
0.748634
0.731945
0.739694
0.778437
0.878572
0.873804
0.739694
0.868440
0.824928
1.004934
0.883937
0.966787
0.940561
0.975728
1.079440
1.056790
1.053810
1.120567
1.149774
1.081824
1.261830
1.321435
1.130700
1.363754
1.306534
1.548529
1.602769
1.883507
1.887679
2.041459
2.088547
2.303720
2.758503
3.121495
6.768703
26.188493
110.268593
247.069597
560.659766
925.716758
1015.861630
1015.861630
1015.861630
1015.861630
1015.861630
1015.861630
1015.861630
999.742746
567.357540
309.776664
110.513568
41.030645
13.966560
11.846423
14.980435
20.754933
31.911731
43.653846
62.160492
78.590512
94.972849
103.252530
104.822516
99.787712
84.403753
70.969462
53.533912
40.239692
25.666952
19.463897
13.262630
10.697842
9.882450
9.058714
9.033680
8.963943
8.668900
8.609891
8.931756
8.903742
8.799434
9.040833
8.726716
8.796453
9.233952
8.658767
8.462667
8.627772
8.409619
8.203983
8.560419
##ZVALUE=320
0.869632
0.839829
0.731945
0.721812
0.694990
0.777841
0.796914
0.798702
0.812411
0.866652
1.000762
0.753999
0.995994
0.937581
0.824928
0.810623
1.056790
0.920892
0.970960
1.012683
0.982881
1.158714
1.093745
1.089573
1.022816
1.080632
1.151562
1.044869
1.322627
1.330972
1.392961
1.470447
1.534820
1.449585
1.622438
1.646876
2.056956
2.119541
2.216697
2.597570
3.044605
3.625751
11.379719
64.260960
168.203712
445.470810
742.650032
1015.861630
1015.861630
1015.861630
1015.861630
1015.861630
1015.861630
1015.861630
1015.861630
723.595619
420.028567
175.997615
75.707436
20.392537
11.365414
11.172891
12.801886
19.102693
27.227998
42.837858
56.071877
74.823499
87.936521
98.840594
100.087523
95.258951
84.603429
66.169500
52.330494
36.421418
25.771856
17.382503
13.478994
10.007620
9.220839
8.799434
8.495450
8.925796
8.600950
8.629560
9.092689
8.453727
8.371472
8.867979
8.690953
8.615851
8.468628
8.345842
8.252859
8.344650
##ZVALUE=325
0.701547
0.683665
0.581741
0.762939
0.763535
0.740886
0.906587
0.717640
0.629425
0.830889
0.700951
0.771880
0.809431
0.825524
0.937581
0.746846
0.935793
0.780821
0.842810
0.809431
0.832677
0.993609
0.986457
1.035929
0.921488
0.980496
0.958443
1.062751
1.186728
1.109838
1.361966
1.138449
1.277924
1.224875
1.427531
1.466870
1.669526
1.939535
1.848936
1.955628
1.906753
2.368689
2.703667
3.154874
6.349683
41.499734
111.528039
307.735801
559.606552
1002.435684
1015.861630
1015.861630
1015.861630
1015.861630
1015.861630
1015.861630
1015.861630
885.568857
540.228486
236.313939
109.362602
30.580759
13.018847
10.073781
10.395646
13.134480
17.774701
27.737617
38.974881
57.592988
70.267916
83.980560
92.634559
94.472766
89.117885
75.694919
62.707663
46.645999
34.907460
23.152828
16.856790
12.398958
10.480881
9.332895
8.868575
8.541942
8.690953
8.751750
8.462667
8.368492
8.564591
8.316636
8.251667
8.272529
8.278489
8.282661
##ZVALUE=330
0.795722
0.583529
0.828505
0.823736
0.836849
0.727773
0.965595
0.764728
0.557899
0.753999
0.667572
0.672936
0.724792
0.756979
0.821948
0.644922
0.800490
0.679493
0.826716
0.891685
0.999570
0.977516
0.865459
1.071692
0.874996
0.975728
1.135468
1.085997
0.922680
1.098514
1.205802
1.150966
1.156926
1.369715
1.398921
1.276731
1.445413
1.404881
1.602769
1.564622
1.841784
1.948476
2.096891
2.337694
2.773404
2.916455
3.965497
17.996430
62.136650
214.442015
420.609713
852.783918
1015.861630
1015.861630
1015.861630
1015.861630
1015.861630
1015.861630
1015.861630
1001.487374
690.176487
325.865746
163.753629
54.302812
19.253492
9.733438
9.131432
10.534525
12.595654
18.535852
25.658607
38.714409
51.256418
69.010854
78.399777
86.928606
88.033676
82.876682
73.223710
56.872964
45.991540
30.756593
23.661852
16.813874
13.076663
10.037422
9.435415
8.763671
8.623600
8.563995
8.230805
8.437634
8.281469
7.791519
7.746816
7.960796
##ZVALUE=335
0.637770
0.640750
0.608563
0.833869
0.732541
0.517964
0.695586
0.572801
0.734925
0.791550
0.678897
0.846982
0.663996
0.613928
0.805855
0.771880
0.820756
0.787973
0.858903
0.897646
0.781417
0.645518
0.950694
0.868440
1.056790
0.735521
0.883937
0.889897
1.092553
1.127720
1.028776
1.035929
1.192689
0.880957
1.112819
1.266599
1.293421
1.431704
1.276731
1.401901
1.588464
1.502633
1.713634
1.937747
2.128482
2.113581
2.509952
2.847910
2.998710
8.158684
31.010509
131.560564
289.784670
666.720867
1012.692451
1015.861630
1015.861630
1015.861630
1015.861630
1015.861630
1015.861630
1015.861630
865.554810
450.069904
232.934952
76.348782
27.710795
11.058450
9.535551
9.152889
10.420680
12.751818
16.721487
25.706887
35.333633
50.807595
61.348677
73.044896
80.821514
81.801414
77.618957
66.480637
56.045651
42.102933
32.989979
23.353696
17.241836
12.620687
10.392666
9.020567
8.156896
8.028746
7.836819
7.813573
7.842779
7.606745
##ZVALUE=340
0.555515
0.591874
0.609756
0.780821
0.697970
0.616908
0.618696
0.586510
0.683665
0.694990
0.566840
0.659823
0.908971
0.846982
0.710487
0.643730
0.767708
0.683665
0.739694
0.808835
0.775456
0.803471
0.914931
0.765920
0.890493
0.824928
0.924468
0.750422
0.878572
0.826716
1.017451
1.098514
1.016855
1.112819
1.139641
1.337528
1.183748
1.161695
1.231432
1.188517
1.398921
1.503825
1.533628
1.470447
1.893640
1.976490
1.973510
2.235770
2.480745
2.487898
2.893806
4.645586
16.091466
93.209743
236.027837
590.065718
967.255831
1015.861630
1015.861630
1015.861630
1015.861630
1015.861630
1015.861630
1015.861630
990.249515
556.201935
301.922560
111.331940
43.196678
13.885498
10.138750
9.931922
9.798408
10.559559
12.241602
17.264485
23.199916
34.482479
45.222640
59.256554
69.576502
75.743794
76.702833
72.641969
65.842867
53.420663
42.901635
31.205416
23.347735
16.931891
12.845993
9.774566
8.664727
8.061528
7.741451
7.584691
##ZVALUE=345
0.634789
0.692606
0.529885
0.598431
0.546575
0.603795
0.591874
0.657439
0.759959
0.736713
0.756979
0.755787
0.781417
0.592470
0.663996
0.779629
0.638962
0.845790
0.861883
0.829697
0.853539
0.889897
0.800490
0.812411
0.830889
0.946522
0.805855
1.050830
1.003742
0.932813
0.920892
0.891685
0.926852
0.803471
0.789762
0.812411
0.895858
1.117587
1.099706
1.101494
1.144409
1.235604
1.359582
1.524687
1.453757
1.542568
1.718998
1.813769
1.775622
2.127886
2.167821
2.602935
2.614856
3.239512
6.534457
44.048429
130.596757
362.694860
661.903620
1015.862823
1015.862823
1015.862823
1015.862823
1015.862823
1015.862823
1015.862823
1015.862823
730.375648
407.382846
154.506564
65.673590
19.919872
11.311769
9.645820
9.299517
9.066463
9.302497
11.132956
14.428496
21.689534
29.980540
43.187737
52.346587
62.377453
68.969727
70.821643
68.485737
61.425567
53.286552
41.619539
31.954646
22.135973
17.106533
11.748672
9.341836
8.259416
##ZVALUE=350
0.782609
0.788569
0.675917
0.822544
0.884533
0.729561
0.942945
0.846982
0.680685
0.795722
0.763535
0.919700
0.828505
0.691414
0.890493
0.899434
0.720620
0.901818
0.939965
0.972748
0.938773
0.871420
0.720620
0.944734
0.883937
0.869632
0.955462
0.940561
0.929832
1.042485
1.257658
0.946522
0.949502
0.979900
1.108646
0.985861
1.179576
1.333952
1.376867
1.298785
1.234412
1.231432
1.235604
1.202822
1.383424
1.488924
1.583695
1.566410
1.644492
1.784563
1.985431
2.111793
2.402663
2.460480
2.947450
3.285408
4.063845
22.240877
78.796744
264.710784
516.845584
987.614989
1015.955806
1015.955806
1015.955806
1015.955806
1015.955806
1015.955806
1015.955806
878.052711
533.486605
242.218971
109.695792
27.996898
11.991858
9.049773
8.730888
7.989407
7.954836
8.666515
10.353923
14.822483
19.435883
27.624965
36.141872
47.739744
55.633783
63.189864
65.261722
63.190460
58.341622
48.248768
40.069818
29.308796
22.163987
16.036630
##ZVALUE=355
0.667572
0.535846
0.663996
0.859499
0.588894
0.918508
0.688434
0.705719
0.806451
0.732541
0.788569
0.727773
0.737906
0.571609
0.560880
0.704527
0.879765
0.762939
0.749826
0.747442
0.829697
0.573993
0.775456
0.802875
0.680685
0.848770
0.795722
0.834465
0.889897
0.887513
1.045465
0.805855
0.984669
0.900626
1.126528
0.813603
0.990629
1.001954
0.966787
1.163483
1.171827
1.209974
1.344681
1.392961
1.419783
1.392961
1.381636
1.510978
1.592636
1.650453
1.660585
1.891851
1.856685
2.023578
2.249479
2.460480
2.606511
2.914667
3.309846
9.858608
37.411451
155.347586
329.555869
703.909993
1015.866995
1015.866995
1015.866995
1015.866995
1015.866995
1015.866995
1015.866995
1015.866995
726.182461
318.694711
148.623586
42.897463
15.662909
8.974671
8.043647
7.783771
7.601976
7.524490
8.044839
9.461641
11.553764
17.089844
22.879839
32.610893
41.064620
49.974918
56.345463
60.274601
59.053898
53.321719
47.228932
37.205815
##ZVALUE=360
0.641942
0.533462
0.664592
0.455976
0.510812
0.671744
0.643730
0.650883
0.601411
0.719428
0.605583
0.774860
0.596642
0.646710
0.710487
0.787973
0.640750
0.747442
0.673532
0.621676
0.735521
0.763535
0.608563
0.718832
0.634789
0.764728
0.683665
0.776649
0.899434
0.899434
0.933409
0.931621
0.851750
1.051426
0.888705
0.907779
0.898838
0.928640
0.929832
1.028776
1.083612
1.047850
1.137853
1.339912
1.313686
1.246929
1.352429
1.354814
1.508594
1.568794
1.623631
1.727939
1.709461
1.858473
1.854897
2.001524
2.068877
2.247691
2.628565
3.042817
3.210902
5.315542
16.423464
81.012845
208.736658
535.965562
894.113779
1015.802026
1015.802026
1015.802026
1015.802026
1015.802026
1015.802026
1015.802026
912.047029
444.629788
226.150751
76.956749
28.075576
9.553432
8.212924
7.370710
7.103682
6.927848
6.804466
7.048845
7.943511
10.255575
13.412833
19.640923
25.975704
35.998821
42.675734
49.845576
52.860975
53.312778
##ZVALUE=365
0.768900
0.613928
0.603795
0.679493
0.836849
0.629425
0.611544
0.729561
0.745654
0.682473
0.837445
0.730753
0.926852
0.727773
0.746846
0.623465
0.870824
0.713468
0.675917
0.810623
0.678897
1.033545
1.041889
0.853539
0.888705
0.717640
0.977516
0.796914
0.861883
0.889897
0.849962
1.045465
0.820756
0.947714
0.965595
1.004934
0.926852
0.901818
1.070499
1.117587
1.082420
1.090765
1.028776
1.251698
1.271963
1.099706
1.216531
1.197457
1.348853
1.410842
1.406670
1.436472
1.485944
1.497865
1.601577
1.752973
1.821518
1.959801
2.208948
2.322793
2.712607
2.828836
3.385544
3.901720
7.159710
42.514801
128.432512
368.988514
684.953928
1015.862823
1015.862823
1015.862823
1015.862823
1015.862823
1015.862823
1015.862823
1015.862823
629.552007
343.033671
121.387839
44.947863
11.861920
7.929802
7.412434
6.956458
6.581545
6.409883
6.353855
6.409883
6.886721
8.557439
11.924505
15.588999
22.403002
28.932691
37.520528
##ZVALUE=370
0.624657
0.681877
0.769496
0.640750
0.739694
0.697970
0.601411
0.705719
0.659823
0.670552
0.552535
0.736713
0.644922
0.596642
0.656843
0.716448
0.677705
0.742674
0.765920
0.770688
0.804663
0.784993
0.756979
0.648499
0.728965
0.794530
0.658631
0.766516
0.881553
0.848770
0.781417
0.814795
0.734925
0.854731
0.896454
0.921488
0.917912
1.011491
0.872612
1.001954
0.959635
1.179576
1.059771
0.993609
1.062751
1.067519
1.122952
1.157522
1.258850
1.480579
1.229644
1.368523
1.372695
1.373887
1.412630
1.378655
1.531839
1.544952
1.601577
1.927614
2.023578
2.191663
2.375841
2.538562
2.768636
3.348589
4.534721
22.381544
79.630017
265.809894
503.886938
958.718657
1015.861630
1015.861630
1015.861630
1015.861630
1015.861630
1015.861630
1015.861630
742.721558
416.502953
160.259604
69.693923
20.408630
9.180903
7.001758
6.633997
6.054640
5.899668
5.698800
5.532503
5.849600
6.196499
7.554889
9.489655
14.045835
##ZVALUE=375
0.638962
0.698566
0.811815
0.754595
0.644922
0.569820
0.619888
0.648499
0.738502
0.585914
0.676513
0.639558
0.736713
0.847578
0.686646
0.674725
0.685453
0.748634
0.793934
0.762939
0.763535
0.774860
0.773668
0.728965
0.679493
0.818968
0.796914
0.703931
0.858903
0.823736
0.723600
0.862479
0.918508
0.965595
0.859499
0.789762
0.882745
0.785589
0.924468
1.055598
0.930429
0.991821
0.986457
1.051426
1.015663
1.068711
0.946522
1.003742
1.053810
1.078844
1.016855
1.328588
1.242757
1.266599
1.183748
1.253486
1.421571
1.270771
1.421571
1.546741
1.710653
1.851916
1.812577
1.973510
1.889467
2.322793
2.645850
2.938509
3.623962
12.375712
45.367479
167.368054
363.481045
800.768733
1015.911698
1015.911698
1015.911698
1015.911698
1015.911698
1015.911698
1015.911698
929.035544
587.025881
285.032988
137.770772
39.134622
13.609529
6.780624
6.332994
5.806684
5.435944
5.398989
5.256534
5.034804
5.177855
5.526543
##ZVALUE=380
0.574589
0.415444
0.518560
0.638962
0.642538
0.448823
0.571609
0.604987
0.508428
0.523925
0.614524
0.732541
0.822544
0.646710
0.578761
0.548959
0.636578
0.679493
0.550747
0.708699
0.569820
0.593662
0.583529
0.722408
0.704527
0.761747
0.753999
0.707507
0.824928
0.773668
0.718832
0.823736
0.820756
0.762939
0.697970
0.838637
0.753999
0.684857
0.808835
0.619888
0.861883
0.879765
0.900626
0.842810
0.936985
0.974536
0.935793
0.865459
0.981688
1.094937
0.891685
0.922680
1.059771
1.069903
0.895858
1.052618
1.104474
1.315475
1.250505
1.333952
1.323819
1.407862
1.453757
1.439452
1.560450
1.879930
2.089739
2.354980
2.490878
3.128648
3.394485
6.409883
26.256442
131.168962
296.256542
676.655769
1009.029746
1015.858650
1015.858650
1015.858650
1015.858650
1015.858650
1015.858650
1015.858650
784.068108
376.955867
189.571977
62.137842
22.533536
8.013844
5.885959
5.560517
5.337000
5.072951
4.816651
4.558563
##ZVALUE=385
0.527501
0.619888
0.453591
0.429749
0.574589
0.542998
0.620484
0.553727
0.570416
0.572801
0.626445
0.545979
0.693798
0.578761
0.559688
0.586510
0.600815
0.538826
0.521541
0.606775
0.570416
0.619888
0.662804
0.754595
0.714660
0.655651
0.767708
0.728965
0.599623
0.708699
0.598431
0.713468
0.678897
0.723600
0.586510
0.829697
0.844598
0.556707
0.757575
0.750422
0.751615
0.761747
0.755787
0.793934
0.759959
0.887513
0.913739
0.899434
0.961423
0.722408
0.891685
0.932813
1.010895
0.956655
0.954866
0.958443
1.168847
1.051426
1.093745
1.105666
1.338720
1.252890
1.443624
1.303554
1.554489
1.678467
1.646876
2.032518
2.110600
2.513528
2.680421
2.944469
3.193617
3.876686
11.119843
71.836710
189.319849
477.714539
835.950971
1015.861630
1015.861630
1015.861630
1015.861630
1015.861630
1015.861630
1015.861630
1004.731655
582.610965
329.568982
130.200982
49.226880
11.031628
6.214976
5.463958
5.060434
4.829764
##ZVALUE=390
0.642538
0.386834
0.511408
0.599623
0.479817
0.547767
0.422597
0.536442
0.614524
0.676513
0.527501
0.531673
0.559688
0.610948
0.726581
0.494719
0.686646
0.572801
0.617504
0.468493
0.517964
0.632405
0.437498
0.451803
0.722408
0.681877
0.886917
0.753999
0.703931
0.643730
0.485778
0.697970
0.566840
0.625849
0.550747
0.687838
0.585914
0.761747
0.715852
0.688434
0.601411
0.771880
0.787973
0.895858
0.802875
0.882745
0.927448
0.840425
0.744462
0.837445
0.847578
0.909567
0.774860
0.830889
1.065731
0.902414
1.013875
0.986457
1.046658
1.026988
1.200438
1.311898
1.340508
1.420975
1.491904
1.545548
1.686811
1.911521
1.985431
2.180934
2.492666
2.607703
2.904534
2.782941
2.893806
3.396869
5.797744
39.487481
127.346516
380.793810
699.712634
1015.861630
1015.861630
1015.861630
1015.861630
1015.861630
1015.861630
1015.861630
1015.861630
889.439583
522.349477
218.978524
100.056529
26.529431
8.708835
5.517602
##ZVALUE=395
0.507832
0.476837
0.530481
0.616908
0.630617
0.585914
0.541806
0.416636
0.558496
0.684857
0.542998
0.600815
0.638962
0.730753
0.688434
0.488758
0.587702
0.691414
0.485778
0.609756
0.557899
0.510812
0.669956
0.640750
0.696778
0.692606
0.663996
0.613928
0.790954
0.573993
0.759959
0.732541
0.649691
0.770688
0.808835
0.661612
0.785589
0.681877
0.682473
0.832677
0.715852
0.667572
0.723600
0.849962
0.964999
0.871420
0.806451
0.810623
0.856519
0.750422
0.858903
0.808835
1.057982
0.905991
0.878572
1.030564
0.941753
1.051426
1.018643
1.067519
1.150966
1.207590
1.314878
1.320839
1.391768
1.478791
1.665950
1.716614
2.023578
2.275705
2.442598
2.554655
2.610683
2.518892
2.565980
2.433658
2.801418
3.362894
3.983974
19.588470
75.692534
272.173882
517.985821
966.444612
1015.861630
1015.861630
1015.861630
1015.861630
1015.861630
1015.861630
1015.861630
1015.861630
890.515447
424.940586
212.253928
65.605640
##ZVALUE=400
0.577569
0.563860
0.534654
0.473857
0.550747
0.521541
0.637770
0.412464
0.481606
0.626445
0.532866
0.507832
0.413656
0.484586
0.542998
0.528693
0.530481
0.597835
0.567436
0.482798
0.573993
0.590682
0.554919
0.633597
0.623465
0.707507
0.728965
0.728965
0.633597
0.680685
0.662804
0.735521
0.805855
0.678897
0.640750
0.586510
0.739694
0.744462
0.553727
0.843406
0.719428
0.655651
0.662804
0.917912
0.937581
0.948906
0.752807
0.775456
0.782609
0.816584
0.775456
0.886917
0.829697
0.931621
0.953674
0.941753
0.891685
0.912547
1.035929
1.044869
1.031756
1.209974
1.170635
1.194477
1.256466
1.401901
1.605749
1.695752
1.699924
1.930594
2.250671
2.141595
2.183914
2.173781
2.192855
2.185702
2.226830
2.380610
2.647638
3.052950
3.276467
8.910894
36.528707
155.181885
337.234735
752.467513
1015.861630
1015.861630
1015.861630
1015.861630
1015.861630
1015.861630
1015.861630
1015.861630
954.710841
482.955575
##END
