##TITLE=KDZ0152
##FORMAT=SPECTACLE-ASCII V-1.2
##DATA TYPE=ULTRAVIOLET SPECTRUM
##SECOND TYPE=ULTRAVIOLET SPECTRUM
##DATE=03/22/18
##TIME=12:15:27
##SPECTROMETER/DATA SYSTEM=SPECTACLE
##XUNITS=NM EM
##YUNITS=ENERGY
##YFACTOR=1
##FIRSTX=220
##LASTX=410
##NPOINTS=96
##3DDATA=Equidistant
##ZUNITS=NM EX
##FIRSTZ=210
##LASTZ=400
##ZPOINTS=39
##XYDATA=(Y..Y)
##ZVALUE=210
2.867579
2.499819
3.055930
2.964735
2.888441
3.076792
3.370643
3.065467
2.812743
3.019571
2.495646
2.513528
2.732873
2.714992
2.684593
3.600717
3.173947
2.591610
3.455877
3.084540
3.838539
3.365874
3.715754
4.505515
4.185438
4.137754
4.683733
5.357862
4.714727
5.713701
5.700588
4.577637
5.370975
5.497932
6.476641
6.071925
6.434917
6.754994
6.336570
7.160902
7.185936
6.483793
7.584691
7.539988
6.968975
7.211566
8.189678
8.041859
7.961988
8.952618
8.526444
8.569956
9.197593
9.552836
8.805990
9.958744
10.188818
9.500980
9.471774
9.684563
10.840893
10.139942
10.582805
9.935498
10.063648
10.782480
12.178421
12.971759
15.153885
19.065738
21.002889
26.218891
28.828979
31.916499
35.850406
37.533641
38.735867
37.516952
37.579536
33.314824
28.909445
26.041865
25.132895
19.843578
17.332435
14.455914
12.716651
11.128783
11.535883
10.356903
10.640621
10.080934
10.726452
10.049939
10.822415
10.835528
##ZVALUE=215
9.840727
11.824965
7.900000
8.151531
6.413460
5.813837
5.119443
5.364418
6.429553
5.288720
6.633997
4.207492
4.523993
4.344583
3.054738
3.090501
3.547668
4.295707
3.084540
3.756881
3.267527
3.863573
4.188418
5.351901
5.332828
5.266666
5.271435
5.486608
5.790591
5.946755
5.861521
6.085634
5.364418
5.704761
5.820990
5.901456
6.648898
7.608533
7.255673
6.895661
7.948875
6.849766
7.798672
8.019805
7.538795
8.102655
8.512735
8.172989
7.907748
9.181499
8.874536
7.750988
9.227991
9.696484
9.939671
8.739829
8.661747
9.150505
9.806752
9.968877
10.028481
9.832978
10.639429
9.622574
10.422468
10.322928
10.735989
12.216568
13.913512
16.790628
19.630790
23.283958
24.920702
28.732419
30.712485
34.333467
31.918883
32.518506
31.385422
28.144717
26.537776
22.168756
21.682978
20.236969
17.475486
13.726950
11.464953
11.304617
9.941459
9.573698
8.841753
9.081960
9.259582
9.251833
9.459853
9.621978
##ZVALUE=220
35.876632
37.341714
35.536885
34.925938
30.961633
24.740696
18.685460
15.029907
13.480783
12.492537
12.627840
13.978481
12.234449
11.357665
10.339618
7.775426
6.377697
5.303621
5.024672
3.743768
4.130602
4.609823
4.033446
4.605651
5.816817
5.725622
5.989671
6.113648
5.287528
5.715489
6.294847
6.249547
7.258654
6.459951
7.302761
8.611679
7.447600
7.571578
8.336902
7.421970
8.270741
8.869767
8.507967
8.348823
8.176565
8.774996
8.776784
8.929968
8.098483
8.210540
8.986592
9.505749
10.226965
9.000897
9.206533
9.746552
9.277463
8.740425
11.510849
10.025501
9.409785
11.696815
10.915995
11.545420
10.783672
10.945797
12.018681
12.436509
15.772581
18.243790
17.583966
22.160411
24.824739
27.851462
29.067993
30.173659
31.564832
29.683709
27.666688
26.470423
25.624633
21.958947
21.349788
17.833710
15.828609
12.441874
13.044477
12.551546
10.913610
9.379983
10.932684
10.282993
9.750724
9.806752
10.230541
9.063482
##ZVALUE=225
62.100887
64.928532
82.562566
98.680854
102.881789
99.228621
92.373490
66.779852
51.500797
40.524602
30.320883
24.867654
23.967624
27.753711
27.202964
26.310682
20.810962
17.531514
12.467504
9.572506
7.869601
5.817413
4.984736
4.498959
4.499555
6.329417
6.521940
6.397963
6.298423
6.480813
6.261468
6.399751
7.200837
6.992817
7.188916
7.680655
7.423759
8.115768
8.059740
8.606911
7.955432
8.320808
8.382797
9.633899
9.641647
9.248853
9.529591
9.752512
9.403825
9.293556
10.540485
10.711551
10.294914
11.245608
10.181665
11.445880
11.749864
11.469722
11.351705
11.128783
11.194944
13.161898
13.023615
12.890697
11.889935
14.015436
12.998581
14.535785
15.704632
18.457770
19.806623
23.782849
25.541782
27.082562
29.893517
29.947758
31.370521
28.175712
27.134418
24.806857
24.621487
21.682978
19.160509
17.973781
16.232729
13.775826
13.146996
11.830926
12.733936
13.172626
12.221932
11.202693
10.559559
10.331869
11.617541
10.841489
##ZVALUE=230
54.657459
61.768889
89.504719
148.061514
198.225975
240.162611
248.446465
237.204432
214.030743
181.815624
117.817521
83.520412
59.724450
50.509572
48.039556
48.763752
51.990747
50.626993
46.266913
36.738515
30.219555
19.567609
12.516975
9.137988
7.472634
7.185936
6.220937
7.227659
6.959438
7.369518
7.896423
7.038713
7.841587
8.169413
9.113550
9.201765
8.832812
8.706450
9.582639
9.080768
9.785891
9.720922
9.278655
9.625554
8.803606
10.583997
10.993481
10.185838
10.490417
10.167956
11.417866
11.822581
11.548996
12.929440
12.071729
12.613535
12.763739
12.540817
12.555718
13.165474
12.634993
12.183785
13.503432
14.458895
14.153719
15.291572
14.828444
16.427636
18.300414
21.285415
23.166537
25.158525
29.426813
31.494498
33.503771
32.071471
31.112432
32.513738
30.491948
28.288960
24.409890
21.990538
21.332502
18.428564
18.080473
15.497804
15.490651
13.503432
14.127493
13.286471
13.626814
12.983680
12.700558
13.843775
13.259649
13.358593
##ZVALUE=235
18.939972
20.268559
54.668784
100.473762
198.956728
266.971588
381.521583
449.658632
501.065850
492.166877
421.192646
339.955688
258.030891
160.494447
116.035938
79.617500
70.784688
78.889728
83.836913
85.493922
78.894496
65.459609
50.704479
38.408637
24.437904
17.143488
14.030933
9.342432
8.341670
8.756518
8.965731
8.002520
8.698702
8.495450
9.701848
9.319782
9.465814
8.680820
9.851456
9.591579
9.625554
10.302663
9.219646
9.753704
10.407567
11.604428
11.291504
10.608435
11.635423
12.016892
11.827946
13.078451
12.047887
12.841821
12.219548
12.082458
13.198853
13.690591
14.886856
14.752746
14.178753
14.338493
15.753508
14.317632
14.808774
17.201900
15.814900
17.601848
21.148920
22.708774
24.084449
26.259422
29.449463
33.725500
33.119917
35.423636
33.809543
33.336878
35.142899
26.513934
25.042892
23.731589
22.993684
20.474792
20.504594
17.758608
16.200542
16.442537
16.037822
16.128421
16.093850
15.029907
15.097857
14.634728
15.589595
14.651418
##ZVALUE=240
1.749992
2.154708
9.256601
22.664666
67.392588
129.886866
250.654817
380.653739
551.779866
670.312643
750.149488
746.292472
678.247809
535.006523
419.350863
251.876712
179.567933
120.750666
99.612474
98.155737
107.522607
114.364624
110.814571
99.740624
78.572631
66.782832
43.485761
33.171773
19.015670
14.098883
11.407733
9.753704
9.251833
10.371804
9.719729
8.917451
9.608865
10.657907
10.358691
10.178685
9.346604
9.042621
9.535551
9.994507
10.674000
12.080669
11.254549
9.893775
10.785460
10.144711
11.545420
10.867715
11.624694
12.071729
13.268590
12.559891
12.783408
11.793971
12.215972
13.210773
12.654662
12.855530
14.018416
14.631748
15.223622
15.088916
16.985536
17.374754
19.714832
22.805929
23.683906
27.731657
29.153824
31.871796
31.020641
32.330751
32.135844
30.896664
29.824972
28.038621
24.397969
23.623705
22.175908
20.151734
19.377470
16.854405
17.216802
17.545819
18.194914
17.528534
15.727878
16.774535
15.495420
15.550852
16.276836
15.125871
##ZVALUE=245
1.778603
1.697540
1.621842
1.739860
3.573895
18.229485
50.420761
132.375956
237.884521
420.635939
587.577820
796.708465
894.070864
930.746794
875.093937
723.927617
577.648878
381.248593
262.131691
153.356791
115.801692
101.695657
106.976628
116.977692
121.868849
120.976567
104.793906
89.861751
67.051649
52.088499
35.087466
24.394989
16.499758
11.044741
10.034442
8.732677
9.049773
8.508563
9.539723
9.324551
9.402633
9.335876
9.828806
8.493662
9.331703
9.209514
9.744763
9.550452
9.024739
9.860992
10.682940
10.373592
10.352731
9.962916
10.511875
10.897517
10.583997
10.332465
11.522770
12.014508
12.978911
12.132525
12.829900
11.598468
11.234879
13.765693
14.376640
15.768409
16.406775
18.097758
21.058917
22.546649
23.775697
25.036931
27.069449
25.747418
25.996566
26.710629
25.021434
23.075938
21.846890
20.233989
18.780828
17.864704
16.654730
16.195774
15.538931
15.633702
15.025735
13.988614
15.689731
14.480948
14.387965
14.323592
14.932752
15.048981
##ZVALUE=250
1.530647
1.570582
1.745820
2.050996
1.402497
2.088547
2.571940
12.547970
38.642883
86.357594
222.288966
376.429558
630.951524
811.810493
994.179845
1015.861630
1015.861630
964.386463
835.654736
573.332906
390.743613
213.089585
139.433742
101.037621
98.742843
120.070577
125.742555
131.999850
129.178762
115.299821
99.372864
73.213577
53.223968
34.452677
25.350451
14.458895
11.416674
8.760691
8.284450
8.882880
8.487701
8.824468
8.795857
8.468628
7.689595
7.744431
8.589625
8.809566
8.713603
8.577704
8.859634
8.998513
8.917451
8.910894
8.750558
8.949637
9.649992
9.775758
10.057688
9.239912
9.373426
10.525584
11.393428
10.237694
11.137724
11.013746
12.229681
12.737513
14.164448
15.434623
16.678572
19.017458
20.258427
20.752549
22.068620
22.038817
22.504926
21.743774
21.257997
18.947721
18.659830
17.562509
16.840696
14.693737
13.984442
14.574528
12.975931
14.340878
13.097525
13.441443
13.797879
11.939406
13.347864
12.543797
13.617873
12.692809
##ZVALUE=255
1.555681
1.488924
1.504421
1.325607
1.583695
1.521707
1.980662
1.829863
2.433658
5.663633
29.545426
75.580478
154.794455
343.271494
534.466505
822.016001
1005.907655
1015.861630
1015.861630
1015.861630
1002.321839
816.764832
512.641668
325.762630
168.025494
113.287568
90.687871
99.889636
120.692849
130.018592
139.660835
133.267641
124.147534
100.239515
79.355836
53.406954
36.102533
21.142960
14.757514
9.720922
8.040667
7.499456
7.544756
7.988811
8.030534
8.252859
7.725954
7.831454
7.940531
7.730722
8.119941
7.717609
7.850528
7.924438
8.813739
8.097887
7.959604
8.165836
9.043813
8.667707
8.449554
8.653998
9.697676
8.971691
8.838773
9.674430
11.024475
10.254979
11.580586
13.013482
14.999509
16.212463
16.922951
18.430948
19.324422
18.705726
18.254519
17.567873
17.077923
15.387535
15.449524
14.161468
14.602542
13.040900
12.534857
11.837482
12.331605
11.653900
10.979772
12.248755
11.796951
12.427568
11.348724
10.836720
11.473894
11.907816
##ZVALUE=260
1.104474
1.290441
1.301765
1.428723
1.465678
1.514554
1.558661
1.662970
1.819730
2.127886
2.404451
3.369451
10.266900
49.500465
112.124681
282.361507
462.261438
765.785575
998.581648
1015.861630
1015.861630
1015.861630
1015.861630
1015.861630
712.713003
484.543443
270.118713
161.805749
93.348622
81.478953
93.238950
119.307637
136.878490
141.999722
140.321851
127.355456
106.213689
76.240897
57.743788
35.482645
25.222898
14.780760
10.865927
8.252859
7.556677
8.009672
7.795691
7.137656
7.794499
7.395744
7.892847
7.653832
7.387996
8.086562
7.545948
7.769465
7.381439
8.160472
7.796884
7.754564
7.775426
7.523894
7.812977
8.136630
8.167624
8.947849
9.330511
9.806752
10.710955
11.742711
12.786984
14.253855
14.545918
15.776753
16.554594
16.536713
16.216636
14.765859
14.953613
13.793707
13.108850
11.980534
12.561679
11.490583
10.887980
10.640621
10.674596
10.353923
9.810925
10.404587
10.927916
10.893941
10.474920
11.120439
10.217428
11.510849
##ZVALUE=265
1.213551
1.198649
1.200438
1.084805
1.294613
1.438856
1.570582
1.729727
1.590848
1.742840
2.154708
2.125502
2.139807
2.774000
5.896688
34.543872
84.986687
219.612718
395.447016
741.095543
1002.715826
1015.896797
1015.896797
1015.896797
1015.896797
1015.896797
969.085693
696.210861
390.960574
228.466988
131.736994
76.647997
77.666640
104.275942
122.158527
143.576860
147.504807
140.662789
125.833750
99.076629
79.456568
53.393841
37.567616
22.263527
14.987588
9.694695
8.095503
7.177591
7.538795
6.885529
7.403493
7.236600
7.648468
7.745624
7.584691
7.861853
7.942915
7.670522
7.685423
7.706881
7.010698
7.471442
7.320642
8.238554
7.658601
7.882714
8.200407
9.304881
9.213686
10.856986
11.808872
12.984872
14.240742
14.598966
14.662743
13.831854
13.640523
13.494492
13.002753
12.131929
11.938810
11.327863
10.976791
10.271668
10.337830
9.725690
9.870529
8.995533
9.725690
9.440780
9.531975
9.535551
9.249449
9.711981
9.808540
9.653568
##ZVALUE=270
1.098514
1.122952
1.164675
1.248717
1.083612
1.032948
1.447797
1.472831
1.351833
1.519918
1.665950
1.701713
1.820922
2.064705
2.415776
2.430677
3.294945
15.949607
48.329830
160.334706
319.811702
638.377666
960.291028
1015.861630
1015.861630
1015.861630
1015.861630
1015.861630
1015.861630
930.025578
559.919477
338.836908
159.670711
87.633729
62.762499
76.885819
103.374720
122.282505
138.744712
144.264698
140.500665
129.662752
102.519989
80.921650
55.275559
38.081408
23.231506
15.196800
10.046959
7.970929
7.352829
7.055998
7.497668
7.275939
7.357597
7.328987
7.428527
7.246733
6.830692
7.106662
7.041693
7.446408
7.280707
7.051826
6.982684
7.811785
7.658601
8.590817
9.647608
9.670854
10.051727
11.387467
12.607574
12.847781
13.499856
12.727976
12.009740
12.185574
11.482835
10.741949
9.819865
9.805560
9.512901
9.654760
9.144545
8.806586
8.277893
8.336902
9.106994
8.534789
9.245872
8.629560
8.864999
7.867813
8.954406
8.708835
##ZVALUE=275
1.028776
1.180768
1.221895
1.071692
1.124740
1.486540
1.140833
1.054406
1.305938
1.496673
1.317859
1.493692
1.709461
1.555681
1.764894
1.823902
1.999736
2.141595
2.454519
7.266998
28.877854
114.488006
255.492926
480.754972
904.638767
1015.861630
1015.861630
1015.861630
1015.861630
1015.861630
1015.861630
1015.861630
756.549835
468.275547
217.677951
115.845799
57.652593
57.434440
78.922510
98.007917
122.170448
136.395693
143.947601
141.184926
123.742819
104.278922
78.635812
59.347749
37.548542
25.209785
15.248656
10.961890
8.405447
7.233620
7.233620
7.201433
7.126927
6.589890
6.620884
6.895661
7.128716
6.979704
6.913543
7.152557
6.959438
7.692575
7.325411
7.633567
8.400679
9.516478
10.043979
10.611415
11.507869
11.979938
12.491941
12.516975
11.339784
11.882782
10.763407
10.243654
9.739995
9.111762
8.853674
8.488894
8.711815
8.097887
8.430481
8.061528
8.757710
7.688999
7.987618
7.835627
7.849932
8.494854
7.798672
7.653832
##ZVALUE=280
1.135468
1.019835
0.928640
0.977516
1.043677
1.120567
0.919700
1.065731
1.130700
1.270771
1.284480
1.263618
1.304746
1.493692
1.423955
1.602769
1.818538
1.967549
1.906753
2.528429
2.495646
3.419518
17.771721
61.565638
200.609565
379.230976
726.927519
1015.861630
1015.861630
1015.861630
1015.861630
1015.861630
1015.861630
1015.861630
951.982737
632.755756
309.584737
161.990523
63.957572
45.125484
56.069493
71.683526
98.720789
119.308829
135.974884
140.752792
136.076808
123.850703
101.050735
80.106854
54.390430
39.302707
22.568703
16.064644
9.992719
8.289814
7.009506
6.797910
6.659627
6.405711
6.508827
6.437898
6.833673
6.708503
6.621480
6.856918
6.606579
7.109642
7.962584
8.765459
8.982420
9.707808
10.609627
10.939837
11.357665
10.833740
10.832548
10.343790
9.538531
8.733869
8.693933
7.938743
7.950664
7.808805
7.541776
7.616878
7.201433
7.438660
7.189512
7.335544
7.311702
7.095933
7.050633
7.563829
7.361770
6.976724
##ZVALUE=285
0.904799
1.009703
0.972748
0.748634
1.059771
1.074672
0.898838
1.013875
1.139641
1.445413
1.262426
1.370907
1.161695
1.350641
1.403689
1.601577
1.674891
1.719594
1.915693
1.957417
2.084970
2.211928
2.558827
3.083944
8.846521
32.123923
115.051866
240.202546
529.075861
856.013894
1015.861630
1015.861630
1015.861630
1015.861630
1015.861630
1015.861630
1015.861630
818.373561
506.916046
235.260725
115.817785
46.334863
35.715699
50.595999
68.428516
95.368624
113.631487
129.406452
136.661530
133.046508
121.287704
99.586844
82.520843
56.866407
40.309429
23.452640
15.168786
9.635687
7.696748
7.206798
6.794930
6.420612
6.577969
6.640553
6.463528
6.984472
7.062554
7.304549
7.632971
8.633733
8.665919
9.421706
9.474754
10.259748
10.481477
10.111928
9.777546
9.073615
8.916855
8.455515
8.020997
7.936954
7.490516
7.159710
6.987453
7.453561
7.344484
6.869435
7.245541
6.866455
6.961823
6.923676
6.888509
7.109642
6.493926
6.597638
##ZVALUE=290
1.105666
1.035929
1.154542
1.076460
1.126528
0.999570
1.161695
1.008511
1.127720
0.953674
1.147985
1.306534
1.231432
1.510978
1.320839
1.420975
1.579523
1.575947
1.606941
1.784563
1.838803
1.857877
2.054572
2.415776
2.620816
2.774596
3.913641
14.085770
69.436431
160.998702
319.315791
689.999461
1012.691855
1015.861630
1015.861630
1015.861630
1015.861630
1015.861630
1015.861630
1011.961699
707.149506
348.993540
180.714726
64.191818
32.348633
34.129620
45.921803
66.965818
85.383654
111.562610
124.974847
134.347677
131.831765
119.348764
103.130937
74.348450
57.349801
36.831498
25.027990
15.138984
10.862947
8.136630
7.293820
6.437898
6.513000
7.034540
6.709695
7.117987
7.416606
8.337498
8.867979
9.301901
9.481907
9.992719
9.685755
9.498000
9.259582
8.960962
8.444786
7.453561
7.767677
7.384419
7.286668
7.325411
7.144809
6.772876
7.108450
6.741881
6.816983
6.566644
6.806850
6.817579
6.878972
6.294847
6.345510
6.366968
##ZVALUE=295
0.797510
0.841618
0.890493
1.031756
0.993609
0.950694
1.017451
1.009703
0.987649
0.904799
1.035929
1.139641
1.119971
1.014471
1.188517
1.177788
1.286864
1.194477
1.408458
1.536608
1.468658
1.662970
1.617670
1.852512
2.024770
2.146959
2.397895
2.609491
3.624558
6.020665
33.298731
99.100471
232.351422
564.308763
926.200747
1015.861630
1015.861630
1015.861630
1015.861630
1015.861630
1015.861630
1015.861630
926.145911
473.279953
259.334445
93.131661
40.324926
23.567677
29.525757
44.668913
60.595870
84.755421
102.679729
120.676756
128.926635
125.931501
114.420652
93.782544
76.233745
53.385496
38.573742
23.369789
16.040802
10.115504
8.253455
7.143617
6.680489
6.908774
6.919503
7.677674
8.289814
8.328557
8.800626
8.846521
8.473992
8.670688
8.812547
8.246899
7.894635
7.470846
6.967783
6.976724
6.728768
6.641746
7.054806
6.656647
6.724000
6.292462
6.038547
6.282926
6.378889
6.493926
6.109476
6.386638
6.455779
6.157756
##ZVALUE=300
0.876784
0.948906
1.139641
0.929832
1.005530
0.942945
0.931621
0.818968
1.028776
0.931621
0.940561
0.983477
0.909567
0.905991
1.233816
1.165867
1.311898
1.232624
1.269579
1.394749
1.314878
1.773834
1.563430
1.508594
1.631975
1.684427
1.927614
2.033710
2.471805
2.768636
2.936721
3.369451
14.598966
52.573681
186.693668
380.575657
811.494589
1015.861630
1015.861630
1015.861630
1015.861630
1015.861630
1015.861630
1015.861630
1015.861630
764.829516
379.619002
195.904970
66.587925
27.741790
19.407868
26.255846
39.582849
54.918528
78.208447
95.455647
113.741755
120.763779
119.867921
112.756491
93.729496
77.239871
54.826736
38.981438
24.273992
16.859770
10.399818
8.496642
7.356405
7.579923
8.027554
8.417964
8.765459
8.633733
8.642673
8.432865
8.131862
7.551908
7.592440
7.426739
6.717443
6.518960
6.357431
6.544590
6.584525
6.623864
6.653666
6.282926
6.435513
6.236434
6.129742
6.266832
6.184578
6.298423
5.587935
5.882978
##ZVALUE=305
0.832677
0.985861
0.853539
1.038909
0.860691
0.994802
0.858903
1.104474
0.797510
0.815988
0.953674
0.847578
0.938773
1.063943
0.906587
1.167655
1.161695
1.132488
1.234412
1.040697
1.196861
1.447797
1.344681
1.392961
1.552701
1.482964
1.792908
1.809597
1.910925
2.005696
2.239943
2.491474
2.807975
3.542900
6.143451
37.456751
112.519860
337.996483
621.930957
1015.861630
1015.861630
1015.861630
1015.861630
1015.861630
1015.861630
1015.861630
1015.861630
880.199671
545.420647
247.675776
116.984844
36.418438
17.628670
18.535852
24.963617
39.393902
54.127574
74.444413
91.074705
107.169747
114.230514
113.470554
106.650591
89.246631
72.543621
50.775409
37.683845
23.145676
16.081929
11.059642
9.392500
8.476973
8.765459
8.440614
8.690953
7.937551
7.608533
7.193685
7.443428
7.010698
6.755590
6.692410
6.534457
6.513000
6.515980
6.359816
6.453991
6.396770
6.234646
6.151795
6.207824
6.105900
6.250739
5.839467
5.993843
5.749464
##ZVALUE=310
0.835657
0.927448
0.786781
0.801682
0.750422
0.871420
0.845790
0.846982
0.939965
1.054406
1.075864
0.972748
1.075864
1.043677
1.019835
1.002550
0.992417
0.891685
0.988841
1.106858
1.021624
0.955462
1.374483
1.170635
1.409650
1.338720
1.508594
1.477599
1.646876
1.857877
1.848936
1.925826
2.058744
2.412796
2.526641
3.069639
3.743768
15.347004
54.263473
197.666883
411.096811
890.941620
1015.861630
1015.861630
1015.861630
1015.861630
1015.861630
1015.861630
1015.861630
1015.861630
818.630457
401.208997
208.380818
68.524480
25.689602
13.774633
15.947819
23.036599
32.917857
49.815774
63.580871
84.937811
97.282529
107.455850
107.699633
99.667907
89.093447
69.963932
54.236650
35.669804
26.189685
17.754436
13.206601
10.249615
8.949637
8.151531
7.397532
7.183552
6.942749
6.598830
6.471872
6.355643
6.601810
6.308556
6.342530
6.069541
6.206632
6.399751
6.556511
6.186962
5.875826
5.694628
6.087422
5.824566
5.667806
5.883574
##ZVALUE=315
0.711679
0.615716
0.727773
0.786781
0.714660
0.621676
0.603795
0.719428
0.775456
0.895858
0.780821
0.881553
0.886917
0.833869
0.963807
0.814795
0.978708
0.918508
1.118779
1.016855
1.067519
1.147985
1.259446
1.188517
1.452565
1.375675
1.200438
1.435876
1.308918
1.457930
1.484752
1.666546
1.789927
1.986623
2.280474
2.292991
2.465844
2.925992
3.245473
7.099509
27.505755
124.796629
287.542939
685.669780
1015.856862
1015.856862
1015.856862
1015.856862
1015.856862
1015.856862
1015.856862
1015.856862
1003.062725
548.997521
291.597843
102.753639
39.976835
14.275908
12.635589
15.317798
20.436645
31.857491
43.017864
61.092973
76.187849
94.420910
101.393461
101.706982
96.973777
81.714988
68.624616
51.801801
37.914515
24.106503
17.582774
11.586547
8.673668
7.419586
6.894469
6.413460
6.170869
6.160736
6.283522
5.735755
6.130934
6.327629
5.924702
6.229877
6.072521
5.979538
6.096959
6.122589
5.863905
5.886555
5.702972
5.708933
##ZVALUE=320
0.717640
0.732541
0.713468
0.900626
0.826716
0.819564
0.850558
0.965595
0.865459
0.719428
0.863671
0.778437
0.890493
0.852942
0.914931
1.074672
0.903606
0.919700
0.981688
1.171827
1.069903
1.045465
1.170635
1.178980
1.146793
1.140833
1.196861
1.355410
1.322627
1.395941
1.450777
1.625419
1.596808
1.736879
1.758933
2.050996
2.312660
2.439618
2.582669
2.873540
3.069639
4.231930
12.441874
71.569681
189.321637
510.135889
886.485577
1015.861630
1015.861630
1015.861630
1015.861630
1015.861630
1015.861630
1015.861630
1015.861630
744.797587
420.252681
169.910789
73.199868
20.655990
11.720657
11.803508
13.307929
19.072890
26.293993
41.732788
55.060983
73.681474
85.326433
94.898939
98.022819
91.812611
82.028508
63.363910
50.072670
34.081936
24.091601
15.282631
11.034608
8.180737
6.974936
6.193519
5.748868
6.144643
6.018877
5.925894
5.902648
5.989671
5.954504
5.800724
5.715489
5.457997
5.898476
5.521774
5.690455
5.700588
##ZVALUE=325
0.902414
0.714660
0.708699
0.789762
0.919700
0.667572
0.931621
0.810623
0.764728
0.971556
0.980496
0.976920
0.841618
1.003742
1.102686
0.921488
1.015663
1.088977
1.086593
0.744462
1.082420
1.237988
1.151562
1.084805
1.352429
1.201630
1.352429
1.489520
1.297593
1.394749
1.531839
1.421571
1.321435
1.610518
1.671910
1.858473
1.991987
1.939535
2.094507
2.328753
2.491474
2.746582
2.955794
3.573895
7.053614
44.205785
122.126937
347.170830
645.293593
1015.957594
1015.957594
1015.957594
1015.957594
1015.957594
1015.957594
1015.957594
1015.957594
948.138833
568.728447
246.684551
113.971829
31.635761
13.067722
10.386705
10.238886
13.251901
17.489791
27.041435
38.054585
55.304766
68.769455
82.851648
91.275573
92.380643
87.297559
73.844790
61.016679
44.906735
32.315850
20.570755
14.320612
9.663701
7.939935
7.064939
6.216764
5.888939
5.786419
5.857944
5.654693
5.913973
5.935431
5.740523
5.399585
5.570650
5.440712
5.218983
##ZVALUE=330
0.684857
0.829697
0.677705
0.625849
0.700951
0.569820
0.852942
0.796914
0.701547
0.719428
0.691414
0.829697
0.871420
0.769496
0.939965
0.879765
0.757575
0.780821
0.839829
0.741482
0.931621
0.909567
0.923872
0.943542
1.033545
0.982881
1.142621
1.028776
1.104474
1.120567
1.041889
1.374483
1.340508
1.442432
1.349449
1.320839
1.534820
1.684427
1.772642
1.829863
1.937747
2.215505
2.188683
2.682805
2.975464
3.323555
4.231930
18.562675
64.721704
228.135586
458.306670
951.498747
1015.861630
1015.861630
1015.861630
1015.861630
1015.861630
1015.861630
1015.861630
1015.861630
767.222643
349.527001
171.415806
55.522919
19.800663
10.185838
9.494424
10.208488
12.460947
17.954707
24.904609
37.435889
50.070882
66.601634
77.146888
85.301995
85.681677
78.405738
69.921613
53.836703
42.109489
28.511882
20.733476
14.149547
10.594726
7.700920
6.782413
6.024837
5.973577
5.599856
5.575418
5.588531
5.480647
5.433559
5.388856
5.482435
##ZVALUE=335
0.694990
0.714660
0.682473
0.763535
0.615716
0.740886
0.842810
0.848770
0.649691
0.917912
0.654459
0.842810
0.763535
0.774860
0.952482
0.766516
0.748634
0.784993
0.654459
0.873804
0.824928
1.010895
0.942945
1.061559
0.975728
1.068711
0.988841
1.045465
1.003742
1.054406
1.047850
1.120567
1.261830
1.127720
1.228452
1.303554
1.443624
1.446605
1.724958
1.551509
1.635551
1.947880
1.945496
2.056956
2.233982
2.389550
2.774596
3.141761
3.633499
7.130504
43.242574
123.783946
373.498797
698.832870
1015.861630
1015.861630
1015.861630
1015.861630
1015.861630
1015.861630
1015.861630
1015.861630
929.246545
547.474623
229.089856
101.540685
27.606487
11.979938
9.648800
9.524822
10.370612
12.639761
17.540455
23.386478
35.664439
46.462417
61.040521
71.610808
78.959465
78.840852
73.028803
64.734817
53.115487
42.096972
29.407740
21.629930
14.025569
10.426641
7.818937
6.392598
5.981922
5.688667
5.670786
5.454421
5.117655
5.390644
##ZVALUE=340
0.694990
0.739694
0.668764
0.717640
0.689626
0.588894
0.684857
0.687838
0.622869
0.628829
0.782609
0.826716
0.907779
0.950694
0.820756
0.764728
0.812411
0.853539
0.831485
0.697970
0.957847
0.814795
0.975728
0.817776
0.984669
0.924468
0.982881
1.078844
1.021624
0.993609
1.187921
0.991821
1.319647
1.260638
1.064539
1.298785
1.246929
1.310706
1.408458
1.386404
1.544952
1.382828
1.649857
1.963973
1.831651
2.090931
2.119541
2.416968
2.626777
3.016591
3.238916
5.029440
15.728474
85.256696
217.620730
573.943853
968.528986
1015.861630
1015.861630
1015.861630
1015.861630
1015.861630
1015.861630
1015.861630
1015.861630
629.424453
342.133641
129.503608
46.683550
13.431907
10.141730
9.867549
9.724498
10.337830
11.790991
16.755462
22.727847
33.357739
44.353604
58.050752
67.344904
73.454976
74.428916
70.060492
62.613487
50.336719
40.797591
28.866529
21.278858
14.276505
10.476708
7.546544
6.299615
5.893707
5.287528
5.267859
##ZVALUE=345
0.593662
0.653863
0.793934
0.556707
0.574589
0.797510
0.647902
0.716448
0.548959
0.630617
0.558496
0.564456
0.631809
0.691414
0.578761
0.708699
0.774860
0.785589
0.838637
0.929832
0.889897
0.738502
0.897646
0.802875
0.896454
0.774860
0.765920
0.820756
0.960827
0.988841
1.034737
0.988841
1.015663
0.949502
1.122952
1.007915
1.122952
1.091957
1.309514
1.277924
1.438856
1.333952
1.568794
1.545548
1.563430
1.751781
1.885891
1.812577
1.883507
2.227426
2.397895
2.799630
3.081560
3.726482
7.330775
46.694875
136.827826
383.600593
707.247853
1015.861630
1015.861630
1015.861630
1015.861630
1015.861630
1015.861630
1015.861630
1015.861630
835.424662
470.062494
186.617970
76.777935
21.177530
11.236668
9.717941
9.043813
8.500814
8.938909
10.535717
13.283491
20.904541
28.273463
40.754676
50.713420
61.288476
66.630840
67.718625
65.443516
58.041811
49.836636
38.838983
29.470921
19.739866
15.089512
10.176897
7.646680
6.253719
##ZVALUE=350
0.642538
0.620484
0.648499
0.714660
0.781417
0.765920
0.769496
0.772476
0.710487
0.624657
0.773668
0.714660
0.624657
0.738502
0.597835
0.857711
0.762939
0.864863
0.810623
0.900626
0.826716
0.796914
0.839829
0.872612
0.751615
0.883937
0.902414
0.838637
0.940561
0.926852
0.867844
0.966787
1.060963
1.070499
1.062751
0.979900
1.060963
1.068711
1.097918
1.246929
1.256466
1.218915
1.253486
1.378655
1.382828
1.426935
1.749992
1.650453
1.804829
2.033710
1.990795
2.264977
2.494454
2.714992
2.980828
3.452897
4.663467
23.307800
78.910589
258.789659
510.279536
997.145772
1015.857458
1015.857458
1015.857458
1015.857458
1015.857458
1015.857458
1015.857458
1001.871824
650.678873
289.807916
124.788880
30.395985
12.613535
9.176731
8.045435
7.807612
7.225871
7.856488
9.227991
13.262630
18.237829
26.000738
34.160614
45.767426
54.080486
61.025620
62.568784
61.523914
56.521893
45.917630
38.472414
27.783513
20.772815
14.605522
##ZVALUE=355
0.762939
0.763535
0.881553
0.829697
0.784993
0.709891
0.750422
0.811815
0.606775
0.655651
0.740886
0.605583
0.742674
0.739694
0.720620
0.617504
0.974536
0.959635
0.792742
0.932813
0.892878
0.829697
0.894666
0.943542
0.864863
0.937581
0.996590
1.042485
1.125932
1.084805
1.128912
1.007915
1.119971
0.976920
1.136661
1.244545
1.007915
1.113415
1.087785
1.004934
1.274943
1.185536
1.404881
1.412630
1.303554
1.383424
1.423955
1.650453
1.584888
1.779795
2.013445
1.930594
2.178550
2.394915
2.383590
2.563596
2.856851
3.132820
3.806949
11.131763
41.918755
175.482631
372.574925
809.789896
1015.875936
1015.875936
1015.875936
1015.875936
1015.875936
1015.875936
1015.875936
1015.875936
829.688907
357.977748
167.302489
45.314431
16.343594
9.242892
8.248687
7.456541
7.204413
7.126927
7.407665
9.059906
11.034608
16.443729
22.449493
32.421947
39.209723
48.878789
54.234862
57.480931
56.869984
51.340461
45.570731
35.866499
##ZVALUE=360
0.731945
0.625849
0.639558
0.706911
0.735521
0.803471
0.710487
1.026988
0.809431
0.828505
0.729561
0.767708
0.774860
0.871420
0.805855
0.868440
0.721812
0.907779
0.747442
0.911951
0.916719
0.893474
0.910759
0.823736
0.929832
0.902414
0.914931
1.083612
1.102686
0.999570
1.032948
1.184940
0.992417
1.029968
0.944734
1.194477
1.151562
1.200438
1.222491
1.256466
1.226664
1.289845
1.433492
1.274943
1.424551
1.530647
1.576543
1.520514
1.492500
1.690984
1.688600
1.824498
1.927614
2.020597
2.299547
2.448559
2.438426
2.646446
3.072619
3.434420
4.006624
5.968809
18.355846
89.810491
227.736831
592.520833
978.298783
1015.861630
1015.861630
1015.861630
1015.861630
1015.861630
1015.861630
1015.861630
1001.258492
512.802601
258.765817
84.963441
28.820634
9.915829
8.300543
7.723570
7.168651
6.855726
6.569624
6.800890
7.553697
9.856820
12.534857
18.799901
24.776459
34.824610
41.538477
49.031973
51.742792
51.745772
##ZVALUE=365
0.708699
0.738502
0.641942
0.814795
0.905991
0.938773
0.753999
0.708699
0.704527
0.847578
0.797510
0.676513
0.726581
0.741482
0.776649
0.696778
0.836849
0.812411
1.040697
1.030564
1.053810
0.975728
0.883937
0.958443
0.821948
0.948906
0.868440
0.831485
1.064539
0.947714
0.941753
0.920892
0.974536
0.883937
1.136661
1.113415
1.086593
1.007915
1.061559
1.269579
1.117587
1.270771
1.296997
1.170635
1.365542
1.402497
1.425743
1.347661
1.547933
1.541972
1.606941
1.804829
1.584888
1.911521
1.975894
2.013445
2.153516
2.224445
2.416968
2.903938
3.081560
3.387928
3.882647
4.771948
8.586645
50.220490
142.839551
398.876667
758.081675
1015.861630
1015.861630
1015.861630
1015.861630
1015.861630
1015.861630
1015.861630
1015.861630
705.896616
374.224782
127.394795
45.593977
11.944771
8.285642
7.368922
7.156730
6.338954
6.569624
5.896688
6.070733
6.764531
7.755756
11.188984
15.190840
22.417903
28.686523
36.284924
##ZVALUE=370
0.667572
0.628829
0.927448
0.857711
0.733733
0.758767
0.765920
0.946522
0.783801
0.866652
0.878572
0.861883
0.778437
0.765920
0.786781
0.837445
0.875592
0.900626
0.677705
0.822544
0.920892
0.867844
0.792742
0.646710
0.704527
0.788569
0.746846
0.798702
1.026988
0.781417
0.802875
0.811815
1.038909
0.991821
0.862479
0.891685
1.110435
1.035929
1.065731
1.100898
1.233816
1.198649
1.085997
1.264811
1.143813
1.321435
1.370907
1.264811
1.320839
1.261830
1.369715
1.535416
1.338720
1.600981
1.481771
1.749992
1.776814
1.975894
1.864433
1.966953
2.173781
2.445579
2.627969
3.001690
3.101826
3.772974
4.941821
26.679635
91.236830
295.530558
577.937961
1015.869975
1015.869975
1015.869975
1015.869975
1015.869975
1015.869975
1015.869975
1015.869975
892.148614
496.931672
186.851621
76.307654
19.630790
8.874536
7.040501
6.676912
6.158948
6.010532
5.617738
5.274415
5.309582
5.672574
6.950498
9.055734
13.527870
##ZVALUE=375
0.674725
0.738502
0.610948
0.534654
0.782609
0.725985
0.637770
0.724792
0.770688
0.784993
0.705719
0.875592
0.827909
0.756979
0.611544
0.702739
0.791550
0.879765
0.720620
0.705719
0.818968
0.715852
0.905991
0.725985
0.823736
0.778437
0.703931
0.932813
0.905991
0.819564
0.816584
0.835657
0.722408
0.950694
0.874996
0.895858
0.967979
0.970960
1.108646
1.230836
1.020432
1.003742
1.055598
0.984669
0.998974
1.131892
1.288652
1.110435
1.166463
1.369715
1.083612
1.192689
1.233816
1.191497
1.294613
1.399517
1.574755
1.562834
1.547933
1.753569
1.729727
2.039671
2.013445
2.159476
2.387762
2.631545
2.970695
3.487468
4.303455
12.920499
47.426820
180.654526
404.609442
933.552980
1015.867591
1015.867591
1015.867591
1015.867591
1015.867591
1015.867591
1015.867591
1015.867591
700.056553
333.270431
159.177780
44.141412
14.899969
7.504821
6.596446
6.138682
5.797744
5.078912
5.060434
4.866719
4.815459
5.156994
##ZVALUE=380
0.744462
0.657439
0.688434
0.823736
0.483990
0.675917
0.584722
0.682473
0.686646
0.774860
0.870824
0.646710
0.901818
0.882745
0.743866
0.740886
0.752807
0.787973
0.723600
0.751615
0.816584
0.520945
0.845790
0.935793
0.766516
0.651479
0.660419
0.774860
0.717640
0.747442
0.838637
0.681877
0.786781
0.899434
0.872612
0.776649
0.904799
0.986457
0.864863
1.017451
1.054406
0.819564
0.874996
0.970960
0.896454
1.155734
0.973940
1.008511
1.065731
1.047850
1.188517
1.197457
1.191497
1.163483
1.284480
1.327991
1.337528
1.332760
1.395941
1.612902
1.574755
1.538992
1.818538
1.831651
2.063513
2.249479
2.393723
2.771616
3.064871
3.585815
4.412532
6.291866
30.765533
100.215673
323.675871
629.335642
1015.896797
1015.896797
1015.896797
1015.896797
1015.896797
1015.896797
1015.896797
1015.896797
909.675956
529.059768
210.931897
89.778900
20.979643
8.666515
6.573796
6.031990
5.520582
5.261898
4.890561
4.687905
##ZVALUE=385
0.612736
0.671744
0.524521
0.664592
0.596642
0.622869
0.568628
0.503659
0.587702
0.628829
0.592470
0.555515
0.607967
0.577569
0.509620
0.489950
0.544786
0.572801
0.615716
0.699759
0.530481
0.603795
0.589490
0.625849
0.556707
0.605583
0.562668
0.729561
0.672936
0.767708
0.712872
0.751615
0.784993
0.810623
0.807643
0.707507
0.739694
0.741482
0.839829
0.663996
0.882745
0.985861
0.863671
0.855923
0.763535
0.797510
0.855923
0.795722
1.005530
0.764728
1.091957
1.115799
1.185536
0.992417
1.096725
1.072884
1.167655
1.262426
1.386404
1.199841
1.388788
1.451969
1.580715
1.550913
1.646876
1.952648
1.939535
2.092719
2.395511
2.867579
3.099442
3.486872
3.718734
4.251599
13.504624
50.460696
202.353597
447.016954
959.554911
1015.869975
1015.869975
1015.869975
1015.869975
1015.869975
1015.869975
1015.869975
1015.869975
782.578588
343.782902
159.111619
46.261549
14.892817
6.321669
5.572438
5.281568
4.891753
##ZVALUE=390
0.487566
0.600815
0.518560
0.518560
0.556707
0.640750
0.676513
0.606775
0.544786
0.656843
0.543594
0.643730
0.610948
0.580549
0.619888
0.687838
0.600815
0.782609
0.579953
0.652671
0.671744
0.619888
0.684857
0.663996
0.717640
0.808835
0.791550
0.612736
0.714660
0.656843
0.626445
0.674725
0.763535
0.624657
0.868440
0.690818
0.774860
0.693798
0.742674
0.855923
0.806451
0.865459
0.910759
0.847578
0.877976
0.835657
0.784993
0.881553
1.050830
0.942945
0.854731
1.082420
1.036525
0.958443
1.143813
1.146793
1.146793
1.197457
1.277924
1.280904
1.300573
1.365542
1.410842
1.381636
1.686811
1.702905
1.782775
2.101660
2.412796
2.609491
2.707839
3.099442
3.309846
3.337860
3.368855
4.005432
5.984902
35.653710
117.457509
381.549597
750.743747
1015.881896
1015.881896
1015.881896
1015.881896
1015.881896
1015.881896
1015.881896
1015.881896
985.725522
591.294765
231.797695
98.349452
22.735596
8.181930
5.790591
##ZVALUE=395
0.429749
0.535846
0.673532
0.714660
0.582933
0.611544
0.629425
0.597835
0.560880
0.464916
0.502467
0.592470
0.532866
0.574589
0.705719
0.660419
0.508428
0.652671
0.714660
0.662804
0.622869
0.704527
0.588894
0.545979
0.728965
0.696778
0.744462
0.640750
0.686646
0.661612
0.654459
0.740886
0.612736
0.666976
0.668764
0.653863
0.794530
0.791550
0.777841
0.756979
0.857711
0.890493
0.786781
0.659823
0.813603
0.846982
0.914931
1.011491
1.027584
1.012683
0.965595
1.011491
0.981688
1.079440
1.127720
1.088977
1.286864
1.044869
1.234412
1.170635
1.191497
1.335740
1.303554
1.334548
1.525879
1.581907
1.764894
1.902580
2.259612
2.436638
2.508759
2.570748
2.708435
2.931952
2.849698
3.015995
3.144741
3.496408
4.204512
18.370748
68.986416
257.474780
534.119606
1015.867591
1015.867591
1015.867591
1015.867591
1015.867591
1015.867591
1015.867591
1015.867591
1015.867591
771.507621
352.019668
160.401464
46.136975
##ZVALUE=400
0.554919
0.537634
0.445843
0.539422
0.627637
0.633597
0.509620
0.696778
0.634789
0.571609
0.697970
0.614524
0.691414
0.753999
0.518560
0.726581
0.643730
0.436902
0.492930
0.559688
0.690818
0.673532
0.787973
0.690818
0.670552
0.645518
0.569820
0.768900
0.794530
0.779629
0.660419
0.697970
0.724792
0.837445
0.879765
0.704527
0.785589
0.724792
0.764728
0.801682
0.727773
0.820756
0.826716
0.779629
0.937581
0.872612
0.930429
1.146793
1.028776
0.817776
0.786781
0.891685
0.927448
1.026988
1.005530
1.026988
1.037717
1.088977
1.176000
1.206994
1.340508
1.351833
1.498461
1.408458
1.387596
1.657605
1.599789
1.810789
1.958609
2.470613
2.472997
2.728701
2.557635
2.599955
2.588630
2.628565
2.604723
2.757907
3.048778
3.554821
4.046559
10.668635
39.611459
151.699781
342.751741
808.100700
1015.861630
1015.861630
1015.861630
1015.861630
1015.861630
1015.861630
1015.861630
1015.861630
971.166492
488.973856
##END
