##TITLE=1-2
##FORMAT=SPECTACLE-ASCII V-1.2
##DATA TYPE=ULTRAVIOLET SPECTRUM
##SECOND TYPE=ULTRAVIOLET SPECTRUM
##DATE=04/04/18
##TIME=15:07:03
##SPECTROMETER/DATA SYSTEM=SPECTACLE
##XUNITS=NM EM
##YUNITS=ENERGY
##YFACTOR=1
##FIRSTX=220
##LASTX=450
##NPOINTS=116
##3DDATA=Equidistant
##ZUNITS=NM EX
##FIRSTZ=210
##LASTZ=400
##ZPOINTS=39
##XYDATA=(Y..Y)
##ZVALUE=210
21.600723
21.605492
14.583468
12.097955
11.484623
9.408593
10.819435
7.870793
8.000731
5.657673
4.616976
4.284978
4.749894
3.995895
4.037619
3.800988
4.019737
4.309416
4.956722
4.302859
4.683733
5.889535
6.217957
7.012486
8.077621
7.480979
9.090900
8.721948
10.511875
12.025833
11.437535
13.255477
13.496876
14.117956
13.871789
13.302565
13.451576
14.105439
14.133453
15.480518
14.323592
15.826821
14.569759
16.425848
16.154647
16.284585
14.279485
16.558766
16.514659
16.769767
16.479492
18.594861
17.512441
18.570423
16.439557
16.639829
17.064810
16.808510
15.986562
15.950799
16.742945
15.597939
17.521977
16.524792
16.768575
16.941428
17.149448
17.756820
18.144846
19.472837
24.019480
24.403930
29.899478
30.877590
33.508539
34.184456
33.475757
31.558871
29.677749
28.518438
26.917458
25.917888
21.998882
19.836426
18.620491
15.704632
12.970567
13.387799
13.303757
14.123917
16.785860
20.103455
27.537942
34.267902
43.615699
51.222444
59.259534
67.863464
79.820752
82.661510
87.743998
86.979866
88.230968
82.087517
77.036619
77.942610
65.347552
58.500767
53.165555
43.406487
35.205483
28.737783
23.046732
21.210909
17.952919
16.164780
##ZVALUE=215
69.235563
64.936876
52.608848
42.822957
32.018423
22.943616
18.858910
17.350912
15.765429
14.184713
14.227629
10.218620
8.012652
6.318688
5.556941
4.771948
4.683733
4.494786
3.932714
5.084872
5.564690
5.452633
6.617904
7.161498
7.073879
8.144975
8.762479
9.420514
11.567473
11.726618
12.182593
14.530420
13.309717
14.906526
13.822913
15.317798
14.926791
15.336871
16.397834
16.135573
16.764998
17.755628
16.699433
16.873479
18.861890
18.956661
19.636750
20.378828
20.012856
20.505786
21.724701
21.192431
20.961761
21.783710
19.817948
22.026896
21.950603
21.014810
20.832419
20.990968
21.820664
21.441579
20.407438
19.868612
18.725991
19.559860
20.596981
18.797517
22.314787
22.742748
23.413897
26.131868
29.511452
30.505657
32.329559
30.883551
30.340552
30.396581
31.167865
29.264688
24.642944
22.720695
20.103455
17.867684
16.738772
14.011860
12.666583
11.838675
10.778904
10.416508
9.933710
10.514855
11.816621
12.475848
14.235973
21.312833
24.687648
36.202669
46.591759
57.992935
66.822767
83.114505
93.423724
111.175776
111.629963
127.836466
128.102899
125.445724
124.507546
120.879412
111.304522
103.290677
93.554854
79.921484
64.635873
50.304532
##ZVALUE=220
149.512887
153.514743
145.830512
128.114820
112.608671
76.965690
59.364438
40.065646
30.617714
27.601719
27.149916
24.312735
22.001863
21.875501
15.268922
13.779998
8.147955
6.717443
4.921556
5.104542
6.173849
5.931854
6.535649
6.321669
7.713437
7.183552
9.061694
9.293556
9.908676
12.490749
12.307763
12.809634
14.172792
13.513565
15.620589
15.723705
16.951561
17.719865
18.226504
19.688606
20.003915
20.736456
22.984743
21.747947
24.920702
24.247766
25.442839
25.604963
28.677583
27.442575
29.115677
28.483868
29.737949
28.478503
30.565858
29.827952
30.342937
29.125810
28.542876
29.199719
28.414726
28.195977
26.657581
27.925968
25.507808
25.198460
26.261806
25.877953
25.062561
26.817918
27.028918
30.491948
31.399727
32.771826
35.135746
33.129454
35.488605
33.971667
31.556487
29.084682
27.305484
24.065971
22.357702
20.436645
17.717481
16.042590
14.690757
12.450814
12.772679
12.673736
12.031794
11.608601
11.631846
10.806918
10.999441
11.063814
9.339452
10.961890
12.518764
19.094944
23.634434
36.130548
48.319697
64.290762
80.838799
106.772780
119.759440
145.645738
167.242885
182.216763
192.588568
205.266476
196.432471
195.509791
188.527703
175.253749
##ZVALUE=225
193.620920
199.206471
236.671567
264.362693
266.788602
246.205926
207.232833
149.148703
108.265877
72.107911
53.559542
42.488575
41.136742
40.216446
37.534833
32.808781
28.022528
21.017790
17.241836
12.251735
9.031892
7.130504
7.277727
6.901622
7.719994
8.152723
8.313656
9.661913
10.263920
10.563731
11.434555
12.949705
12.572408
14.327765
14.973879
16.152859
17.164946
19.753575
20.156503
24.336576
23.358464
25.287867
27.414560
26.125908
29.958487
31.330585
31.689405
33.004880
33.370852
36.537647
35.611987
38.059950
39.857626
38.288832
37.946701
40.493608
39.492846
36.137700
36.260486
36.210418
35.921931
36.204457
37.943721
34.450889
31.725764
32.994747
33.353567
31.527877
31.567812
33.542514
34.738779
35.082698
34.763813
35.155416
36.589503
36.180615
34.564734
31.976700
30.945539
28.055906
26.743412
25.382638
23.134947
20.130873
18.176436
17.773509
16.067624
14.526844
15.191436
12.885928
13.139844
12.963414
11.929870
12.158751
11.535883
12.563467
10.689497
10.350943
10.083914
9.859800
10.607839
11.822581
12.236834
14.429688
21.308661
30.187964
45.899749
66.867471
86.990595
112.887621
141.318440
181.486607
210.467577
243.330002
274.461508
303.468704
##ZVALUE=230
128.146410
139.006972
223.927498
302.007794
376.216769
448.742509
467.944741
440.574884
390.003920
291.802883
217.737556
139.115453
93.022585
68.703890
60.484409
59.071779
62.188506
60.490966
51.514506
39.021969
31.864643
22.287965
15.645623
10.306835
8.712411
8.572936
7.726550
9.807944
8.957982
10.120869
11.120439
10.830760
12.685657
13.454556
15.101433
17.298460
17.448664
20.021796
22.869706
25.122762
26.973486
28.439760
27.318597
30.638576
32.388568
33.318996
36.445856
37.246943
39.708614
41.679740
42.821765
43.792725
43.304563
41.654706
42.353868
43.446422
43.205619
43.751001
41.227937
43.068528
41.508675
42.005777
41.873455
39.967895
35.650730
37.141442
37.072897
35.566688
36.862493
36.298633
37.342906
38.560629
40.120482
39.803982
40.077567
37.899613
37.874579
34.381747
35.108924
34.868717
30.159950
27.318597
24.833679
22.521615
20.765662
17.861724
18.087626
16.101599
14.688969
15.727878
13.867617
14.011860
12.542605
12.869835
13.004541
12.717843
12.947917
11.875629
12.407899
11.275411
11.828542
11.489987
11.813641
11.002421
11.653900
12.148619
11.053681
12.540817
15.615821
23.935437
36.403537
60.039759
84.377527
127.979517
161.674023
216.161609
##ZVALUE=235
38.122535
43.322444
84.402561
189.007521
284.864902
423.510671
552.929640
674.153566
713.878870
688.936710
603.824854
455.769897
326.111913
201.142430
139.805675
106.844902
86.983442
84.471703
90.111494
93.210936
81.616640
74.365735
54.812431
42.153001
26.729703
19.235611
13.992786
10.361671
9.646416
9.885430
10.294914
11.435747
12.808442
14.011860
14.061928
15.834570
16.135573
19.028783
20.767450
21.212697
24.458766
26.922822
27.130842
28.716922
32.338500
32.789707
32.809973
34.956932
35.509467
37.466884
37.143826
37.662983
42.450428
40.841699
39.159656
40.612817
38.642883
40.225983
38.567781
38.085580
40.122867
40.334463
36.848783
35.578609
35.870671
33.366680
34.623742
33.980608
33.739805
34.119487
38.150549
35.810471
36.298633
36.511421
37.979484
34.876466
35.511851
34.379959
31.482577
30.342937
29.696822
26.244521
24.123788
22.045970
20.214915
19.090772
17.116666
16.676784
16.118884
17.334819
15.496612
14.211535
14.440417
13.115406
12.735724
13.715625
13.229847
12.648702
13.453960
11.804700
12.651682
12.760758
12.366772
13.338923
11.024475
12.899637
11.424422
11.943579
11.399984
12.371540
11.320710
11.499524
12.610555
16.961694
24.217963
44.807792
##ZVALUE=240
3.676414
3.758669
11.859536
34.108758
78.542829
187.750459
316.890478
542.608500
729.348660
915.907621
1011.103988
1003.021002
899.982452
714.070797
545.610785
338.628888
231.950879
152.546763
117.216706
107.670426
114.430785
117.630959
114.408731
104.901791
85.775852
64.892769
48.442483
36.180615
24.333596
18.461943
13.733506
13.638735
13.014674
12.971759
13.549924
16.177893
17.037988
17.631650
18.303990
20.960569
22.175908
20.807981
23.614764
24.013519
25.608540
24.934411
29.291511
30.035973
30.775666
32.827854
29.522777
31.389594
31.141639
32.468438
32.994747
29.694438
30.333996
30.336976
30.521750
31.084418
30.900836
30.040741
31.082630
31.106472
28.836727
28.369427
27.469993
28.792620
28.959513
29.027462
31.096935
31.578541
33.215880
35.516620
31.649470
35.150647
31.582713
31.975508
30.149817
26.539564
24.432540
22.696853
20.738840
20.037889
18.466711
17.677546
16.245842
16.870499
14.452934
14.318824
12.462735
14.187694
14.349818
13.270974
13.025999
12.365580
12.056828
12.555718
13.340712
12.718439
12.540817
12.460947
11.630654
12.044907
12.323856
11.629462
12.011528
12.169480
11.686683
12.018681
12.511611
11.851788
10.326505
11.393428
11.672974
10.968447
##ZVALUE=245
2.887845
2.516508
2.160668
2.470613
6.655455
23.446679
60.366988
166.884661
298.579931
531.648993
754.743814
996.784568
1015.914679
1015.914679
1015.914679
936.479568
748.254657
495.525599
334.239602
187.444687
128.814578
111.115575
115.918517
129.635930
131.464601
128.647685
116.497874
100.039840
72.886944
59.071779
37.363768
28.550625
20.085573
16.324520
14.089942
14.245510
15.777946
15.937686
16.763806
17.644763
18.384457
18.801689
19.881725
21.243691
21.649599
21.048784
21.937490
23.115873
22.998452
23.222566
24.958849
23.647547
25.276542
25.873780
25.302768
24.708509
23.192763
23.740530
25.352836
24.597645
23.824573
23.631454
23.672581
22.746921
22.100806
21.950603
21.110773
22.432804
23.249984
23.300648
23.816824
27.097464
26.671886
28.240681
28.130412
26.188493
27.995706
23.395419
22.627711
20.938516
19.023418
17.428994
16.871691
16.043782
14.844537
13.838410
13.292432
13.019443
12.427568
10.971427
11.646748
11.891723
11.323690
12.807846
11.649728
11.862516
11.193752
11.446476
10.179877
11.438727
11.173487
11.720657
11.095405
10.303855
10.484457
11.448860
9.554625
10.483861
10.580420
10.030866
9.674430
9.615421
9.985566
10.031462
9.760857
9.230971
##ZVALUE=250
2.228618
2.241731
2.314448
2.255440
2.082586
2.394915
3.897548
16.358495
44.295788
123.943686
243.194699
488.913655
723.558664
998.610854
1015.914679
1015.914679
1015.914679
1015.914679
977.916718
670.872927
459.691882
252.896547
156.311989
111.550689
109.192729
122.499466
137.444735
140.465498
135.447979
128.062963
107.142925
87.197423
57.768822
42.934418
27.696490
21.310449
17.310977
16.172528
16.236901
16.880631
16.364455
16.353726
18.849969
19.960999
19.903779
20.921826
22.430420
22.735596
23.793578
22.760630
24.716854
24.853945
23.632646
23.245811
24.930835
24.179816
23.144484
24.143457
25.052428
24.544597
23.683906
22.821426
23.025870
21.549463
22.059679
20.699501
22.303462
22.197962
21.329522
21.178722
21.674633
22.480488
22.430420
23.360848
24.072528
22.990704
22.719502
21.763444
18.524528
16.573668
16.583800
16.169548
13.859868
14.283657
12.943745
12.777448
12.122989
11.743903
10.374784
10.175705
11.160970
10.346770
10.430813
9.619594
10.356903
9.235740
9.262562
10.314584
9.217858
9.752512
9.448528
10.616779
9.104609
9.994507
8.849502
8.823872
9.316802
9.202957
9.060502
8.099675
9.471774
9.038448
8.336902
10.146499
9.501576
8.622408
##ZVALUE=255
1.730919
1.607537
1.973510
1.829863
2.067685
2.114773
2.246499
1.880527
2.971888
8.520484
29.498935
84.285736
218.025446
382.977724
656.998754
915.894508
1015.913486
1015.913486
1015.913486
1015.913486
1015.913486
950.002074
586.615801
370.364785
224.970579
125.222802
99.508762
110.323429
126.862526
142.383575
149.714947
147.456527
135.104656
110.219717
88.922977
62.436461
47.036409
31.774640
23.989677
20.692945
19.727945
19.949675
21.255612
22.173524
23.205876
24.000406
23.710728
25.288463
25.168657
25.739670
26.055574
27.251840
27.088523
28.653741
27.314425
27.110577
27.952790
28.900504
26.598573
27.173758
26.252866
26.725531
25.539994
24.646521
23.725629
23.858547
22.649765
22.451878
22.398829
23.492575
22.384524
22.122860
22.235513
23.034811
22.712946
21.890998
20.711422
19.627810
18.921494
16.686916
15.665889
15.062690
14.089942
13.374686
12.260675
12.176633
10.495782
11.227727
10.646582
10.667443
9.559989
8.949637
9.589791
9.813905
9.214878
8.275509
8.171797
9.062886
8.964539
8.969903
8.614659
8.310676
8.889437
8.401871
8.275509
7.938743
8.213520
7.602572
8.550882
8.306503
7.717609
8.193851
7.629991
8.414984
8.055568
7.623434
##ZVALUE=260
1.730919
1.518726
1.412630
1.552701
1.310706
1.830459
1.683831
2.144575
2.052784
2.149940
2.911687
3.905892
14.545918
60.857534
132.198930
313.626528
524.939895
875.035524
1015.913486
1015.913486
1015.913486
1015.913486
1015.913486
1015.913486
849.385858
505.701900
323.312879
165.015459
110.298991
93.068480
109.028816
136.530995
152.609944
156.649947
158.064961
142.353773
122.271776
91.207623
73.576570
50.876737
38.349628
31.777620
28.616786
26.700497
28.620958
29.210448
28.124452
29.347539
32.330751
32.774806
33.530593
33.592582
33.936501
34.378767
34.488440
34.391880
34.677982
33.594966
34.621954
35.046935
32.135844
31.749606
30.735731
30.515790
30.170679
28.887987
27.543902
25.813580
26.297569
25.151968
25.403500
25.170445
24.873614
25.172830
22.984743
22.846460
21.720529
20.717978
19.737482
17.722845
15.719533
15.451908
14.779568
13.994575
12.359619
12.620687
11.316538
11.496544
10.735989
10.336637
9.596944
9.549856
9.076595
9.044409
8.654594
8.375645
8.326769
8.340478
8.247495
8.670688
8.157492
7.844567
7.274747
8.104444
7.950664
7.639527
8.216500
8.183718
8.433461
7.260442
7.098913
7.360578
7.374883
6.654859
7.157922
7.228851
##ZVALUE=265
1.185536
1.167655
1.634955
1.168847
1.293421
1.417994
1.489520
1.892447
1.524687
1.965761
2.064705
2.028942
2.250671
2.644658
7.688999
38.895607
98.586679
242.964029
429.250598
800.578594
1015.914679
1015.914679
1015.914679
1015.914679
1015.914679
1015.914679
1015.914679
753.666759
414.147973
248.926878
127.363801
88.110566
96.078515
117.365718
143.450499
157.323480
169.532895
163.861513
146.105886
129.045844
100.359917
80.201626
58.241487
49.995780
40.218830
37.671924
37.243962
38.649440
40.480494
41.085482
40.788651
42.060614
43.577552
43.941736
43.964982
44.056773
42.375922
43.051839
41.617751
41.486621
40.907860
39.767623
37.687421
36.826730
36.193728
34.059882
33.599734
31.648874
31.854510
30.105710
29.505491
29.111505
28.313994
28.662682
27.441978
24.962425
22.753477
22.620559
19.701719
19.523501
17.289519
17.067790
15.144944
14.328957
13.529658
12.727976
11.928678
11.225939
11.298656
10.265708
10.556579
9.932518
8.486509
8.887649
8.336902
7.969737
7.912517
7.744431
8.040667
7.860661
7.051826
7.860661
7.656813
8.029938
7.291436
7.586479
8.050799
6.917715
7.013679
7.373691
7.304549
6.766915
6.979704
7.371902
6.992817
6.219745
##ZVALUE=270
1.063943
1.209974
1.102686
1.097918
1.408458
1.251698
1.413822
1.544952
1.667738
1.894832
1.740456
1.861453
1.847744
2.025962
2.282858
2.343655
3.978610
18.850565
55.156946
175.243616
334.132910
669.210553
979.314446
1015.914679
1015.914679
1015.914679
1015.914679
1015.914679
1015.914679
1001.593471
622.960925
382.298827
185.171962
102.437735
78.390837
95.906854
126.780868
150.307417
171.679854
178.511739
175.804496
161.482692
142.411590
113.950968
92.169642
72.906613
60.745478
53.016543
51.066875
50.373673
50.937533
50.377846
51.682591
51.170588
52.511692
51.967502
49.983859
52.017570
50.700903
50.385594
48.336983
46.882629
46.194792
43.515563
42.399764
40.747523
40.096641
38.548708
37.607551
35.959482
34.337640
33.752918
31.571984
31.435490
29.108524
29.091835
25.556684
24.878979
23.171902
21.296740
19.044876
17.750859
16.926527
16.764998
13.755560
13.977885
13.757944
12.692809
11.554956
10.996461
10.454655
9.967685
10.115504
9.515882
9.103417
8.237958
8.472800
8.645654
8.353591
7.684827
7.704496
7.473826
7.550716
7.135868
7.925630
7.354617
6.974936
7.372499
6.889701
6.883740
6.724596
6.449819
6.732941
6.728768
6.015897
6.336570
##ZVALUE=275
1.122952
1.328588
1.248717
1.136661
1.366735
1.404881
1.400709
1.172423
1.348853
1.448989
1.458526
1.665950
1.756549
1.720786
2.059937
2.025962
2.098680
2.399683
2.852678
8.597970
32.652617
117.912889
249.006748
555.027723
870.490670
1015.914679
1015.914679
1015.914679
1015.914679
1015.914679
1015.914679
1015.914679
847.709775
524.539948
243.642926
133.869648
74.605942
75.183511
104.217529
128.768682
157.508850
176.659822
186.891556
185.897946
165.070891
152.001977
125.206709
104.745626
84.462762
74.248910
64.261556
59.888959
57.793856
57.321787
58.062673
57.846904
56.466460
56.891441
56.386590
54.478645
53.950548
51.554441
51.892996
50.626993
48.040748
46.222806
44.235587
42.465925
40.601492
39.539933
37.400723
37.022829
35.140514
33.903718
31.421781
30.765533
28.553605
26.345849
24.897456
22.308826
20.457506
19.315481
19.040704
17.523766
15.897751
15.395880
14.107823
13.455749
12.684464
11.827946
10.828972
10.168552
10.012984
9.320974
9.336472
9.295940
8.452535
8.050799
8.200407
8.045435
7.837415
7.282495
7.339716
7.352829
7.444620
7.164478
7.297993
6.958842
7.029772
6.462932
6.726980
6.973743
7.199645
6.583929
6.272793
6.540418
##ZVALUE=280
0.964999
1.072884
1.014471
1.082420
1.156926
1.094937
1.073480
1.095533
1.172423
1.088977
1.275539
1.424551
1.431704
1.436472
1.343489
1.736879
1.823902
1.855493
1.964569
2.347827
2.790689
4.703999
18.978715
66.441894
212.301612
389.187932
734.922886
1015.914679
1015.914679
1015.914679
1015.914679
1015.914679
1015.914679
1015.914679
981.666446
665.033460
332.569480
178.346634
84.401965
66.678524
82.380772
104.843974
138.571858
158.822536
180.234909
188.982487
185.139775
173.259974
150.352716
129.086971
104.307532
88.656545
73.854923
67.358613
61.319470
59.064627
58.519840
58.256984
57.339668
55.667758
54.770708
53.953528
52.699447
50.522685
48.614740
47.105551
45.541525
44.012666
41.463971
39.831996
38.662553
37.951469
35.241842
34.168959
32.095909
30.855536
28.835535
26.918650
24.832487
23.777485
20.433664
20.482540
18.649697
17.763972
16.196966
15.531778
14.388561
13.609529
12.769699
11.821985
11.095405
10.524988
10.334849
9.603500
9.117723
9.145737
8.814931
8.618832
8.249879
7.651448
7.628798
7.345676
7.215738
7.201433
7.158518
7.070899
7.356405
6.819963
6.283522
6.619692
6.697774
6.268620
5.899668
6.192923
6.232858
5.689859
##ZVALUE=285
0.740886
0.942945
0.618696
0.858903
0.991821
0.810623
1.091957
0.965595
1.027584
1.019835
0.889897
1.022816
1.202822
1.260638
1.340508
1.331568
1.546741
1.693964
1.732707
1.806617
2.201796
2.256632
2.749562
2.818704
9.644628
33.971667
119.861960
251.079798
553.222895
868.597031
1015.913486
1015.913486
1015.913486
1015.913486
1015.913486
1015.913486
1015.913486
873.730779
471.130013
273.098946
119.346976
67.459941
58.819652
74.862838
102.478862
127.102733
155.845881
170.879960
183.082819
182.283521
167.070627
149.589777
125.005841
104.443431
83.420873
71.065426
60.103536
55.534840
51.884651
49.698949
48.657656
48.627853
47.084689
46.289563
43.665767
43.481588
41.561723
39.335489
37.751794
36.781430
35.051703
34.109950
32.751560
31.386614
30.390620
28.250813
26.001930
25.065541
23.259521
22.753477
19.944906
19.079447
17.636418
16.524792
16.148686
14.457703
13.859868
12.982488
12.035966
11.475682
11.073947
10.425448
9.527802
9.452701
8.897781
8.891821
8.195639
8.296967
7.629991
7.703900
7.778406
7.317662
7.035732
6.907582
7.236600
6.630421
6.246567
6.647706
6.414652
6.552935
6.514788
5.839467
5.770922
6.041527
5.986691
5.989671
##ZVALUE=290
0.666976
0.670552
0.872612
0.835657
0.870824
0.998974
0.843406
0.851750
0.907779
0.951886
0.968575
1.167655
1.119971
1.220703
1.193881
1.167655
1.236796
1.409650
1.268983
1.585484
1.654625
1.678467
1.722574
2.230406
2.265573
2.766848
3.571510
12.363791
61.684847
152.496696
375.935435
642.383695
1015.914679
1015.914679
1015.914679
1015.914679
1015.914679
1015.914679
1015.914679
1015.914679
647.552609
387.251973
167.990923
83.562732
46.962500
50.177574
69.934726
91.459751
120.937824
143.121481
163.059831
172.795653
170.046687
161.425471
138.341784
116.793513
90.117455
72.749853
56.650639
49.256682
41.439533
38.494468
37.579536
36.260486
34.360886
33.929944
33.212900
31.233430
30.863881
30.232668
28.670430
28.562546
26.438832
25.488734
24.953485
23.823977
22.107959
21.504760
18.806458
17.934442
16.691685
16.150475
14.887452
14.590621
13.350844
12.508631
12.176633
11.378527
10.404587
10.037422
9.652972
9.412766
8.699894
8.887649
8.054972
8.153915
7.598996
7.508993
7.503629
7.104874
7.179976
7.111430
6.333590
6.859899
6.615520
6.755590
6.425977
6.025434
6.187558
6.142855
6.116629
5.675554
6.111860
5.503893
5.616546
5.857944
##ZVALUE=295
0.665784
0.658631
0.609756
0.721812
0.765920
0.918508
0.875592
1.005530
0.875592
1.014471
0.954866
0.956655
0.913739
0.893474
1.120567
1.131892
0.976920
1.086593
1.032948
1.333952
1.269579
1.435876
1.654625
1.533628
1.732707
2.212524
2.238750
2.525449
3.008842
5.304813
32.263994
91.442466
262.628794
503.138900
959.198475
1015.913486
1015.913486
1015.913486
1015.913486
1015.913486
1015.913486
1015.913486
828.560591
510.797501
229.811668
111.306906
45.730472
34.010410
44.949651
59.570670
84.460974
104.216933
131.004453
144.255757
155.184865
151.622891
138.962865
123.997927
97.430944
79.398751
58.237910
44.528842
32.737851
28.620958
24.667978
23.464561
22.085905
21.460652
21.448731
20.910501
19.995570
19.951463
19.617677
18.567443
18.022656
17.372966
16.636848
15.435815
14.538765
14.062524
13.007522
12.558699
12.028813
11.404753
10.783672
10.225773
9.789467
9.536743
8.994937
8.468628
8.263588
8.020997
7.434487
7.176995
7.476807
7.158518
6.766915
6.571412
6.675720
6.483793
6.145835
6.314516
6.225705
6.234646
6.138682
5.772710
5.809665
5.697608
5.658865
5.958676
5.887747
5.705953
5.466938
5.243421
5.226731
5.348921
##ZVALUE=300
0.637770
0.757575
0.786781
0.670552
0.821948
0.770688
0.858903
0.729561
0.692606
0.810623
0.778437
0.801682
0.710487
1.000762
0.832677
0.987649
0.893474
0.958443
1.061559
1.280904
1.451969
1.184940
1.359582
1.571774
1.541972
1.588464
1.657605
1.859665
1.959801
2.526641
2.489686
3.659725
11.765957
63.337684
154.036880
392.241478
683.169961
1015.913486
1015.913486
1015.913486
1015.913486
1015.913486
1015.913486
1015.913486
1015.913486
612.351894
354.499817
145.956874
70.211887
29.543638
25.873780
35.912991
47.456622
69.977641
90.459585
115.121603
128.423572
137.167573
137.604475
126.104951
109.453797
85.078478
66.972971
47.030449
35.559535
24.033785
18.383861
14.827847
13.661981
13.911724
13.130903
13.413429
13.144612
13.297796
12.113452
11.722445
11.771917
10.985732
10.289550
10.006428
9.564757
9.193420
8.817911
8.335710
8.077621
8.402467
7.642508
7.633567
7.336736
7.305741
6.751418
6.375909
6.665587
6.324649
6.008744
6.026626
5.911589
5.809665
5.972981
5.978942
5.615950
5.670786
5.677938
5.496740
5.394816
5.726814
5.597472
5.474687
5.453825
5.316734
5.289912
5.432963
5.458593
5.242825
5.496740
5.026460
##ZVALUE=305
0.659823
0.718832
0.606775
0.789762
0.734925
0.897646
0.855923
0.752807
0.747442
0.765920
0.893474
0.735521
0.781417
0.924468
0.667572
0.740886
0.970960
0.952482
1.113415
1.131892
1.171827
1.389980
1.022816
1.172423
1.410842
1.489520
1.477599
1.744628
1.772642
1.724958
2.147555
2.221465
2.582669
2.989769
5.615950
35.948753
102.422833
290.379524
529.555678
971.930623
1015.979648
1015.979648
1015.979648
1015.979648
1015.979648
1015.979648
1015.979648
822.864771
502.920747
223.176479
105.272532
34.465790
19.267797
21.359921
28.807521
45.319796
60.184598
83.793998
101.430416
119.041800
126.547813
126.320720
115.679502
97.468495
81.517696
57.260990
42.442679
27.559996
19.619465
13.875961
11.579990
10.621548
10.358691
9.838939
9.655952
9.025931
8.804798
8.454919
8.002520
7.863641
7.654428
7.384419
7.446408
7.449985
7.051826
6.853938
6.788969
6.580949
6.685853
6.273985
6.343722
6.055832
5.826950
5.842447
5.871654
5.350709
5.592704
5.493760
5.081892
5.580783
5.484819
5.642772
5.239844
5.554557
5.216599
5.235672
5.382895
5.100965
5.413890
5.252957
5.679727
5.619526
5.108714
5.150437
5.055666
5.003810
##ZVALUE=310
0.542998
0.571609
0.554919
0.624657
0.641942
0.603795
0.713468
0.658631
0.683665
0.625849
0.526905
0.706911
0.733733
0.712872
0.744462
0.801682
0.937581
0.867844
0.791550
0.990629
1.030564
0.926852
0.984669
1.174808
1.155734
1.215935
1.299977
1.390576
1.447797
1.529455
1.606941
1.615882
1.772642
2.021790
2.277493
2.686977
3.593564
11.512637
64.605474
155.590773
391.046405
680.360794
1015.913486
1015.913486
1015.913486
1015.913486
1015.913486
1015.913486
1015.914083
1015.913486
638.792515
369.978547
151.296854
65.840483
21.425486
13.696551
17.997622
23.737550
35.795569
49.764514
71.645975
88.313818
107.252598
114.969611
116.420984
110.486746
94.988942
77.340603
54.529905
38.985610
25.858879
18.279552
12.856722
9.815693
7.943511
7.925630
7.415414
7.110834
6.466508
6.128550
6.558895
6.207824
6.018877
6.119609
6.275773
6.511807
5.953908
5.783439
5.717874
5.709529
5.473495
5.768538
5.361438
5.231500
5.353689
5.246997
5.217791
5.100965
5.181432
5.398989
5.232692
5.146861
5.242825
5.312562
5.259514
5.520582
5.060434
5.100965
4.974604
5.110502
5.078912
5.248785
4.907846
4.955530
4.819632
4.698634
##ZVALUE=315
0.632405
0.497699
0.499487
0.759959
0.575781
0.555515
0.509620
0.673532
0.502467
0.712872
0.639558
0.690818
0.737906
0.698566
0.610948
0.789762
0.670552
0.902414
0.886917
0.722408
0.810623
0.857711
0.759959
0.790954
0.878572
1.008511
1.088977
1.111627
1.337528
1.323819
1.361966
1.343489
1.495481
1.799464
1.767874
1.858473
2.076626
2.347827
2.954602
5.341768
30.929446
91.544986
274.744630
507.043600
964.894891
1015.914679
1015.914679
1015.914679
1015.914679
1015.914679
1015.914679
1015.914679
834.394693
510.960817
231.208801
103.490949
28.263927
12.989640
12.162924
14.179945
21.817684
31.452775
48.845410
63.315630
84.432960
98.107457
109.794736
111.681819
102.240443
88.882446
69.318414
54.378510
37.749410
25.937557
16.108751
11.945963
8.265972
7.226467
6.331801
5.933642
5.394816
5.676746
5.598664
5.619526
5.252957
5.289912
5.154610
5.590916
5.423427
5.166531
4.990697
4.918575
5.187988
5.035996
4.895926
4.822612
4.903674
4.766583
4.680753
5.067587
4.754663
4.885793
4.652739
5.044937
4.919767
4.863739
5.120635
4.821420
4.976988
4.850626
5.009770
5.075932
4.735589
4.699826
4.805923
4.786849
##ZVALUE=320
0.476837
0.571609
0.431538
0.505447
0.389814
0.562668
0.491738
0.579953
0.646710
0.615716
0.595450
0.523925
0.664592
0.542998
0.562668
0.700951
0.767708
0.762939
0.819564
0.746846
0.677705
0.712872
0.709891
0.737906
0.756979
0.930429
0.960827
0.981688
1.136661
1.116991
1.168847
1.257658
1.361966
1.462698
1.677871
1.602769
1.700521
1.878738
1.906753
2.516508
2.689958
3.395677
14.802814
50.298572
180.414915
366.903543
747.368932
1015.913486
1015.913486
1015.913486
1015.913486
1015.913486
1015.913486
1015.913486
1007.731557
678.058863
306.547880
153.746605
50.876737
20.264983
10.722876
10.772943
13.845563
18.126965
29.585958
40.771961
59.419870
75.777769
94.469786
102.532506
104.253888
97.759962
84.246993
69.920421
49.803853
37.160516
22.499561
14.914870
9.112954
7.126927
5.965829
5.420446
5.145669
5.022883
4.923940
4.788637
4.796982
4.923940
4.767776
4.832745
4.966855
4.633665
4.948974
4.575849
4.602671
4.783869
4.558563
4.638433
5.017519
4.744530
4.802942
4.795790
4.847646
4.700422
4.689693
4.624724
4.777908
4.857779
5.007982
4.786849
4.759431
4.842877
4.434586
4.640818
5.031824
4.506707
##ZVALUE=325
0.570416
0.482798
0.270605
0.523925
0.703931
0.591874
0.499487
0.539422
0.412464
0.608563
0.387430
0.416636
0.524521
0.625849
0.585914
0.502467
0.564456
0.544786
0.579953
0.657439
0.702739
0.851750
0.752807
0.783801
0.910759
0.663996
0.853539
0.831485
0.987649
0.937581
0.967979
1.110435
1.100898
1.240969
1.307726
1.215935
1.354814
1.506805
1.610518
1.870990
1.825690
2.259612
2.445579
3.057718
5.977750
38.532615
107.487440
296.438932
533.795953
966.146588
1015.913486
1015.913486
1015.913486
1015.913486
1015.913486
1015.913486
1015.913486
752.353668
452.504754
192.837715
85.277557
23.151636
11.498928
9.064674
9.839535
12.369752
17.480850
28.817654
40.358901
58.634877
72.922707
89.436769
95.952749
96.123815
90.990663
76.033473
63.388944
45.006871
32.872558
20.292997
13.697743
8.514524
6.652474
5.094409
4.954934
4.675984
4.628897
4.448891
4.277825
4.307628
4.307628
4.307628
4.430413
4.346967
4.376769
4.502535
4.515648
4.586577
4.661679
4.650950
4.542470
4.207492
4.545450
4.718900
4.863739
4.800558
4.805923
4.809499
4.593730
4.729629
4.628897
4.575849
4.790425
4.729629
4.834533
4.343987
##ZVALUE=330
0.450611
0.266433
0.345707
0.455976
0.328422
0.555515
0.417829
0.524521
0.447631
0.418425
0.510812
0.401735
0.423789
0.475645
0.535846
0.659823
0.530481
0.428557
0.581741
0.692606
0.571609
0.581741
0.759959
0.687838
0.609756
0.773668
0.730753
0.711679
0.935793
0.910759
0.740886
0.851750
1.026988
0.977516
1.209974
1.153946
1.151562
1.237988
1.411438
1.616478
1.731515
1.655817
1.933575
2.015829
2.266765
2.536774
4.024506
13.238788
69.119930
166.088939
409.916639
697.970986
1015.913486
1015.913486
1015.913486
1015.913486
1015.913486
1015.913486
1015.913486
989.078879
556.829572
303.867459
111.998916
47.112703
14.332533
9.047985
8.340478
8.492470
11.707544
16.765594
27.129650
37.583709
54.509640
67.981482
81.797838
89.223981
89.768767
83.234906
70.177913
57.697892
41.572452
30.907989
19.564629
13.352633
8.450747
6.137490
4.969835
4.594922
4.182458
4.315972
4.153848
3.892779
3.954768
4.008412
3.840923
3.922582
4.249811
4.142523
4.325509
4.257560
4.528761
4.294515
4.584789
4.349947
4.431605
4.716516
4.513860
4.544854
4.452467
4.631877
4.444718
4.738569
4.459620
4.436970
4.580617
4.410744
##ZVALUE=335
0.451803
0.550747
0.457764
0.383854
0.360608
0.377893
0.555515
0.301600
0.393987
0.544786
0.466704
0.403523
0.514984
0.528693
0.463724
0.384450
0.597835
0.494719
0.567436
0.557899
0.582933
0.571609
0.691414
0.747442
0.610948
0.661612
0.706911
0.777841
0.715852
0.937581
0.896454
0.796914
0.826716
0.851750
1.027584
0.918508
1.034737
1.073480
1.185536
1.266599
1.441836
1.338720
1.385808
1.616478
1.761913
1.926422
2.050996
2.524853
2.844930
4.985929
31.772852
93.071461
274.902582
515.035391
966.107845
1015.914679
1015.914679
1015.914679
1015.914679
1015.914679
1015.914679
1015.914679
713.748932
421.142578
168.432593
72.932839
21.090508
9.941459
7.886887
7.907748
8.742809
10.910630
16.560555
23.488998
36.235452
47.372580
63.207746
74.575543
83.331466
83.257556
76.384544
67.516565
53.346753
42.512417
28.975606
20.444989
13.029575
9.109974
5.865693
4.943609
4.442930
3.974438
3.937483
4.033446
3.885627
3.860593
4.065633
3.898740
3.825426
4.004836
3.966689
4.169941
4.082918
3.984571
4.135966
4.480481
4.303455
4.258752
4.663467
4.410744
4.595518
4.357696
4.620552
4.285574
4.460812
4.170537
##ZVALUE=340
0.387430
0.450611
0.357628
0.396967
0.335574
0.449419
0.259876
0.283718
0.350475
0.301600
0.358820
0.475645
0.350475
0.324845
0.454783
0.492930
0.594854
0.478625
0.456572
0.507832
0.617504
0.522733
0.574589
0.485778
0.671744
0.466704
0.684857
0.508428
0.813603
0.657439
0.714660
0.732541
0.751615
0.833869
0.886917
0.887513
0.876784
0.950694
1.064539
0.728965
1.009703
1.095533
1.191497
1.388788
1.247525
1.460910
1.679659
1.719594
2.074838
2.102852
2.540946
3.199577
16.427636
57.514906
194.806457
379.417539
779.860020
1015.913486
1015.913486
1015.913486
1015.913486
1015.913486
1015.913486
1015.913486
850.710869
522.127748
232.779980
105.062723
27.249455
11.153817
8.008480
7.756948
7.434487
8.136630
10.736585
14.338493
23.048520
32.572746
48.025846
59.077740
72.149634
77.020526
77.765584
74.573755
63.421726
53.279996
39.077997
29.971600
19.006729
13.410449
8.388758
6.057620
4.636645
4.085898
3.901720
4.100800
3.902912
3.886819
3.616810
4.030466
3.864765
3.769994
3.857613
3.956556
4.097819
4.007816
4.335642
4.307628
4.149675
4.353523
4.366636
4.459620
4.533529
4.201531
4.439950
3.981590
##ZVALUE=345
0.408888
0.390410
0.326633
0.242591
0.368953
0.384450
0.361800
0.498891
0.371933
0.332594
0.466704
0.416636
0.342727
0.396967
0.342727
0.461936
0.368953
0.441670
0.549555
0.410676
0.394583
0.562668
0.366569
0.591874
0.573993
0.671744
0.661612
0.502467
0.583529
0.759959
0.579953
0.730753
0.810623
0.718832
0.709891
0.891685
0.714660
0.927448
0.929832
0.887513
1.022816
1.008511
1.071692
1.170635
1.221895
1.330972
1.342893
1.410842
1.576543
1.619458
1.873970
2.054572
2.217889
2.735853
5.890727
38.598776
108.742714
292.863846
523.424745
957.975984
1015.913486
1015.913486
1015.913486
1015.913486
1015.913486
1015.913486
1015.913486
615.803003
343.286991
135.520697
55.214763
15.970469
8.787513
7.231832
6.934404
6.553531
6.967783
9.103417
12.753606
20.630956
29.223561
43.344498
52.510500
63.828826
69.906712
71.368814
68.998933
61.144829
52.111745
38.823485
29.169917
18.897653
13.633966
8.836985
6.150603
4.901886
4.438758
3.873706
3.834963
3.894567
3.885627
3.912449
3.819466
3.855824
4.148483
4.008412
4.274845
4.088879
4.353523
4.263520
4.063845
4.110932
3.919601
4.269481
4.314780
3.964901
##ZVALUE=350
0.359416
0.369549
0.402927
0.314713
0.305772
0.478625
0.337958
0.433922
0.375509
0.443459
0.439882
0.385642
0.247955
0.471473
0.379682
0.368953
0.423789
0.423789
0.467896
0.647902
0.610948
0.527501
0.431538
0.707507
0.658631
0.501871
0.607967
0.698566
0.660419
0.700951
0.640750
0.799894
0.661612
0.613928
0.809431
0.660419
0.704527
0.842810
0.857711
0.681877
1.009703
0.956655
0.986457
0.905991
1.079440
1.278520
1.173615
1.382828
1.259446
1.383424
1.404881
1.556873
1.831651
1.952648
2.041459
2.443790
4.169941
14.661551
70.966482
168.043375
413.541794
711.838007
1015.914679
1015.914679
1015.914679
1015.914679
1015.914679
1015.914679
1015.914679
802.188516
392.301679
207.562447
74.746609
26.406646
9.134412
7.349849
6.298423
5.891919
5.765557
6.271601
8.286834
11.660457
18.490553
25.477409
36.929846
46.126842
57.532787
63.332915
65.599680
63.961744
57.195425
48.602819
36.977530
28.294921
18.564463
13.592839
9.012818
6.545782
5.205870
4.352927
4.106760
3.894567
3.826618
3.879666
4.021525
3.836751
4.035830
3.958941
3.998876
3.978610
4.377961
3.989935
3.978610
3.875494
3.987551
3.942847
##ZVALUE=355
0.369549
0.365973
0.270605
0.301600
0.326633
0.383854
0.288486
0.402927
0.598431
0.408888
0.559688
0.580549
0.505447
0.512600
0.466704
0.504851
0.464916
0.388622
0.437498
0.483990
0.509620
0.499487
0.423789
0.585914
0.568628
0.522733
0.607967
0.501871
0.464916
0.512600
0.690818
0.741482
0.651479
0.754595
0.750422
0.743866
0.818968
0.857711
0.793934
0.805855
0.729561
0.945926
0.981688
1.008511
1.114607
1.105666
1.119971
1.401901
1.082420
1.236796
1.282692
1.264811
1.807809
1.600981
1.680851
2.001524
2.171993
2.321601
2.999902
6.613731
38.911700
111.584663
308.505893
537.188649
964.738727
1015.913486
1015.913486
1015.913486
1015.913486
1015.913486
1015.913486
978.145003
545.150638
290.884972
102.472901
39.779544
10.359883
6.926656
6.389618
5.625486
5.387664
5.573630
6.046891
7.088780
10.474920
14.750957
22.917986
30.707717
42.022467
49.629807
56.825876
59.447885
58.216453
53.036809
44.203997
37.495494
26.820898
20.219684
13.375878
9.638667
6.641746
5.382895
4.549623
4.081726
3.883839
4.094839
3.850460
3.909469
3.966689
3.958941
3.895760
3.766418
3.822446
3.753901
3.609657
3.727674
##ZVALUE=360
0.393987
0.363588
0.337958
0.456572
0.326633
0.429749
0.396967
0.337958
0.495911
0.269413
0.470877
0.448823
0.701547
0.477433
0.335574
0.430942
0.446439
0.337958
0.673532
0.409484
0.564456
0.685453
0.512600
0.617504
0.561476
0.616908
0.599623
0.687838
0.548959
0.609756
0.689626
0.764728
0.673532
0.672936
0.666976
0.674725
0.815988
0.740886
0.656843
0.686646
0.664592
0.866652
0.921488
1.100898
0.917912
0.972748
1.052618
1.156926
1.113415
1.187921
1.087785
1.164675
1.385808
1.412630
1.498461
1.739860
1.832843
1.959801
2.234578
2.384782
2.806783
3.807545
16.974807
56.818724
188.980699
372.554660
737.043023
1015.914679
1015.914679
1015.914679
1015.914679
1015.914679
1015.914679
1015.914679
724.404454
420.812964
166.954994
66.986680
16.511679
8.037686
6.070733
5.819798
5.230904
4.922748
4.934669
4.985929
6.137490
8.228421
13.095737
17.742515
26.980639
34.687519
44.759512
49.919486
54.894686
54.420829
50.465465
45.285821
37.204623
30.232668
20.927787
15.117526
10.019541
7.198453
5.348921
4.532933
3.994703
4.037619
3.745556
3.743768
3.692508
3.703833
3.595948
3.344417
3.709793
3.508925
##ZVALUE=365
0.324845
0.417829
0.272989
0.344515
0.436902
0.373721
0.354648
0.514984
0.424981
0.318885
0.438690
0.322461
0.291467
0.463724
0.458956
0.583529
0.551939
0.429749
0.425577
0.428557
0.579953
0.666976
0.481606
0.564456
0.549555
0.452995
0.557899
0.616908
0.534654
0.456572
0.558496
0.601411
0.791550
0.800490
0.631809
0.812411
0.728965
0.711679
0.712872
0.765920
0.853539
0.594854
0.686646
0.753999
0.947714
0.943542
0.883937
0.890493
0.911951
1.026988
1.053810
1.130700
1.266599
1.292825
1.352429
1.367927
1.313686
1.373887
1.565814
1.889467
1.981854
2.276897
2.656579
2.974868
7.687807
29.078722
114.218593
250.984430
581.068993
921.227932
1015.913486
1015.913486
1015.913486
1015.913486
1015.913486
1015.914083
876.780748
528.085828
222.184658
97.347498
25.462508
9.832978
6.265640
5.496740
4.975796
4.881620
4.519820
4.253983
4.448891
5.000830
7.120967
10.321736
15.940666
21.928549
30.912757
37.372708
44.718981
48.416853
50.084591
48.907995
42.563677
36.807656
28.064847
21.784902
15.021563
11.009574
7.477999
5.670786
4.529953
4.077554
3.747940
3.476739
3.460646
2.966523
2.994537
3.262758
##ZVALUE=370
0.434518
0.488758
0.377893
0.411868
0.469685
0.383854
0.375509
0.252724
0.292659
0.376701
0.476837
0.393987
0.365973
0.289679
0.465512
0.538826
0.424981
0.465512
0.469685
0.325441
0.361800
0.423789
0.546575
0.443459
0.560880
0.376701
0.464916
0.515580
0.734925
0.626445
0.606775
0.623465
0.621676
0.533462
0.631809
0.505447
0.689626
0.557899
0.544786
0.533462
0.672936
0.750422
0.755787
0.779629
0.751615
0.745654
0.924468
0.717640
0.927448
0.900626
0.896454
0.905991
0.977516
0.972748
1.158714
1.062751
1.178980
1.247525
1.201630
1.273751
1.642704
1.702905
1.729727
1.914501
2.207756
2.670884
3.685951
18.893480
63.833594
208.114982
397.069454
773.983598
1015.913486
1015.913486
1015.913486
1015.913486
1015.913486
1015.913486
1008.678079
585.931540
319.902897
118.405819
50.344467
14.889836
6.973743
5.478859
4.927516
4.445910
4.413724
4.283786
4.194975
4.224777
4.716516
6.465912
8.981824
13.821721
18.370748
26.588440
32.880902
39.925575
44.550896
47.032833
45.602918
41.701794
36.304593
28.422475
22.667646
15.844703
11.901855
7.955432
6.131530
4.611611
4.044771
3.579855
3.336668
3.081560
##ZVALUE=375
0.265837
0.499487
0.301600
0.360608
0.481606
0.274777
0.222921
0.412464
0.356436
0.335574
0.330806
0.502467
0.451803
0.379682
0.392795
0.424981
0.555515
0.222921
0.362992
0.278950
0.442863
0.370741
0.386834
0.492930
0.627637
0.369549
0.507832
0.554919
0.620484
0.488758
0.505447
0.622869
0.396967
0.504851
0.726581
0.556707
0.500679
0.619888
0.625849
0.643730
0.634789
0.716448
0.709891
0.661612
0.607967
0.715852
0.769496
0.657439
0.812411
0.824928
0.804663
0.807643
0.773668
0.910759
0.868440
0.850558
0.877976
1.078844
1.052618
1.096725
1.135468
1.219511
1.322627
1.429915
1.517534
1.727939
1.830459
2.081990
3.031492
7.510781
40.283799
112.195611
314.030051
557.840466
963.016748
1015.914679
1015.914679
1015.914679
1015.914679
1015.914679
1015.914679
818.102956
441.077948
240.886807
87.416768
33.513904
8.693933
5.719662
4.820824
4.538894
4.279613
3.953576
4.000664
3.961921
4.037619
4.207492
5.430579
7.186532
10.669827
14.761686
21.774769
28.399825
36.188960
40.903687
44.130683
43.770671
40.977597
36.136508
30.509830
25.049448
17.891526
13.620853
9.205937
6.481409
4.549623
3.445745
##ZVALUE=380
0.278950
0.212789
0.291467
0.258684
0.350475
0.362992
0.302792
0.335574
0.147820
0.402927
0.191927
0.341535
0.314713
0.330806
0.238419
0.319481
0.365973
0.323653
0.194907
0.207424
0.409484
0.326633
0.243783
0.374913
0.377893
0.515580
0.436902
0.451803
0.406504
0.604987
0.505447
0.688434
0.637770
0.535846
0.673532
0.662804
0.779629
0.765920
0.611544
0.753999
0.722408
0.569820
0.562668
0.733733
0.579953
0.787973
0.642538
0.814795
0.754595
0.834465
0.755787
0.696778
0.747442
0.807643
0.743866
0.869632
0.844598
0.754595
0.874996
0.982881
1.001954
1.167655
1.148582
1.167655
1.337528
1.286864
1.508594
1.752973
2.226830
2.447963
2.750754
4.214644
22.639632
72.444677
224.036574
426.387787
843.240023
1015.913486
1015.913486
1015.913486
1015.913486
1015.913486
1015.913486
990.065932
588.115454
342.993736
136.625767
59.543848
15.010834
6.446838
4.980564
4.645586
4.451871
4.285574
3.766418
3.775954
3.812909
3.628731
3.821850
4.833937
6.132722
9.631515
13.791919
20.350814
25.839806
33.305883
37.796497
41.615963
42.844415
40.091872
36.491752
29.993653
24.396777
17.885566
13.664961
9.001493
##ZVALUE=385
0.360608
0.230670
0.350475
0.245571
0.199676
0.367761
0.124574
0.324845
0.205636
0.187755
0.313520
0.230670
0.321865
0.215769
0.342727
0.312924
0.288486
0.231862
0.317693
0.294447
0.372529
0.327826
0.380874
0.365973
0.420809
0.415444
0.659823
0.468493
0.601411
0.738502
0.706911
0.700951
0.675917
0.644922
0.753999
0.797510
0.782609
0.746846
0.720620
0.729561
0.673532
0.811815
0.948906
0.664592
0.769496
0.866652
0.838637
0.845790
0.725985
0.815988
0.738502
0.695586
0.729561
0.959635
0.837445
0.941753
0.727773
0.726581
0.934601
0.926852
0.942945
0.979900
1.059771
1.094937
1.050830
1.187921
1.328588
1.283884
1.735687
1.779795
1.921654
2.185702
2.473593
2.880692
9.935498
36.312938
136.505961
299.111009
646.936893
972.933769
1015.914679
1015.914679
1015.914679
1015.914679
1015.914679
1015.914679
785.900950
500.767827
225.661397
108.346939
32.563806
10.754466
4.810691
4.521608
4.346967
4.315972
3.963709
4.012585
3.723502
3.580451
3.469586
3.452897
3.981590
5.069971
7.546544
10.834932
16.396642
23.011565
27.821660
33.462644
36.958456
38.167834
38.120747
35.262704
30.967593
24.632812
##ZVALUE=390
0.260472
0.196695
0.284910
0.305772
0.244975
0.273585
0.201464
0.357628
0.322461
0.309944
0.393987
0.417829
0.372529
0.348687
0.216961
0.276566
0.327826
0.371933
0.248551
0.295639
0.227690
0.242591
0.378489
0.356436
0.398755
0.520945
0.396967
0.511408
0.557899
0.429749
0.642538
0.628829
0.691414
0.814795
0.678897
0.865459
0.847578
0.975728
0.759959
0.911951
0.800490
0.838637
0.773668
0.847578
1.052618
0.765920
0.833869
0.894666
0.932813
0.939965
0.712872
0.800490
0.880957
0.827909
0.864863
0.949502
0.941753
0.891685
0.950694
0.958443
1.026988
1.063943
0.916719
1.075864
1.100898
1.341701
1.331568
1.487732
1.567602
1.893640
1.852512
1.943707
2.050996
2.265573
2.180934
2.474785
4.717708
20.374656
96.191764
222.871900
523.902774
831.217766
1015.913486
1015.913486
1015.913486
1015.913486
1015.913486
1015.913486
988.039374
692.265630
351.624489
179.675817
58.889985
19.861460
5.955696
4.838705
4.492998
4.400611
4.042983
3.916621
3.860593
3.701448
3.205538
3.491640
3.343821
3.781915
4.690886
6.905794
9.303689
13.448596
17.748475
24.013519
28.494000
34.338832
36.143661
36.285520
##ZVALUE=395
0.278950
0.250936
0.260472
0.084639
0.176430
0.255704
0.225902
0.314713
0.105500
0.312924
0.319481
0.216961
0.131726
0.268817
0.337958
0.284910
0.349879
0.368953
0.488758
0.273585
0.451803
0.486970
0.369549
0.319481
0.403523
0.360608
0.495911
0.476837
0.512600
0.651479
0.532866
0.595450
0.726581
0.804663
0.877976
0.782609
0.833869
0.968575
0.782609
0.970960
1.007915
0.833869
1.047850
0.922680
1.011491
1.083612
0.863671
1.042485
0.946522
1.084805
0.986457
0.913739
1.074672
1.049638
0.992417
1.046658
1.074672
1.033545
0.829697
0.790954
0.904799
0.898838
1.022816
1.101494
0.959635
1.119971
1.355410
1.519918
1.529455
1.651645
1.736879
1.722574
1.866817
1.951456
1.902580
1.959801
1.988411
2.267957
3.251433
11.064410
59.796572
152.408481
378.237963
636.613965
1015.914679
1015.914679
1015.914679
1015.914679
1015.914679
1015.914679
1015.914679
852.549672
452.951789
248.778462
97.990632
39.031506
9.576678
5.309582
4.651546
4.253983
4.163980
4.005432
3.982782
3.998876
3.850460
3.798604
3.203750
3.051758
3.586411
4.130602
5.049706
7.602572
10.089874
15.889406
20.430684
26.237965
##ZVALUE=400
0.392795
0.400543
0.211596
0.340939
0.380874
0.162721
0.199676
0.264645
0.316501
0.281930
0.468493
0.402927
0.340939
0.173450
0.173450
0.297427
0.092983
0.209808
0.325441
0.314713
0.299811
0.266433
0.506639
0.390410
0.358820
0.381470
0.576973
0.555515
0.495911
0.647902
0.659823
0.608563
0.609756
0.783801
0.680685
0.926852
0.811815
0.889897
0.964999
0.833869
0.877976
0.942945
0.901818
1.170635
0.904799
0.871420
1.120567
0.976920
0.921488
0.976920
0.910759
1.070499
1.016855
1.050830
0.929832
0.964999
1.052618
1.010895
1.042485
1.092553
1.157522
1.008511
1.026988
0.951886
1.045465
1.118779
1.052618
1.174808
1.485944
1.416802
1.539588
1.609921
1.623631
1.662970
1.596808
1.667738
1.554489
1.880527
1.863837
2.034903
2.518892
5.094409
30.760765
89.876652
259.137750
473.743677
894.017816
1015.913486
1015.913486
1015.913486
1015.913486
1015.913486
1015.913486
986.526012
614.678860
372.752547
161.338449
70.588589
17.717481
6.751418
4.516840
4.501939
4.250407
4.322529
4.024506
4.060864
3.978610
3.784895
3.526807
3.075600
3.040433
3.286600
3.416538
4.547834
6.156564
9.438992
##END
