##TITLE=11-1
##FORMAT=SPECTACLE-ASCII V-1.2
##DATA TYPE=ULTRAVIOLET SPECTRUM
##SECOND TYPE=ULTRAVIOLET SPECTRUM
##DATE=04/04/18
##TIME=11:41:47
##SPECTROMETER/DATA SYSTEM=SPECTACLE
##XUNITS=NM EM
##YUNITS=ENERGY
##YFACTOR=1
##FIRSTX=220
##LASTX=450
##NPOINTS=116
##3DDATA=Equidistant
##ZUNITS=NM EX
##FIRSTZ=210
##LASTZ=400
##ZPOINTS=39
##XYDATA=(Y..Y)
##ZVALUE=210
20.937920
19.252896
14.935732
13.968945
10.562539
9.833574
9.610653
9.220839
7.462502
6.627440
4.397631
4.067421
3.567934
3.254414
3.802776
3.182888
4.247427
3.549457
4.123449
4.888773
4.310608
5.216599
5.412698
5.815625
7.300973
8.022785
8.911490
8.650422
10.580420
10.595918
11.565685
11.853576
12.204647
11.277795
11.475682
12.381673
12.124777
13.855696
12.186766
12.424588
12.523532
14.016628
12.764931
12.788773
11.506677
13.174415
12.762547
11.892915
11.545420
13.488531
12.155771
11.752844
12.394786
13.340712
10.952950
12.388825
11.130571
11.109710
12.173653
10.914803
12.383461
11.651516
11.015534
12.762547
12.983680
12.601614
13.229847
12.468696
15.380979
15.666485
19.700527
21.505952
25.005937
28.407574
31.896830
30.582547
32.200813
32.479763
29.083490
28.472543
27.063489
24.424791
21.087527
19.117594
15.429854
14.358759
12.768507
11.129975
11.687875
12.223721
16.545653
19.880533
27.865767
36.640763
45.320988
51.428676
59.602857
70.138574
75.125694
78.530908
84.068775
86.254478
84.648728
80.621839
76.956749
72.006583
65.447688
55.885911
53.078532
45.109987
34.482479
28.980970
23.136735
19.100904
18.852949
16.930699
##ZVALUE=215
61.110854
63.697696
50.422549
35.605431
30.759573
21.581650
18.385649
16.285777
15.864968
13.575554
13.081431
9.571910
8.015633
5.968809
5.187988
4.056692
4.597902
4.167557
4.743934
4.950762
4.946589
5.789995
6.053448
5.959868
7.453561
7.319450
8.346438
9.106994
10.422468
9.356737
11.612773
10.110736
12.961626
13.972521
11.790991
12.326837
14.067888
12.872815
13.281703
14.313459
14.405847
14.721751
13.293624
12.855530
13.089776
14.048815
14.100671
12.412667
13.018847
13.568997
11.934638
12.787580
13.334751
13.244748
12.917519
13.044477
13.678670
13.244748
12.987852
11.844635
11.606812
13.879538
13.175607
12.056828
13.291836
11.812449
12.962818
13.309717
13.775826
17.477870
19.110441
21.541715
23.722649
26.292801
27.804971
27.086735
28.844476
26.653409
27.486682
26.000738
23.165941
21.023750
18.781424
18.333793
15.225410
12.910962
11.278987
10.085702
9.640455
10.813475
9.617805
9.336472
9.903908
12.473464
15.959740
18.816590
26.222467
34.087896
46.541691
56.615472
67.330599
76.945424
94.537735
103.032589
116.198659
115.878582
124.063492
117.954612
117.291808
114.580989
106.426477
103.806853
90.609789
74.936748
61.075687
47.902465
##ZVALUE=220
138.459802
139.095783
133.646727
118.770003
97.582936
72.686672
56.404471
38.499832
28.753877
26.404858
25.470853
23.861527
23.421645
17.684698
14.863610
13.078451
8.019805
7.525682
5.724430
5.014539
5.231500
5.247593
6.516576
5.615950
7.625818
7.232428
8.190870
8.687973
9.147525
10.296702
11.021495
10.551810
11.582971
10.766983
14.255643
13.833642
13.321638
12.611747
14.692545
12.733936
14.453530
13.741851
14.140606
13.510585
14.559627
13.690591
15.161633
16.119480
15.041828
14.522672
15.163422
15.282631
16.103983
14.324784
14.479756
14.383793
14.931560
13.653636
15.275478
13.688803
13.516545
13.053417
14.108419
11.789799
13.555884
12.930632
13.055801
14.531612
15.308857
17.379522
17.352700
19.688606
22.801757
24.603605
26.504993
26.736856
28.039813
28.869510
28.931499
24.779439
23.565888
23.794770
21.882653
17.391443
15.871525
13.452768
10.997653
11.398792
9.679794
9.063482
9.763837
9.593964
9.796619
9.391904
9.176731
10.866523
9.113550
9.398460
12.809634
16.743541
22.292733
29.409528
42.954683
56.624413
76.286793
90.602636
119.065642
139.968991
154.463649
174.714923
181.904435
185.952783
187.754631
184.779763
183.132887
163.914561
##ZVALUE=225
175.975561
186.474919
229.277611
241.452456
249.537826
236.347914
196.373463
141.191483
111.151934
68.939924
53.082705
40.426850
38.087964
40.914416
36.087632
31.668544
26.877522
22.581816
16.061664
12.172461
8.473992
7.514954
6.575584
6.814599
7.192492
7.208586
7.997751
9.136796
9.271502
10.321736
9.664893
10.885000
12.232661
11.578798
11.477470
12.864470
14.074445
14.313459
15.214682
14.231801
15.456676
16.343594
15.684962
16.807914
16.006827
16.094446
15.809536
17.125607
17.021894
15.792847
17.398000
16.782880
17.490983
17.327666
16.907454
17.159581
16.992688
16.893744
16.104579
16.304851
15.927553
17.175674
16.003847
15.563965
15.702844
15.468597
15.667677
15.750527
15.733838
17.631650
20.514727
21.938682
25.372505
25.407672
28.043985
28.227568
28.322935
27.889609
27.446747
26.073456
24.476647
21.578670
20.601749
19.390583
15.701652
15.827417
14.537573
12.552738
11.039972
12.309551
11.433959
11.103749
10.507703
10.799766
11.138916
11.537671
11.502504
10.806918
12.859702
12.221932
11.446476
10.898709
12.165904
15.289783
19.221902
30.377507
44.794679
67.114830
85.745454
119.553804
143.337846
177.254677
206.489563
235.992670
272.872448
294.892788
##ZVALUE=230
119.199753
128.995776
210.599899
278.318524
338.372588
418.495536
424.230695
394.550562
340.020657
246.588588
183.627605
113.946795
81.853867
61.036944
59.813857
61.667562
60.412884
58.044791
51.239729
37.885904
32.911897
22.396445
14.081597
10.408759
8.374453
8.561611
7.977486
8.558631
7.715821
9.171963
10.469556
9.686947
10.269880
10.222793
12.123585
11.820793
13.485551
13.902783
15.154481
14.134645
16.694665
14.751554
16.311407
16.205907
18.364787
16.829967
16.437769
17.395616
16.344786
18.625855
18.625855
18.265843
16.937852
16.865730
15.618801
17.359853
16.279817
16.307831
16.795993
16.316772
15.225410
16.189814
14.626980
14.276505
15.564561
16.640425
14.765859
16.268492
17.996430
18.922687
20.177960
23.731589
23.424625
24.826527
25.893450
27.663708
26.510954
26.051998
24.608970
22.752881
22.125840
19.705892
17.398000
16.677976
15.474558
14.356971
14.563799
13.769865
12.254715
12.574792
12.018681
11.640787
12.579560
11.383891
11.045933
12.220740
11.368990
12.279749
11.696815
12.251735
12.304783
11.240840
11.200905
11.690855
12.551546
11.798739
12.541413
12.920499
16.958714
24.053454
36.845803
59.607625
83.462000
126.172900
163.957477
209.870934
##ZVALUE=235
36.157966
38.528442
87.653995
163.815618
259.116888
404.388905
530.380011
641.230941
693.478584
659.090877
585.571527
437.786579
324.490666
200.043917
138.150454
93.771815
81.616640
84.824562
90.989470
88.474751
79.674721
69.642663
54.698586
37.080646
27.465820
18.985868
13.159513
11.232495
10.222793
10.187626
10.812879
10.786653
12.125969
12.880564
11.008978
13.275743
12.868643
15.426874
15.786886
15.640855
17.760992
17.615557
18.819571
16.970634
17.766953
19.720793
18.297434
18.905997
17.799735
19.784570
18.588901
16.615987
19.513965
18.208623
18.377900
18.046498
17.033815
17.429590
17.136931
17.271638
17.671585
16.248822
16.628504
16.131997
15.913844
14.396906
17.441511
18.367767
19.440651
19.239783
22.601485
24.211407
26.152730
27.785897
27.840734
29.497743
29.246807
26.768446
25.526881
23.327470
20.536780
20.735860
21.024942
19.422770
17.272830
15.590787
14.408827
15.533566
15.742779
14.696717
12.778640
12.050867
14.139414
13.516545
13.991594
13.070703
13.214946
12.453794
14.489889
13.221502
12.996793
13.562441
13.834834
13.911724
12.360811
13.022423
12.658834
13.534427
13.212562
13.413429
13.906956
13.446808
15.115738
20.813942
29.631853
48.785806
##ZVALUE=240
3.265738
3.828406
12.532473
36.340952
83.702803
190.896988
329.481959
560.364723
735.274553
936.623812
1016.001701
1008.626819
944.059491
737.747550
576.007962
354.915857
239.391923
147.516727
118.881464
111.209750
116.333961
121.169686
120.109916
102.638602
89.330673
63.375831
50.302744
35.675764
24.653673
17.571449
14.989972
13.307929
13.489723
12.570620
13.435483
13.644695
15.399456
14.421940
16.734600
16.883612
16.328692
17.716885
17.131567
18.899441
17.743707
19.220710
19.375682
18.195510
17.831922
18.259883
17.858744
18.914938
19.116998
17.304420
17.223954
17.172694
17.600656
18.089414
16.495585
16.556978
16.641617
16.164780
16.774535
16.524792
16.850829
17.334819
18.953681
19.417405
18.877983
21.662712
23.186803
24.172664
26.290417
28.851628
28.827786
28.721690
28.864741
26.710629
24.641752
24.430752
21.711588
21.151900
20.753741
18.879771
16.387701
15.522838
16.419888
14.238954
14.597774
16.380548
15.383959
14.901757
15.090704
14.798641
14.150739
14.416575
15.986562
14.454722
14.238954
14.281869
15.079975
14.043450
14.417768
13.667941
16.076565
15.538931
15.439987
14.477968
14.555454
13.646483
14.258623
15.261769
14.353991
14.921427
15.018582
13.549924
##ZVALUE=245
2.556443
2.472997
2.514720
3.112555
5.354881
26.352406
66.708922
179.262757
325.189829
558.899641
795.461535
1016.001701
1016.001701
1016.001701
1016.001701
992.727876
799.255967
522.695780
344.665647
189.106464
130.114555
113.380551
114.971995
131.797791
135.629773
130.215883
116.529465
100.643635
77.758431
57.160854
38.431883
28.479695
19.504428
16.450882
14.314651
14.473796
14.493465
14.040470
15.466809
14.087558
15.265942
15.319586
16.144514
18.409491
16.119480
16.941428
16.727448
15.938878
15.886426
16.989708
16.628504
17.218590
16.892552
16.623735
15.259981
14.240742
15.028715
15.163422
15.360713
14.593601
14.838576
13.983846
14.071465
14.667511
14.238954
15.252829
15.683770
15.554428
16.939640
17.454624
18.500686
20.270944
23.459792
24.598837
25.270581
24.255514
23.370981
23.323894
23.466945
21.127462
18.711686
19.062757
16.877651
15.948415
14.330745
14.212728
13.601780
14.523864
14.698505
14.376640
13.228655
13.716817
13.223886
12.906790
12.539625
13.525486
13.043880
13.190508
13.305545
13.790727
13.757944
13.220906
13.281703
12.586713
13.548732
13.208985
13.220906
14.011860
13.516545
12.645721
13.297796
13.470650
12.494922
13.882518
12.453794
13.680458
##ZVALUE=250
2.240539
2.068877
2.670884
1.859665
2.695918
2.858639
3.072619
16.960502
48.764944
141.523480
272.909999
548.531413
800.336003
1016.001701
1016.001701
1016.001701
1016.001701
1016.001701
1016.001701
766.241550
518.322587
286.660790
178.469419
114.835501
110.129714
130.501986
138.849616
145.277977
140.984654
131.303668
108.479857
86.761713
59.784651
44.166446
29.134750
21.201968
16.987920
15.494823
15.147924
14.599562
14.840961
15.718937
15.888810
16.860962
16.168952
16.346574
15.536547
16.357899
16.223788
15.540719
15.156865
15.365481
15.236735
14.333725
14.568567
13.539791
13.814569
12.833476
12.902617
13.954639
13.231635
12.970567
12.964606
13.425946
13.682842
13.107657
12.575984
13.144612
15.177727
15.461445
16.562939
18.446445
18.297434
21.381974
20.716786
20.678639
21.539927
19.890666
19.168854
18.183589
17.713904
17.328858
16.007423
13.749599
12.907982
13.903975
12.270808
11.349916
11.871457
11.402965
11.991858
12.067556
11.481643
11.686683
11.662841
11.167526
12.078881
11.923909
12.539625
11.489987
10.847449
10.732412
12.457967
11.830926
10.745525
13.001561
13.127923
12.100935
12.119412
11.572838
11.631846
12.198687
11.986494
13.024807
12.721419
12.792945
##ZVALUE=255
1.890659
2.227426
2.070665
1.725554
2.211928
2.303720
2.677441
2.676845
2.596974
9.138584
30.820966
106.241703
218.510628
465.450883
719.044805
1016.001701
1016.001701
1016.001701
1016.001701
1016.001701
1016.001701
981.115699
679.652691
414.773822
200.646520
131.808519
101.645589
109.531879
131.160617
145.536661
154.762864
151.187778
137.503743
116.657615
86.278915
66.902637
43.437481
31.177998
21.167994
19.123554
17.561913
15.966892
16.002655
15.624762
15.077591
15.514493
15.195608
14.790893
15.130639
15.321970
15.145540
15.041828
14.910698
14.983416
14.389753
14.452934
13.444424
13.391972
12.462735
12.769699
12.847781
12.161732
11.712909
11.539459
13.085604
12.455583
11.752844
12.580752
11.872649
13.840795
14.608502
15.642643
17.542839
18.912554
17.930865
17.208457
17.820597
16.532540
15.835762
15.199780
13.866425
13.171434
12.583733
11.308789
11.609793
10.944605
10.310411
10.375977
10.572672
9.511709
9.290576
9.418726
9.934902
9.823442
9.723902
9.598732
10.053515
10.214448
10.060668
10.803938
10.067821
10.440946
10.105968
10.528564
10.926723
10.617971
10.749698
10.568500
11.186600
11.018515
10.572672
10.723472
10.499954
10.562539
10.889769
11.110902
##ZVALUE=260
1.743436
1.601577
1.635551
1.652837
2.092719
1.957417
2.101660
2.016425
2.423525
2.587438
3.073812
4.666448
17.506480
72.270632
153.135657
363.695621
614.110827
990.672708
1016.001701
1016.001701
1016.001701
1016.001701
1016.001701
1016.001701
872.376561
579.339862
311.083794
178.698897
99.434853
94.480515
112.987757
135.102868
154.776573
161.933899
157.626867
144.028664
119.694471
96.082687
63.287616
49.078465
32.692552
24.486780
21.118522
18.267632
18.130541
17.684698
16.944408
16.610622
17.653704
16.114712
17.371774
16.174912
15.922785
14.959574
14.675856
14.491677
14.299750
14.173985
13.752580
13.352633
12.618899
12.605786
11.975765
12.184978
11.796951
11.643767
11.583567
12.236834
12.216568
14.508963
13.477802
14.326572
15.474558
15.747547
15.648603
15.405416
15.060902
14.071465
13.925433
12.785792
11.455417
11.204481
10.319948
10.945797
9.052753
8.965731
9.936690
9.099841
8.499622
9.715557
8.694530
9.477735
9.062886
8.219481
9.081960
9.337664
8.841753
9.293556
9.128451
9.441972
9.125471
9.280443
8.952618
9.492636
9.921789
9.532571
9.347796
9.547472
10.470748
9.911656
9.877682
9.976625
9.289980
9.453893
9.874701
9.691715
##ZVALUE=265
1.526475
1.629591
1.515746
1.780987
1.581907
1.767874
2.031922
1.804829
2.040863
2.158880
2.140999
2.730489
2.742410
3.836751
9.311438
47.208667
118.921995
291.778445
515.788794
949.295759
1016.001701
1016.001701
1016.001701
1016.001701
1016.001701
1016.001701
1016.001701
777.014494
483.108759
273.422599
128.223896
89.760423
95.653534
116.807818
144.940615
161.735415
168.658495
163.292885
142.587423
123.108625
100.189447
70.156455
52.245855
35.899878
27.859807
21.499991
20.140409
19.298792
18.564463
18.799901
18.377900
17.714500
17.156601
17.195940
16.187429
16.561747
15.765429
15.479922
14.354587
14.318824
14.278889
13.974905
12.292862
11.959672
12.124777
11.621714
11.913776
12.417436
11.626482
12.328625
12.558699
13.611913
14.374852
15.056729
14.948845
14.998913
13.947487
13.108850
13.301969
12.031794
11.781454
9.805560
10.447502
9.301901
9.234548
8.987784
8.899570
8.305907
7.949471
8.590817
8.429885
8.202791
8.310676
8.406639
8.394718
8.364916
8.122921
8.195639
8.668900
8.811951
8.442998
8.639693
9.085536
8.779764
8.560419
9.182692
9.567738
9.821653
9.058714
9.655952
9.327531
9.748936
9.640455
8.548498
9.061694
8.818507
##ZVALUE=270
1.235604
1.355410
1.392961
1.682639
1.355410
1.500845
1.577735
1.668930
1.806617
1.800656
1.702905
2.239943
2.120733
2.127886
2.942681
2.983809
4.785657
26.371479
76.919794
230.150819
425.227880
829.836726
1016.001701
1016.001701
1016.001701
1016.001701
1016.001701
1016.001701
1016.001701
1016.001701
708.393455
426.534414
192.212462
104.852915
76.608658
91.145635
122.209787
144.150853
164.902806
172.140002
167.031884
152.852535
125.038624
104.968548
73.651671
54.907799
38.174987
29.649734
23.908615
22.176504
19.740462
20.135641
18.829703
18.858910
18.175840
18.328428
17.152429
16.892552
16.479492
15.637875
15.009642
14.805794
13.775826
13.288856
13.219714
12.787580
12.123585
12.218952
12.339950
12.473464
13.493896
14.149547
14.123917
14.301538
14.162660
14.585853
13.881922
13.394952
11.903644
11.812449
11.260509
10.309815
9.120703
9.149909
8.607507
8.664727
8.438826
8.168817
8.533597
8.117557
8.114576
7.801652
7.871985
7.565618
7.661581
7.727742
7.874966
8.502603
7.975698
8.208752
7.893443
8.596778
7.897615
7.872581
8.470416
8.522868
8.735657
8.603930
8.362532
8.888841
8.525848
9.616613
8.060932
8.482933
8.745790
8.636713
##ZVALUE=275
1.256466
1.173615
1.244545
1.438856
1.258850
1.677871
1.873970
1.401901
1.654625
1.585484
1.531839
1.928806
1.829863
2.024770
2.027750
2.026558
2.703667
2.646446
3.330708
11.713505
46.782494
167.466402
338.035822
713.832974
1016.001701
1016.001701
1016.001701
1016.001701
1016.001701
1016.001701
1016.001701
1016.001701
980.307460
618.346930
276.345611
143.352747
74.675679
70.354939
96.845627
118.169785
146.858692
162.787437
171.680450
168.616772
149.683952
128.783584
98.485947
77.592731
53.206682
41.552782
29.644966
24.422407
21.789670
19.876957
19.090772
17.806888
17.833710
17.491579
15.971661
16.489625
15.690923
15.148520
14.180541
14.208555
13.850927
13.241768
12.870431
12.519956
12.622476
12.658834
13.642907
13.601780
14.038682
14.681816
14.657974
14.317632
13.556480
12.375712
11.857748
10.845661
10.116696
10.071993
9.494424
8.761883
8.904934
8.326769
8.379817
8.077621
8.103848
7.973909
7.565618
8.076429
7.684827
7.190704
7.618666
7.802844
7.616878
7.636547
7.832646
7.455945
7.606745
7.772446
8.170605
8.208752
8.424520
8.221865
7.755756
7.808805
8.130670
8.466840
8.339882
7.978678
8.019805
8.353591
7.952452
7.965565
##ZVALUE=280
1.197457
1.224875
1.234412
1.360774
1.136661
1.350641
1.343489
1.387596
1.331568
1.392961
1.362562
1.523495
1.609921
1.921654
1.706481
1.877546
2.032518
2.266765
2.324581
2.774596
2.906919
5.614758
24.618506
117.056966
254.486799
559.719801
875.352025
1016.001701
1016.001701
1016.001701
1016.001701
1016.001701
1016.001701
1016.001701
1015.315652
713.147521
360.567570
189.106464
80.871582
59.984922
65.436959
93.989968
117.362738
145.829916
162.175894
169.047713
162.300467
146.334767
124.628544
101.704001
73.602796
54.260492
36.592484
27.432442
20.183921
18.021464
16.532540
15.336871
15.458465
14.790893
13.914704
13.573766
12.905598
13.298988
12.207627
12.959838
11.931658
12.078881
12.077689
12.249947
12.101531
12.583733
13.037920
13.179779
13.099909
12.440681
12.088418
11.550784
10.659695
10.043979
9.009838
8.787513
8.735657
8.326769
8.060932
8.223653
8.152723
8.171797
7.219911
7.880926
7.257462
7.158518
7.040501
7.378459
6.981492
6.893873
7.268786
7.002950
7.251501
7.291436
7.479787
7.276535
7.467866
7.305741
7.677674
7.438660
7.798672
7.348657
7.127523
7.312894
7.208586
7.268786
7.615685
7.994771
7.579923
7.401705
##ZVALUE=285
1.190901
0.950694
1.267791
1.149774
1.162887
1.124740
1.145601
1.141429
1.136661
1.192689
1.232624
1.414418
1.301765
1.384616
1.455545
1.763701
1.579523
1.954436
2.031922
1.934767
2.153516
2.349615
2.812743
3.675818
9.779930
58.159828
149.124861
307.585597
651.948452
984.557867
1016.001701
1016.001701
1016.001701
1016.001701
1016.001701
1016.001701
1016.001701
968.510509
530.996919
304.351449
129.118562
66.736937
47.381520
59.775710
85.672736
109.497905
133.621693
150.148869
159.516931
157.673955
140.697956
121.132731
93.117952
72.325468
46.925545
34.766793
22.615790
18.248558
13.660789
13.080835
12.677908
11.708736
11.732578
11.397600
11.420846
11.024475
11.262894
11.426806
10.795593
11.379719
11.509657
11.636615
11.723638
12.025833
11.852980
11.403561
11.476874
10.562539
9.809732
9.299517
8.923411
9.179711
8.764863
8.130670
8.179545
8.140802
7.547736
7.552505
7.563829
7.277727
7.522702
6.917715
6.943941
6.704926
6.789565
7.901788
6.650686
7.232428
6.897449
6.688833
7.625818
7.120967
7.530451
7.318854
7.049441
7.162690
6.869435
7.340908
7.587671
7.088780
7.210970
7.955432
7.041693
7.135868
7.053614
6.884933
##ZVALUE=290
0.891685
0.973940
0.997782
0.886917
1.066923
1.032948
0.909567
1.149774
1.057982
1.209974
1.167655
1.328588
1.177788
1.410842
1.327991
1.367927
1.398921
1.438856
1.660585
1.638532
1.977682
2.101660
2.345443
2.308488
2.903938
3.083944
4.798770
17.950535
87.424517
204.945803
487.234592
816.336870
1016.001701
1016.001701
1016.001701
1016.001701
1016.001701
1016.001701
1016.001701
1016.001701
682.960749
409.025550
173.667669
80.596805
36.509633
38.594604
56.612492
74.829459
102.211833
123.509765
143.991709
149.328709
145.632625
135.103464
111.032724
90.655684
61.818957
44.806600
28.986931
20.952821
14.180541
11.630654
9.830594
9.785891
9.606481
9.730458
9.112954
9.212494
9.580851
10.014772
10.618567
10.975599
10.923743
11.010766
10.824800
10.580420
9.945631
9.652972
9.087920
8.751750
8.347631
8.322597
8.146763
7.341504
7.340908
7.479787
7.346869
7.199645
6.777644
7.190704
7.089972
6.891489
6.726980
6.644726
6.552935
6.544590
6.448627
6.731749
6.992817
6.913543
6.988645
7.123947
6.976724
6.999969
7.243752
7.257462
6.968975
7.044673
7.183552
7.125735
7.113814
6.922483
7.224679
6.896853
6.802678
6.761551
##ZVALUE=295
0.884533
0.817776
0.943542
0.915527
0.921488
0.961423
1.067519
1.137853
0.976920
1.092553
1.226664
0.963807
1.224875
1.162887
1.296997
1.176000
1.268983
1.281500
1.375675
1.658797
1.763701
1.724958
2.057552
2.058744
1.901984
2.401471
2.455711
3.064871
3.516674
6.864667
38.151741
111.064911
336.729884
641.670823
1016.001701
1016.001701
1016.001701
1016.001701
1016.001701
1016.001701
1016.001701
1016.001701
862.975717
528.784990
231.702924
109.328628
39.491653
26.996732
35.358667
47.962666
70.926547
90.148449
115.959644
132.408738
140.566826
138.816833
123.998523
107.447505
82.080960
64.388514
41.392446
28.679967
17.641783
12.882948
9.833574
8.957982
8.697510
8.372664
8.939505
8.996725
9.522438
10.061860
9.691715
10.065436
10.146499
9.398460
9.294748
9.122491
8.386970
8.595586
8.065701
8.141994
7.473826
7.549524
7.468462
7.299781
6.992817
7.036924
7.355809
7.237792
6.984472
7.116795
6.862879
6.718636
7.153749
6.979704
6.901622
6.601810
6.647706
6.922483
7.365942
6.960630
6.928444
7.042885
6.804466
6.957650
7.151961
6.889701
7.076859
7.080436
6.790757
6.844997
6.878972
6.792545
6.646514
6.724596
##ZVALUE=300
0.932813
0.891685
0.842810
0.879765
0.944734
0.796914
0.983477
0.930429
0.965595
1.002550
1.053810
1.118779
1.124740
0.998974
1.103878
1.058578
1.097918
0.925660
1.441836
1.419783
1.396537
1.637936
1.620650
1.517534
1.971722
2.070665
2.197623
2.043843
2.429485
2.598763
3.225803
3.912449
14.205575
55.932999
198.226571
405.979753
876.299739
1016.001701
1016.001701
1016.001701
1016.001701
1016.001701
1016.001701
1016.001701
1016.001701
626.384616
360.901952
158.385634
70.652962
30.436516
22.029877
28.547645
44.499636
60.682893
86.952448
103.834867
125.017762
133.634806
130.728483
121.773481
101.417899
84.174871
59.605837
42.445660
26.713610
17.938614
12.217760
10.345578
8.789897
8.867979
8.755922
8.999705
9.495616
9.678602
9.237528
8.935928
8.916855
9.002686
8.567572
8.277893
7.703900
7.529855
7.616878
7.541776
7.596612
7.588863
7.410645
7.379651
7.293820
7.139444
6.924868
7.034540
6.967783
6.796718
6.963611
7.115602
6.944537
6.622672
6.671548
6.728768
6.665587
6.958842
6.863475
6.873608
6.918907
6.815791
6.789565
6.878972
6.887913
7.221699
6.774664
6.832480
6.759763
6.603599
6.447434
6.481409
##ZVALUE=305
0.712872
0.825524
0.888705
0.890493
0.819564
0.646710
0.802875
0.769496
1.024604
1.007915
0.953674
1.063943
1.029968
1.060963
1.056790
0.963807
1.073480
1.331568
1.219511
1.306534
1.198649
1.305938
1.203418
1.332760
1.361966
1.630783
1.787543
1.975894
1.885891
2.142787
2.362728
2.520680
2.842546
3.242493
7.717609
30.025840
126.399398
287.432671
669.299960
1010.521650
1016.001701
1016.001701
1016.001701
1016.001701
1016.001701
1016.001701
1016.001701
944.506526
475.604534
255.568624
94.144940
38.270950
17.435551
19.632578
28.772950
40.640831
63.335896
79.763532
103.085637
114.387870
125.958920
124.833584
113.093853
99.690557
76.760650
59.234500
38.241744
28.041601
16.672611
12.512803
10.222793
9.640455
9.524822
9.140968
8.758903
8.668900
8.363724
8.659959
8.057952
8.153915
7.778406
7.657409
7.893443
7.825494
7.197857
7.684827
7.391572
7.357597
7.076859
6.812811
7.046461
6.936789
6.933808
6.638765
6.690621
6.757975
6.589890
6.548762
6.797910
6.724000
6.770492
6.590486
6.963611
6.979704
7.053614
7.065535
7.094741
7.397532
6.794930
6.855726
6.810427
6.911755
6.914735
6.864667
6.493926
6.501675
##ZVALUE=310
0.758767
0.763535
0.710487
0.686646
0.983477
0.904799
0.761747
0.640750
0.801682
0.887513
0.669956
0.678897
0.827909
0.798702
0.916719
0.988841
0.922680
0.978708
0.886917
1.007915
1.058578
1.364946
1.402497
1.202822
1.319647
1.344681
1.242757
1.668930
1.628995
1.889467
2.143979
2.217889
2.448559
2.276897
2.651811
3.150702
4.274845
12.563467
68.698525
169.019699
431.280732
759.484768
1016.001701
1016.001701
1016.001701
1016.001701
1016.001701
1016.001701
1016.001701
1016.001701
758.778453
439.336896
175.560713
75.998902
22.935867
14.789701
18.367767
23.674965
37.454963
50.367713
72.354674
90.601444
108.733773
116.615891
118.465424
111.585855
95.696449
79.905987
55.367947
41.042566
25.914907
19.330978
13.261437
11.021495
9.485483
8.949637
8.368492
8.299947
7.663965
7.434487
7.482767
7.297993
7.726550
7.425547
7.292628
7.107854
7.311702
7.514954
7.364750
7.363558
7.516742
7.103682
6.840825
7.094741
6.895661
6.709695
6.789565
6.936789
6.687641
6.988645
6.932616
6.800890
6.508827
6.747842
6.951690
7.102489
7.037520
7.267594
6.911755
6.851554
6.765723
6.816983
6.553531
6.858706
6.517768
6.304979
##ZVALUE=315
0.784993
0.637770
0.866652
0.798702
0.870824
0.691414
0.698566
0.788569
0.773668
0.909567
0.887513
0.901818
0.875592
0.899434
1.032948
0.940561
1.041889
0.857711
1.029968
1.130700
1.269579
1.169443
1.226664
1.321435
1.244545
1.252890
1.336932
1.398921
1.473427
1.633763
1.730919
1.735687
1.972914
1.995564
2.388954
2.451539
3.072619
3.086925
3.655553
6.553531
37.089586
109.731555
327.279568
600.140691
1016.001701
1016.001701
1016.001701
1016.001701
1016.001701
1016.001701
1016.001701
1016.001701
990.840793
636.451840
282.765627
126.385689
33.026934
15.506744
13.337731
15.378594
23.025870
33.002496
50.503612
64.806938
86.349845
100.309849
111.820698
112.633705
103.360415
89.755654
70.055723
55.528879
38.511753
27.959943
17.832518
13.228655
9.489655
8.289814
7.998943
7.843971
7.297993
7.287860
7.141829
7.211566
7.079840
7.385612
7.522702
7.044673
7.393956
7.478595
7.080436
7.050633
7.287860
7.095933
6.679893
6.741881
7.226467
6.960630
7.058978
6.864667
6.936789
7.074475
7.086992
7.210970
7.196665
7.206798
7.171631
6.806850
7.105470
7.091761
7.108450
7.023811
6.808639
6.684661
6.679893
6.737709
##ZVALUE=320
0.740886
0.575781
0.706911
0.817776
0.667572
0.696778
0.756979
0.683665
0.994802
0.792742
0.940561
0.819564
0.926852
0.861883
0.766516
0.843406
0.916719
0.942945
1.012683
0.989437
1.174808
0.799894
1.027584
0.996590
1.121759
1.181960
1.087785
1.484752
1.374483
1.397729
1.434684
1.566410
1.637936
1.705885
1.830459
2.049804
2.149940
2.372861
2.460480
2.813935
3.400445
4.160404
13.460517
75.665712
195.935369
519.945621
861.390829
1016.001701
1016.001701
1016.001701
1016.001701
1016.001701
1016.001701
1016.001701
1016.001701
828.339458
388.801694
187.753439
57.752728
22.423863
11.360645
11.300445
14.362931
19.385815
30.727983
42.857528
61.939955
78.190565
97.188950
103.772879
105.817914
100.338459
85.615516
71.421862
52.483678
39.123893
25.272965
17.627478
11.410713
9.155869
7.595420
7.552505
7.329583
7.489920
7.435679
7.045865
7.024407
6.886721
7.208586
6.931424
6.894469
7.415414
7.065535
7.068515
6.682873
6.970763
7.074475
7.061958
6.813407
6.773472
6.845593
7.276535
7.062554
6.981492
7.424951
7.108450
7.091761
6.837845
7.024407
7.072687
7.162690
7.010698
6.824732
6.696582
6.568432
6.740689
##ZVALUE=325
0.655651
0.782609
0.673532
0.561476
0.592470
0.559688
0.600815
0.618696
0.653863
0.879765
0.807643
0.671744
0.791550
0.833869
0.635982
0.741482
0.780821
0.656843
0.691414
0.912547
1.011491
0.802875
1.014471
1.016855
0.931621
1.087785
0.978708
1.146793
1.105666
1.317859
1.321435
1.551509
1.426935
1.636744
1.639724
1.654625
1.664758
1.948476
2.072453
2.190471
2.491474
2.808571
3.076792
3.732443
6.721616
46.456456
133.315921
370.264649
666.162968
1016.001701
1016.001701
1016.001701
1016.001701
1016.001701
1016.001701
1016.001701
1016.001701
928.443670
565.403700
247.772932
110.120773
28.104782
12.663603
10.106564
10.613799
13.640523
18.816590
30.050874
41.721463
60.529709
74.600577
90.837479
98.407865
98.606944
92.515945
77.729821
65.059662
47.609806
34.874678
22.290945
15.552640
10.399818
8.868575
7.156730
7.084608
6.906986
6.918907
6.738901
6.689429
6.828904
6.557703
6.640553
6.437898
6.823540
6.709695
7.023811
6.964803
6.982684
6.748438
6.829500
6.913543
7.040501
7.319450
7.274747
6.895661
7.254481
7.042885
6.993413
6.881952
7.022619
6.996989
6.944537
6.888509
6.621480
6.689429
6.496906
##ZVALUE=330
0.554919
0.371933
0.639558
0.611544
0.746846
0.588894
0.672936
0.771880
0.494719
0.651479
0.674725
0.738502
0.878572
0.883937
0.670552
0.790954
0.849962
0.773668
0.792742
0.763535
0.640750
0.932813
0.789762
0.935793
0.866652
0.941753
0.995994
0.910759
1.239777
1.150966
1.173615
1.182556
1.389980
1.508594
1.328588
1.419783
1.468658
1.624823
1.649857
1.640916
1.888871
2.062917
2.368689
2.531409
2.736449
3.086925
4.416704
14.606714
84.751844
210.211873
521.932840
876.947641
1016.001701
1016.001701
1016.001701
1016.001701
1016.001701
1016.001701
1016.001701
1016.001701
664.531589
362.648964
137.773752
58.057904
16.784668
10.037422
9.652972
9.694695
13.556480
18.426776
28.855801
39.279461
55.525899
70.252419
84.345937
90.721846
92.283487
85.759759
72.293878
60.822964
44.003725
33.059716
22.225976
16.104579
11.015534
8.845925
7.349849
7.105470
6.886721
6.819963
6.699562
6.584525
6.720424
6.425977
6.539822
6.588697
6.776452
6.710887
6.727576
6.835461
7.101893
6.864667
6.966591
7.008910
7.178783
7.167459
7.216930
7.138848
6.885529
7.254481
6.748438
6.756783
6.807446
6.643534
6.519556
6.368756
##ZVALUE=335
0.509620
0.643730
0.542998
0.600815
0.671744
0.599623
0.857711
0.608563
0.695586
0.478625
0.505447
0.660419
0.751615
0.659823
0.781417
0.627637
0.757575
0.907779
0.896454
0.672936
0.844598
0.756979
0.780821
0.949502
0.867844
0.856519
0.814795
0.891685
0.989437
1.105666
1.088977
0.940561
0.983477
1.167655
1.293421
1.110435
1.289845
1.434684
1.416802
1.652837
1.670718
1.687407
1.905560
2.075434
2.246499
2.269745
2.524853
3.078580
3.516674
7.155538
42.404532
121.051669
357.356668
659.045577
1016.001701
1016.001701
1016.001701
1016.001701
1016.001701
1016.001701
1016.001701
1016.001701
800.330639
471.397638
193.943977
83.764791
22.701621
11.123419
9.002686
9.143949
10.151863
12.463927
17.845631
25.145411
38.365722
50.785542
67.543983
78.945756
86.202621
87.303519
79.566836
71.865916
56.729913
45.640469
31.647682
23.678541
15.272498
11.728406
8.473992
7.346869
6.779432
6.515980
6.426573
6.297827
6.517768
6.522536
6.522536
6.704926
6.555915
6.951690
6.602407
6.813407
6.887913
6.668568
7.005930
7.364750
7.002950
6.970763
6.678700
7.182956
6.823540
7.040501
6.876588
6.504655
6.531477
6.594658
##ZVALUE=340
0.603795
0.448823
0.549555
0.534654
0.659823
0.561476
0.630617
0.667572
0.596642
0.592470
0.617504
0.643730
0.591874
0.724792
0.703931
0.718832
0.764728
0.513792
0.659823
0.790954
0.807643
0.782609
0.789762
0.768900
0.902414
0.821948
0.885725
0.811815
1.028776
0.843406
0.916719
1.036525
1.040697
1.019835
1.019835
1.199841
1.298785
1.263618
1.354814
1.477599
1.442432
1.634955
1.515746
1.733899
1.715422
1.826882
2.283454
2.107620
2.518892
2.877712
3.340840
3.978610
22.467971
73.840618
244.804621
496.960878
985.871553
1016.001701
1016.001701
1016.001701
1016.001701
1016.001701
1016.001701
1016.001701
990.348458
641.063452
276.030898
124.267936
31.046867
12.652874
9.598732
8.928776
8.862615
9.736419
12.199879
15.941858
25.189519
35.199523
50.010681
61.771870
73.625445
79.365969
80.492496
76.629519
66.700578
56.687593
41.767955
32.361746
21.894574
15.694499
10.816455
8.096695
7.295609
6.983876
6.767511
6.612539
6.371737
6.325841
6.523728
6.424785
6.383657
6.350875
6.745458
6.959438
6.850958
6.955862
6.882548
6.933808
6.730556
6.876588
6.995797
7.258654
6.886721
6.546974
7.006526
6.719828
##ZVALUE=345
0.612736
0.485778
0.528693
0.420809
0.595450
0.501871
0.556707
0.523925
0.617504
0.604987
0.522733
0.589490
0.641942
0.576973
0.641942
0.670552
0.703931
0.593662
0.592470
0.699759
0.736713
0.741482
0.600815
0.640750
0.765920
0.702739
0.869632
0.758767
0.843406
0.885725
0.875592
0.936985
0.980496
1.063943
1.087785
0.940561
1.035929
1.277924
1.188517
1.174808
1.219511
1.286864
1.318455
1.311898
1.204610
1.612902
1.784563
1.807809
1.907945
2.150536
2.189875
2.539754
2.912879
3.233552
8.911490
36.883950
157.066584
335.364938
738.463998
1016.001701
1016.001701
1016.001701
1016.001701
1016.001701
1016.001701
1016.001701
1016.001701
902.146697
422.516465
202.112794
57.815909
20.671487
10.344982
9.255409
8.730888
8.390546
8.808970
10.607839
15.411973
21.449924
32.155514
43.140650
56.720972
65.286756
72.417855
74.306726
71.274638
65.304637
52.862763
42.892694
30.081868
22.543669
14.902949
11.440516
8.864999
7.674694
6.925464
6.797910
6.546974
6.568432
6.638765
6.538630
6.780624
6.728768
6.617904
6.854534
6.825924
6.995797
6.968975
6.841421
6.883740
6.498694
6.685853
6.388426
6.824732
6.413460
##ZVALUE=350
0.523925
0.614524
0.619888
0.452995
0.521541
0.297427
0.458956
0.555515
0.562668
0.676513
0.748634
0.727773
0.633597
0.845790
0.720620
0.554919
0.631809
0.543594
0.484586
0.569820
0.610948
0.661612
0.674725
0.718832
0.680685
0.614524
0.815988
0.744462
0.773668
0.913739
0.804663
0.900626
0.986457
0.918508
1.143813
1.098514
1.057982
1.024604
1.054406
0.926852
1.034737
1.239777
1.141429
1.306534
1.135468
1.364946
1.486540
1.653433
1.584888
1.768470
1.978874
2.102852
2.094507
2.380610
2.685785
2.926588
4.861951
18.591881
91.779828
212.009549
527.305603
907.630920
1016.001701
1016.001701
1016.001701
1016.001701
1016.001701
1016.001701
1016.001701
945.807695
480.108857
263.839960
96.675754
33.986568
10.761619
8.803606
7.829666
7.270575
7.486939
7.655621
9.682775
13.590455
20.137429
27.447939
39.837956
48.435926
60.120821
65.796971
68.621635
67.553520
59.114695
51.317811
39.287806
30.839443
21.191835
16.058683
11.452436
9.087920
7.404685
7.073879
6.804466
6.670952
6.554723
6.622672
6.660819
6.702542
6.593466
6.631613
6.792545
6.849766
6.740689
6.630421
6.918907
6.622672
6.490946
6.611943
##ZVALUE=355
0.684857
0.555515
0.523925
0.827909
0.740886
0.562668
0.628829
0.559688
0.688434
0.652671
0.678897
0.677705
0.713468
0.800490
0.683665
0.659823
0.661612
0.621676
0.642538
0.806451
0.622869
0.717640
0.750422
0.800490
0.844598
0.764728
0.658631
0.987649
0.793934
0.790954
0.824928
0.767708
0.727773
0.948906
1.038909
0.973940
1.064539
1.172423
1.045465
1.018643
1.008511
1.046658
1.253486
1.052618
1.372695
1.265407
1.491904
1.437664
1.645684
1.374483
1.505613
1.887679
1.705885
1.932979
1.993775
2.387762
2.544522
2.800822
3.673434
7.522702
49.557686
137.364864
367.415547
657.078028
1016.001701
1016.001701
1016.001701
1016.001701
1016.001701
1016.001701
1016.001701
1016.001701
624.309778
341.127515
124.863982
49.010515
13.193488
8.378625
7.555485
7.366538
6.846786
7.006526
7.501841
8.873940
11.850595
16.651750
25.175810
33.257604
44.828653
52.217841
59.823990
62.404871
61.134696
56.472421
46.903491
39.966702
29.644966
23.136735
15.640855
12.402534
9.387732
7.985830
7.118583
7.045865
6.727576
6.613731
6.659627
6.600618
6.523728
6.712675
6.858706
6.660819
6.422997
6.415844
6.597638
6.014705
##ZVALUE=360
0.529885
0.656843
0.561476
0.510812
0.837445
0.726581
0.592470
0.736713
0.545979
0.632405
0.536442
0.674725
0.604987
0.507832
0.777841
0.666976
0.579953
0.601411
0.681877
0.746846
0.830889
0.700951
0.814795
0.785589
0.920892
0.883937
1.010895
1.022816
0.928640
0.887513
0.796914
0.890493
0.825524
0.951886
0.998974
1.000762
0.954866
0.989437
1.178980
1.226664
1.260638
1.152754
0.865459
1.219511
1.074672
1.298785
1.234412
1.372695
1.387596
1.520514
1.450777
1.423955
1.692772
1.949668
1.832843
2.033710
2.147555
2.529621
2.603531
2.907515
3.501773
4.516840
22.145510
72.030425
233.152509
457.465053
922.418833
1016.001701
1016.001701
1016.001701
1016.001701
1016.001701
1016.001701
1016.001701
803.884864
473.906994
183.448792
74.736476
17.808676
9.113550
7.450581
7.169843
6.631613
6.408691
6.192923
6.501675
7.553697
9.581447
14.635921
20.007491
29.576421
37.683845
47.364831
52.656531
57.274699
57.063699
53.073764
47.627687
38.679838
31.722784
22.501945
17.503500
12.710690
9.934902
8.114576
7.173419
6.820560
6.228685
6.469488
6.405711
6.200671
6.159544
6.184578
5.971789
5.903840
5.956888
##ZVALUE=365
0.640750
0.484586
0.594854
0.459552
0.490546
0.476837
0.595450
0.636578
0.464916
0.677705
0.747442
0.724792
0.520945
0.632405
0.678897
0.640750
0.649691
0.571609
0.666976
0.545979
0.611544
0.714660
0.862479
0.780821
0.813603
0.740886
0.694990
0.809431
0.955462
0.915527
0.927448
0.849962
0.817776
0.917912
1.015663
1.016855
0.873804
1.055598
0.981688
0.943542
1.076460
1.281500
0.963807
1.148582
1.103878
1.157522
1.162887
1.401901
1.408458
1.277924
1.436472
1.391768
1.460910
1.657605
1.649857
1.794696
1.714826
2.044439
2.312660
2.375841
2.640486
2.919436
3.262758
3.966689
7.677674
46.108961
131.628513
380.938649
694.385767
1016.001701
1016.001701
1016.001701
1016.001701
1016.001701
1016.001701
1016.001701
992.255807
563.915968
306.804776
109.382868
40.881634
10.440946
7.389784
6.828904
6.255507
6.100535
5.713701
5.822778
5.828738
6.647706
8.192658
12.334585
16.630888
23.998618
31.261444
40.300488
46.346784
51.944852
53.044558
50.935745
46.628714
38.620830
31.469464
23.106933
18.102527
13.006926
10.127425
8.308887
7.200837
6.464720
6.112456
6.075501
5.981922
5.798936
5.631447
5.432963
##ZVALUE=370
0.539422
0.473857
0.523925
0.665784
0.566840
0.604987
0.646710
0.558496
0.562668
0.716448
0.611544
0.626445
0.579953
0.721812
0.528693
0.573993
0.602603
0.639558
0.517964
0.662804
0.660419
0.766516
0.723600
0.884533
0.694990
0.807643
0.664592
0.829697
0.606775
0.704527
0.871420
0.744462
0.774860
0.801682
0.891685
0.937581
0.823736
0.929832
0.917912
0.971556
0.926852
1.014471
0.979900
0.934601
1.139641
1.055598
0.840425
0.853539
1.144409
1.259446
1.216531
1.298785
1.271963
1.391768
1.425743
1.419783
1.400709
1.517534
1.664758
1.669526
1.828671
2.089739
2.385974
2.559423
2.879500
3.334880
5.147457
18.903613
100.517869
247.156620
599.821806
959.806442
1016.001701
1016.001701
1016.001701
1016.001701
1016.001701
1016.001701
1016.001701
721.669793
357.233882
182.060003
61.745644
22.643805
7.619858
6.682873
6.039739
5.569458
5.443692
5.435944
5.205870
5.600452
6.309748
7.698536
10.892749
14.466643
21.027923
27.245879
35.586953
41.534901
47.466755
49.400926
48.061609
45.242906
38.354993
31.692982
23.990870
17.942786
14.078617
10.548830
8.632541
7.215738
6.240606
5.641580
5.622506
5.579591
##ZVALUE=375
0.575781
0.673532
0.559688
0.498891
0.595450
0.507832
0.504851
0.371933
0.499487
0.548959
0.531673
0.518560
0.439882
0.627637
0.685453
0.608563
0.705719
0.579953
0.652671
0.553727
0.573993
0.689626
0.663996
0.665784
0.653863
0.879765
0.843406
0.811815
0.927448
0.743866
0.820756
0.714660
0.789762
0.809431
0.747442
0.875592
0.838637
0.850558
0.697970
0.875592
0.966787
0.820756
0.899434
0.964999
0.895858
0.822544
1.060963
0.948906
0.819564
1.092553
0.997782
1.152754
1.061559
1.143813
1.220703
1.167655
1.218915
1.277924
1.308918
1.515746
1.550913
1.577735
1.881719
1.929998
2.126694
2.163649
2.618432
2.870560
3.883839
9.056926
48.201680
136.620402
400.649905
733.332634
1016.001701
1016.001701
1016.001701
1016.001701
1016.001701
1016.001701
1016.001701
917.719007
505.275726
284.426808
109.993815
43.941736
10.975599
6.752610
5.935431
5.650520
5.583763
5.273819
5.142689
5.200505
5.536675
5.506873
6.878972
8.447766
12.010932
16.594529
23.602843
30.540824
38.699508
43.250918
46.765804
46.769977
43.740869
38.069487
32.637715
27.302504
20.212531
15.893579
11.214614
8.891821
7.163882
6.107688
##ZVALUE=380
0.562668
0.456572
0.454783
0.554919
0.537634
0.533462
0.661612
0.494719
0.516772
0.501871
0.399947
0.385642
0.638962
0.502467
0.554919
0.652671
0.323653
0.444651
0.699759
0.432730
0.581741
0.558496
0.521541
0.615716
0.561476
0.654459
0.634789
0.679493
0.727773
0.710487
0.704527
0.738502
0.755787
0.727773
0.865459
0.891685
0.869632
0.879765
0.853539
0.938773
0.949502
0.669956
0.790954
0.917912
0.916719
0.773668
0.815988
0.688434
0.962615
0.926852
0.860691
1.039505
1.077652
1.001954
1.031756
1.075864
1.157522
1.083612
1.185536
1.312494
1.390576
1.356602
1.389980
1.457930
1.681447
1.684427
2.102852
2.399683
2.721548
3.253818
3.536940
6.566644
25.411844
117.552876
271.951556
643.786788
995.166898
1016.001701
1016.001701
1016.001701
1016.001701
1016.001701
1016.001701
1012.114882
702.191591
335.891843
175.368786
64.791441
22.584796
7.110834
6.216764
5.751848
5.578995
5.375743
5.333424
4.936457
4.987717
5.003810
5.253553
6.281734
7.905960
11.515617
15.549660
22.716522
28.500557
35.836697
40.313601
44.133663
45.023561
42.794943
39.108992
32.756925
27.333498
20.388961
15.861988
11.220574
##ZVALUE=385
0.528693
0.430942
0.473857
0.631809
0.407696
0.499487
0.525713
0.397563
0.554919
0.483990
0.484586
0.558496
0.407696
0.479817
0.510812
0.482798
0.510812
0.602603
0.524521
0.386834
0.531673
0.553727
0.408888
0.678897
0.705719
0.774860
0.687838
0.883937
0.789762
0.830889
0.762939
0.814795
0.833869
0.824928
0.911951
0.744462
1.008511
0.849962
0.776649
0.941753
0.912547
0.842810
0.848770
0.951886
0.911951
0.908971
0.972748
0.873804
1.048446
1.018643
0.915527
0.947714
0.969768
0.832677
1.030564
1.004934
1.061559
1.055598
1.072884
1.133680
1.256466
1.130700
1.280904
1.302958
1.379848
1.516938
1.511574
1.924634
2.237558
2.386570
2.722740
2.967715
3.387928
3.744960
13.843775
52.326918
198.251605
416.196585
873.539448
1016.001701
1016.001701
1016.001701
1016.001701
1016.001701
1016.001701
1016.001701
942.392945
586.620569
259.324908
122.621655
36.136508
11.867881
6.033778
5.607605
5.563498
5.391836
5.077720
4.851818
4.763603
4.853606
4.859567
4.848838
5.989671
6.881952
9.926558
12.757778
18.690825
24.954677
29.687881
35.645962
39.310455
41.008592
41.103959
37.782788
33.060908
26.972890
##ZVALUE=390
0.422597
0.440478
0.481606
0.358820
0.369549
0.550747
0.414848
0.527501
0.414848
0.391603
0.332594
0.357628
0.389814
0.593662
0.527501
0.555515
0.585914
0.392795
0.563860
0.469685
0.521541
0.514984
0.589490
0.673532
0.555515
0.576973
0.719428
0.783801
0.771880
0.961423
0.695586
0.844598
0.903606
0.779629
0.862479
1.043677
0.946522
0.942945
0.930429
0.943542
0.918508
0.948906
0.982881
1.009703
0.797510
1.004934
0.936985
0.877976
1.068711
1.003742
1.073480
1.112819
1.140833
0.918508
1.081824
0.961423
0.931621
1.152754
1.089573
1.056790
1.142621
1.193881
1.309514
1.406670
1.506805
1.287460
1.453757
1.648664
1.908541
2.148747
2.253652
2.666712
2.695918
2.820492
2.907515
3.096461
7.002950
35.264492
164.898634
341.307521
704.644918
1016.001701
1016.001701
1016.001701
1016.001701
1016.001701
1016.001701
1016.001701
1016.001701
808.239579
388.564467
197.310448
63.642859
22.339821
7.388592
5.779862
5.478859
5.206466
5.074739
4.959702
5.162954
4.876852
4.866719
4.698634
4.985929
5.509853
6.426573
8.758903
11.164546
15.715957
20.050406
26.370883
30.988455
36.486983
38.387775
38.729906
##ZVALUE=395
0.552535
0.374913
0.419617
0.440478
0.562668
0.399947
0.440478
0.356436
0.461936
0.549555
0.487566
0.353456
0.484586
0.441670
0.393987
0.489950
0.565648
0.279546
0.509620
0.549555
0.390410
0.526905
0.413656
0.540614
0.636578
0.616908
0.699759
0.738502
0.805855
0.632405
0.877976
0.769496
0.640750
0.880957
0.881553
0.905991
0.933409
0.963807
1.031756
0.937581
1.048446
1.039505
1.010895
0.977516
1.087785
0.935793
0.895858
0.996590
1.031756
0.907779
1.136661
1.033545
0.980496
1.013875
1.008511
1.000762
1.021624
1.014471
1.102686
1.099706
1.210570
1.074672
1.140833
1.206994
1.176000
1.402497
1.516938
1.579523
1.804829
1.944900
2.083778
2.244711
2.185702
2.149940
2.380610
2.480745
2.419949
2.761483
4.037619
12.885928
72.334409
188.601613
465.743542
774.441957
1016.001701
1016.001701
1016.001701
1016.001701
1016.001701
1016.001701
1016.001701
975.528955
527.489781
287.293792
111.651421
44.903755
11.431575
6.257892
5.441904
5.481839
5.328655
5.439520
5.501509
5.418658
5.045533
5.030632
5.075932
5.029440
5.242825
6.100535
7.409453
9.966493
12.715459
18.352866
22.895932
28.756857
##ZVALUE=400
0.507832
0.621676
0.497699
0.430942
0.370741
0.371933
0.346899
0.374913
0.454783
0.564456
0.498891
0.431538
0.397563
0.417829
0.332594
0.442863
0.517964
0.495911
0.558496
0.540614
0.455976
0.493526
0.518560
0.462532
0.530481
0.528693
0.697970
0.677705
0.723600
0.873804
0.881553
0.838637
0.848770
0.916719
0.987649
1.066923
1.033545
1.031756
1.015663
0.859499
1.028776
1.011491
1.067519
0.850558
1.053810
1.079440
0.992417
1.094937
0.918508
1.165867
0.916719
1.034737
0.968575
0.980496
0.925660
0.933409
1.105666
1.004934
0.994802
0.988841
0.984669
1.080632
1.096725
1.089573
1.083612
1.225471
1.350641
1.474619
1.644492
1.755953
1.793504
1.952648
1.889467
2.035499
1.934767
1.907945
1.921654
2.157688
2.367496
2.593994
3.102422
6.324649
37.592649
109.440684
315.187573
575.971603
1007.134914
1016.001701
1016.001701
1016.001701
1016.001701
1016.001701
1016.001701
1016.001701
734.767914
432.089567
180.801749
77.516437
18.869638
7.854700
5.740523
5.529523
5.559921
5.469918
5.556941
5.610585
5.400777
5.257726
5.061626
4.896522
4.718900
4.932880
5.211830
6.453991
8.304715
11.827946
##END
