##TITLE=12-2
##FORMAT=SPECTACLE-ASCII V-1.2
##DATA TYPE=ULTRAVIOLET SPECTRUM
##SECOND TYPE=ULTRAVIOLET SPECTRUM
##DATE=04/04/18
##TIME=11:34:35
##SPECTROMETER/DATA SYSTEM=SPECTACLE
##XUNITS=NM EM
##YUNITS=ENERGY
##YFACTOR=1
##FIRSTX=220
##LASTX=450
##NPOINTS=116
##3DDATA=Equidistant
##ZUNITS=NM EX
##FIRSTZ=210
##LASTZ=400
##ZPOINTS=39
##XYDATA=(Y..Y)
##ZVALUE=210
17.875433
17.799735
15.046597
11.173487
10.241866
11.514425
9.464622
8.037686
8.433461
6.090999
4.511476
4.030466
3.346801
2.970695
3.452897
3.058910
3.486872
3.401637
3.648996
4.287958
4.349947
4.894733
4.981756
5.452633
6.198883
6.154776
7.272959
8.446574
8.516908
9.117723
9.932518
9.803772
10.836720
10.917783
10.965466
10.296702
11.979938
9.471774
10.928512
11.579990
11.733770
12.346506
10.440946
11.152625
11.643767
10.913610
11.182427
10.851622
10.379553
10.879636
10.282993
10.466576
9.876490
11.047721
10.616779
9.722710
10.336637
10.767579
10.477901
9.954572
11.327863
9.641647
9.738803
8.723736
9.458661
10.660887
10.977983
10.359883
11.794567
13.693571
15.421510
18.364787
20.329952
21.834970
21.562576
25.291443
24.469495
22.962689
22.805929
22.420883
20.036697
17.375946
14.953613
13.370514
12.444854
10.355711
9.799600
9.563565
9.938478
11.633635
14.881492
17.161965
21.312833
28.534532
32.658577
39.353967
45.731664
52.124858
64.079762
62.289834
68.001747
70.033669
68.838000
70.685744
65.887570
63.325763
60.388446
52.016973
43.735504
39.682984
29.591918
26.071668
19.325614
18.437505
16.569495
15.311837
##ZVALUE=215
55.279732
56.137443
44.676661
33.900738
24.800897
19.638538
18.194914
17.095804
16.455650
13.084412
12.320876
9.798408
7.745624
5.261898
5.019903
4.251599
3.519654
3.511906
4.173517
4.881620
4.353523
4.128814
5.100965
5.041957
5.886555
7.254481
7.763505
8.282661
9.544492
9.762645
9.119511
10.081530
12.551546
11.184812
11.170506
11.990666
10.692477
12.198687
11.884570
13.535619
11.385679
12.084842
12.545586
13.460517
12.861490
11.612773
11.465549
13.279915
12.421608
12.735724
12.750626
13.306737
11.484623
12.388825
13.255477
11.348724
12.389421
11.796951
11.732578
11.783838
11.070967
11.222959
10.492802
10.255575
10.433793
10.963678
10.763407
11.878610
13.356805
14.591813
15.790462
17.224550
18.965602
21.755695
20.381808
21.376610
21.565557
20.836592
19.903779
20.065904
17.769933
16.818643
14.835000
12.990832
11.351705
10.957718
10.202527
9.126663
9.085536
8.826852
8.834600
7.451773
9.680986
9.207726
11.525750
16.641617
19.112825
29.737949
35.316944
43.338537
53.032637
67.156553
78.153610
86.208582
94.009638
100.008845
103.405714
103.649497
97.604990
95.176697
95.403790
79.455972
79.726577
68.289638
54.653883
43.744445
##ZVALUE=220
122.331977
120.239854
111.624599
102.618933
88.263750
63.645840
45.983791
35.891533
28.038621
24.743676
24.484992
23.448467
21.824837
18.043518
14.223456
10.631680
7.799864
6.980896
4.401803
4.943609
3.971457
4.372597
5.319715
6.417632
5.233884
6.184578
7.647872
7.416606
7.142425
9.108782
9.154677
10.054708
10.216832
10.558963
11.601448
12.846589
12.532473
12.261868
13.593435
12.303591
14.096498
14.484525
13.167858
14.742613
14.564991
12.454987
13.071895
14.457703
14.376640
13.231635
13.808608
13.568997
14.622808
13.846755
13.274550
15.424490
13.710856
13.220906
13.061762
13.054609
14.057755
12.721419
14.673471
12.782812
12.646914
12.754798
13.436675
14.418960
14.426708
14.698505
15.110970
18.415451
19.641519
20.738840
22.386909
20.723939
20.783544
19.917488
19.166470
17.143488
18.090606
16.339421
14.888644
12.993813
12.189746
10.628700
10.080934
9.467602
9.287000
7.650852
10.070801
8.108616
8.711815
7.865429
8.192658
8.153915
8.441806
8.490682
9.919405
12.900829
17.855763
27.258992
34.540892
49.737692
58.639646
80.325603
94.635487
112.037659
128.668547
138.085485
150.635839
156.908631
161.236525
159.878731
151.062608
138.654709
##ZVALUE=225
153.535604
156.264901
192.245841
202.438831
207.741857
186.001658
162.810683
115.302801
89.891553
61.152577
47.596693
40.809512
40.558577
39.152503
38.671494
33.339858
27.021766
20.861626
15.561581
10.139942
7.431507
5.820990
6.248951
6.716847
5.504489
5.976558
7.476807
6.821752
7.045865
7.819533
9.760857
8.120537
9.733438
10.403991
11.308789
12.967587
12.734532
13.282895
14.346838
13.088584
16.861558
14.723539
14.763474
14.924407
15.989542
16.558766
16.313791
17.274618
16.817451
16.559958
15.493631
17.372966
15.581846
16.605854
15.528798
16.842484
17.024875
15.171766
15.246868
15.590787
14.064908
15.570521
14.133453
15.483499
13.132691
14.756918
16.147494
14.167428
16.505718
15.971661
17.545819
18.394589
18.927455
21.796823
21.881461
20.954609
20.635724
20.115972
19.995570
19.148588
17.300844
15.493631
14.285445
13.491511
12.760758
11.973977
10.853410
10.882616
10.919571
10.541677
9.235740
9.533763
9.228587
9.287000
9.597540
9.159446
8.907914
9.537935
9.310842
9.979606
9.170771
10.062456
9.769797
11.280775
17.259717
22.101998
37.287474
53.166747
69.546700
94.197989
113.980770
140.303969
165.114999
197.524428
222.699642
231.390595
##ZVALUE=230
101.957917
106.977820
177.936554
237.837434
293.334723
356.415510
359.239578
338.016748
296.650529
225.817561
161.814690
104.869604
75.277686
61.102509
59.500933
57.504773
57.761669
55.884719
51.344633
36.783814
27.841926
20.326972
14.293790
9.548664
8.362532
7.184744
6.832480
7.405877
8.236766
8.025765
8.774996
8.961558
10.868907
10.152459
10.646582
13.044477
13.458729
13.740659
15.408993
14.766455
16.440749
15.854836
15.999675
17.547607
17.051697
17.188787
17.995834
17.869473
18.928647
18.349886
16.610622
16.952753
17.437935
18.569827
16.739964
15.739799
17.449856
15.351772
15.714765
15.499592
17.822981
15.887618
15.387535
15.992522
15.014410
16.549826
17.072558
17.795563
16.560555
17.066598
18.595457
20.530820
22.426844
22.052526
22.705793
23.642778
22.437572
21.938682
21.436810
19.992590
18.313527
17.672777
14.885664
16.185641
14.168620
12.305975
13.935566
11.480451
11.520982
11.845827
11.163950
11.776686
11.562705
11.806488
11.261702
11.687875
10.897517
11.243820
12.482405
11.177659
11.585951
11.419654
10.389686
11.820793
9.811521
11.570454
11.326671
12.751818
15.604496
21.595955
29.646754
48.725605
67.024827
101.711750
129.435658
173.555017
##ZVALUE=235
28.993487
33.361912
80.365539
143.065453
228.689909
354.238749
451.497436
562.334657
598.755479
561.344624
497.984886
379.812717
279.046893
172.041655
122.087598
86.425543
80.691576
86.279511
86.094737
82.736611
79.971552
73.297620
52.258968
39.671659
24.206638
18.051863
12.646914
9.843707
7.905960
8.472800
9.170771
9.056926
10.072589
9.632707
12.250543
10.790825
13.991594
12.255907
14.390945
15.288591
15.991926
17.352700
16.676784
17.091632
17.897487
17.786622
18.177629
16.868711
16.308427
18.475652
16.063452
16.762614
16.894937
17.669797
18.686652
17.321706
15.820861
16.578436
17.330647
16.031861
15.163422
16.291738
17.200708
14.697909
14.940500
16.350746
17.081499
16.634464
17.198920
18.354654
20.603538
22.382736
23.464561
24.359822
24.099946
24.020672
24.275780
24.589896
21.880865
20.226836
18.808842
18.818974
17.219782
16.270876
16.180873
16.277432
15.280843
14.840961
15.221834
13.521910
12.651682
13.896823
13.515949
13.829470
12.445450
14.068484
13.033748
13.510585
13.673902
12.865663
12.393594
13.046861
12.973547
12.397766
13.192892
12.599826
13.371706
13.347864
13.242960
12.664795
13.303757
14.477968
13.221502
16.929507
23.042560
40.691495
##ZVALUE=240
3.168583
2.956986
11.304617
30.871630
69.550872
156.424642
271.977782
458.791852
611.025691
780.830979
856.416821
851.920843
770.309567
605.455637
463.248491
291.992426
198.007822
131.271482
106.491446
109.298825
116.424561
120.588541
117.772818
100.825429
85.717440
67.019463
47.807693
34.483671
23.039579
15.774965
12.989640
10.710955
12.074709
11.292696
12.219548
11.398792
13.666749
14.608502
14.611483
15.358925
13.890862
14.815927
16.627908
16.938448
16.971827
16.167760
16.983747
17.795563
16.739964
17.717481
16.921759
16.199946
16.706586
17.164946
17.772913
14.790893
16.809702
17.172694
16.215444
17.788410
14.898777
16.168952
16.016960
16.099811
16.475916
17.186999
17.824769
17.239451
19.128919
20.362735
21.557808
20.423532
26.042461
24.571419
24.296641
25.193691
24.864674
24.406910
22.290945
22.723675
18.353462
19.115806
16.427636
16.917586
16.718507
16.388893
15.595555
16.508698
15.837550
14.982820
14.606714
15.866756
14.693737
15.243888
16.335845
14.415979
14.470816
14.836788
15.418530
15.379786
16.148686
15.082955
14.396906
16.404986
15.795827
14.511943
16.160607
14.358759
15.337467
15.809536
14.226437
13.179779
13.258457
15.005469
15.535951
15.580654
##ZVALUE=245
1.843572
2.270937
2.163649
2.418756
4.631877
21.555424
53.546429
146.619678
254.335999
448.967814
628.695488
847.593546
976.918936
1012.048721
970.762968
802.529454
652.161837
432.531834
297.691822
171.532631
119.712949
108.131766
115.236640
130.325556
132.513642
128.251910
116.026998
101.999640
76.145530
55.202842
37.979484
27.332902
19.189715
14.545918
12.180805
11.128783
12.120605
13.923645
13.037920
12.936592
14.843941
15.617609
14.470816
13.717413
15.349984
14.945865
15.441775
14.876723
14.024973
14.173985
14.580488
14.787912
14.799833
14.947653
14.225841
14.572740
14.205575
14.457703
14.531612
14.230609
14.299750
14.112592
13.686419
14.684796
14.393926
13.520718
14.960766
14.086962
15.238523
17.761588
18.017888
18.681884
19.512773
20.501614
23.405552
21.586418
21.350980
20.179749
19.514561
19.286871
18.720627
15.631914
16.107559
14.916658
15.151501
14.941692
13.862848
14.413595
13.848543
13.938546
14.005899
14.404655
14.842749
13.307929
14.750957
12.247562
13.712645
14.107823
13.937950
13.872981
13.689995
14.684796
13.814569
13.264418
14.039874
13.822913
13.705492
13.295412
15.485883
12.893677
13.723969
12.846589
13.630986
13.606548
13.802648
14.223456
##ZVALUE=250
1.838803
1.659989
1.894832
2.035499
2.212524
2.476573
3.268719
15.545487
41.009784
114.046931
219.419599
431.455970
622.182488
885.874033
1016.001701
1016.001701
1016.001701
1014.229655
871.827602
603.575706
411.915779
231.982470
150.415897
108.188987
107.791424
121.092796
135.652423
141.595602
134.848952
123.237967
104.002953
84.370971
60.113668
43.586493
27.658939
19.339919
14.708638
12.893677
12.644529
13.168454
13.381839
13.669729
13.297796
14.794469
14.910698
14.732480
14.172792
14.230609
14.565587
14.599562
14.677644
14.303923
13.769865
13.992786
13.928413
13.617873
13.241768
12.929440
14.957786
13.400912
13.473630
12.857914
13.298988
12.566447
13.924837
13.049841
12.917519
12.661815
14.733672
14.196634
15.841722
16.691685
18.225908
18.404722
19.657612
18.113852
18.185973
17.090440
16.749501
16.274452
16.298890
14.395714
14.105439
13.969541
11.761785
12.759566
11.807680
11.634827
12.476444
12.454987
11.908412
11.978745
12.105703
12.112856
12.352467
11.059642
12.323856
11.833906
12.036562
13.330579
11.808872
11.936426
12.089610
11.893511
12.019873
12.922883
13.230443
13.520718
11.526942
13.786554
11.914968
12.620687
13.643503
12.169480
12.608767
12.366772
##ZVALUE=255
1.402497
1.674891
1.431704
1.591444
1.639724
2.007484
2.239943
2.415776
2.215505
7.817745
25.197864
91.919899
183.541775
384.202600
584.868789
877.556801
1016.001701
1016.001701
1016.001701
1016.001701
1016.001701
792.822838
552.597642
307.665467
191.852450
113.066435
99.920630
102.956891
128.258467
145.204663
151.712894
146.899819
132.762790
112.477541
86.978674
65.572858
41.651726
29.410720
20.811558
16.739964
15.661716
14.988780
14.563799
14.997721
15.089512
14.801621
16.444921
15.825629
14.679432
14.603734
14.630556
15.249848
15.646815
15.100837
15.224814
13.832450
14.545918
13.884902
13.527870
14.050603
14.012456
14.369488
13.657808
12.962818
13.713837
13.241768
13.181567
14.820695
15.000701
14.621615
15.397668
14.804602
16.564727
17.009974
16.763806
17.869473
16.199946
14.589429
15.526414
15.091896
13.088584
13.211966
12.026429
12.488961
10.570884
11.220574
11.942983
11.049509
10.942817
10.939837
10.563731
11.268854
9.899735
11.616945
12.353659
10.310411
10.423660
10.980964
10.227561
10.932684
11.582971
11.588931
10.813475
12.104511
12.042522
12.016892
11.968613
11.391640
12.281537
12.074709
11.976957
11.979938
11.448860
11.645555
12.298822
11.866689
##ZVALUE=260
1.455545
1.562834
1.598597
1.439452
1.412630
1.911521
1.854897
1.970530
1.635551
2.374649
2.184510
4.203916
14.685988
59.148669
129.350424
304.337740
499.979854
827.189684
1016.001701
1016.001701
1016.001701
1016.001701
1016.001701
993.627906
751.920938
442.308784
284.157991
174.673796
102.452636
92.498660
110.914707
130.926967
151.092410
161.639452
154.152513
143.448710
117.114782
94.694495
66.991448
49.411654
33.748746
25.526881
20.494461
18.926859
17.578602
18.083453
16.100407
16.881824
17.498732
17.623901
17.843843
17.455816
17.076731
16.706586
15.596747
16.308427
16.322732
16.001463
15.488863
15.268922
14.235973
14.472604
14.720559
13.443828
14.421940
14.239550
14.704466
14.919639
14.336705
14.672875
16.142726
16.386509
15.399456
16.024709
15.934706
16.260743
15.356541
14.865994
13.640523
13.732910
13.288856
12.537837
12.031794
11.524558
11.000633
10.761619
10.835528
10.948777
10.401607
10.630488
10.173917
10.279417
10.670424
9.978414
10.405779
10.225773
10.063648
10.278821
10.000467
10.328889
9.866953
10.796785
10.796785
10.525584
11.386871
11.275411
10.425448
11.501908
10.928512
11.505485
10.611415
10.566711
10.930896
10.942817
10.476708
10.290742
##ZVALUE=265
1.306534
1.509786
1.401901
1.589656
1.518726
1.603961
1.640916
1.873970
2.007484
1.745820
1.953840
1.872778
2.496839
3.100634
7.240772
38.478971
96.404552
241.548419
421.978831
779.471993
1016.001701
1016.001701
1016.001701
1016.001701
1016.001701
1016.001701
968.945622
698.523521
391.754508
233.766437
117.491484
85.456967
92.367530
115.464926
144.262910
157.790780
168.884993
164.156556
141.877532
125.438571
93.497634
73.964596
50.793886
37.988424
27.126670
23.265481
21.244884
21.218657
20.706654
19.769669
20.314455
20.590425
19.225478
19.269586
19.194484
18.036962
19.211769
18.527508
17.228723
17.697811
16.367435
16.997457
16.026497
16.209483
16.254783
15.461445
15.731454
15.517473
14.655590
15.334487
16.469955
16.427636
16.497970
15.898943
16.661882
15.654564
14.663935
14.975667
14.333725
13.825893
12.190938
12.476444
11.418462
11.221766
11.568666
10.724664
10.463595
10.555983
9.829998
10.069609
10.074973
10.323524
9.786487
9.570718
9.204745
9.843707
10.135770
9.598732
9.668469
9.760857
10.349751
9.651780
10.515451
9.799600
10.112524
10.077953
10.097623
10.466576
10.119677
10.613799
9.606481
10.506511
10.304451
10.165572
10.628700
10.388494
##ZVALUE=270
1.357794
1.231432
1.300573
1.336932
1.257658
1.423955
1.459718
1.361966
1.399517
1.496673
1.534820
1.696944
1.948476
1.890659
1.903772
2.675653
3.681779
17.968416
53.855777
172.984600
331.271887
655.611753
964.064002
1016.001701
1016.001701
1016.001701
1016.001701
1016.001701
1016.001701
829.989910
560.287833
290.759802
166.629553
85.123777
75.743794
93.674660
116.427541
147.878528
162.823796
171.684623
167.497993
150.222778
127.253532
101.032853
78.155994
53.316951
40.926933
31.062961
26.126504
23.499727
23.326874
22.798777
21.805763
21.544695
21.361709
20.784736
20.212531
19.466877
19.124746
18.615723
18.618703
18.724799
17.846823
17.225742
16.692877
16.600490
16.088486
16.115904
16.354918
15.920997
16.478896
16.486645
16.219616
16.542673
15.846491
16.369820
15.678406
13.859868
13.126731
13.417602
13.119578
11.838675
11.564493
11.453629
11.017919
10.140538
10.297894
10.542870
10.118484
9.843707
9.434819
9.479523
9.315610
9.752512
9.193420
9.142756
9.850860
9.277463
9.480715
9.684563
9.260774
9.403825
9.181499
9.851456
9.241700
9.315610
10.029674
9.871721
9.702444
9.747744
9.863973
9.915829
9.869933
10.150671
10.003448
9.844899
##ZVALUE=275
1.096725
0.971556
1.168847
1.038909
1.149774
1.462698
1.448989
1.425743
1.296997
1.105666
1.611710
1.403689
1.397729
1.700521
1.518726
1.694560
2.194643
2.525449
2.636909
8.452535
32.089949
119.074583
252.229571
551.889539
854.803920
1016.001701
1016.001701
1016.001701
1016.001701
1016.001701
1016.001701
1016.001701
705.139637
434.638858
203.998685
112.480521
67.635775
70.991516
97.940564
118.148923
147.684813
163.452625
174.338818
167.756677
150.448680
131.247640
102.859735
81.093907
57.249665
44.091940
32.690763
27.069449
23.334622
22.440553
22.268891
21.662712
20.448565
20.262599
20.763874
19.654632
19.258857
18.815994
18.881559
17.962456
17.519593
17.197728
16.455650
16.899705
16.714931
16.397834
16.216636
15.991926
16.607642
16.901493
16.292930
15.475750
14.684796
15.113950
13.833642
12.751818
12.549758
12.032986
11.529922
11.173487
10.917783
10.787845
10.883808
10.694861
10.070801
9.784698
9.565949
9.523630
9.027719
9.091496
9.329915
9.065866
8.767843
9.206533
9.183884
8.804798
8.767843
9.208918
9.063482
9.474754
9.335876
9.606481
9.202957
10.058880
10.097623
9.473562
9.131432
9.167790
9.182692
9.829998
9.528995
9.402633
##ZVALUE=280
1.024604
1.115799
1.006722
1.309514
1.155734
1.024604
1.029968
1.123548
1.241565
1.084805
1.181960
1.276731
1.301765
1.570582
1.697540
1.550913
1.589656
1.918674
2.018809
2.125502
2.583861
4.037619
18.191934
85.090995
190.210938
432.892442
691.463947
983.268619
1016.001701
1016.001701
1016.001701
1016.001701
1016.001701
1016.001701
851.500034
558.213592
282.377005
150.425434
69.733858
55.938959
71.423650
92.079639
122.652650
142.918825
163.362622
167.256594
161.065459
150.365829
122.275949
100.104809
73.325634
55.978894
39.206743
30.637980
24.287701
21.086931
20.386577
19.443631
18.840432
18.909574
18.318892
18.271804
17.172694
17.083883
16.866922
16.608834
16.192794
15.930533
16.096830
16.210675
15.902519
16.236901
16.046762
16.042590
15.831590
15.547872
14.497638
13.931990
13.431907
13.523698
11.457801
11.768937
11.924505
11.027455
10.546446
11.136532
10.171533
9.601712
10.083914
9.941459
10.024905
9.362698
9.092689
9.232759
9.234548
8.736849
9.177923
8.341670
9.016991
9.106994
9.021759
9.179711
8.780956
9.023547
8.875728
9.090900
8.897781
9.103417
9.159446
9.160638
8.775592
9.222627
8.870959
9.001493
8.691549
8.054972
##ZVALUE=285
0.922680
0.931621
1.063943
1.026988
0.943542
0.937581
1.074672
1.084805
0.984669
1.176000
1.394749
1.211762
1.343489
1.313686
1.054406
1.267791
1.306534
1.797676
1.643896
1.988411
1.986623
2.121925
2.525449
3.070831
8.166432
44.182539
113.158822
234.114528
505.816936
805.472732
1016.001701
1016.001701
1016.001701
1016.001701
1016.001701
1016.001701
1016.001701
747.328997
390.803814
225.741863
98.219514
54.852962
46.994686
60.248971
88.088512
109.914541
136.031508
151.385665
158.929825
157.678723
142.803788
123.285651
93.514919
72.574615
49.194694
37.573576
24.197698
20.918846
17.928481
16.242862
15.765429
15.957952
15.356541
15.433431
15.433431
14.840961
14.694929
14.243722
14.939904
14.110804
15.332699
15.173554
15.645623
15.238523
14.446974
14.351606
13.835430
13.013482
12.384653
12.305975
11.566877
11.215806
10.839701
11.090636
10.291934
9.824634
10.282993
10.040998
9.624958
9.339452
8.845925
8.977652
8.739829
8.915663
8.258820
8.323789
8.340478
8.213520
8.717775
8.469820
8.364916
8.748770
8.950830
8.506775
8.610487
8.634925
8.509755
8.650422
8.472800
8.602738
8.640885
8.253455
8.707643
8.409619
8.536577
8.088946
##ZVALUE=290
0.841618
0.921488
0.857711
0.767708
0.754595
0.984669
1.109838
1.000762
0.928640
1.005530
1.263618
1.085997
1.061559
0.926852
1.184940
1.108646
1.095533
1.391768
1.372695
1.600981
1.525879
1.784563
1.757741
2.210736
2.301931
2.683997
3.657937
11.959672
62.593818
151.852965
370.634794
624.701977
1010.398865
1016.001701
1016.001701
1016.001701
1016.001701
1016.001701
1016.001701
963.137746
564.316511
334.060788
141.371489
68.088770
33.487678
37.291646
55.465698
74.707866
101.913810
122.657418
142.063498
149.194598
148.362517
136.460662
113.834739
92.828870
64.029694
47.108531
31.066537
23.401976
16.665459
13.973713
12.299418
13.211966
12.394786
12.232661
12.238622
12.124777
12.221932
12.560487
13.313890
13.151765
13.162494
13.232827
12.535453
12.337565
12.143850
11.818409
11.240840
11.088848
10.336637
10.522604
10.225773
9.919405
9.545684
9.644628
9.820461
9.270906
9.110570
8.923411
9.229779
8.955598
8.434653
8.677840
8.785725
8.314848
8.770823
8.409619
8.331537
8.382797
8.791685
8.776784
8.349419
8.480549
8.413792
8.486509
8.591413
8.364916
8.204579
8.782744
8.791685
8.269548
8.075833
7.742643
7.790923
8.244514
##ZVALUE=295
0.827909
0.780821
0.777841
0.862479
0.772476
0.829697
0.756979
0.948906
0.871420
1.028776
1.016855
0.971556
0.922680
0.928640
0.962615
1.146793
1.086593
1.115799
1.176596
1.334548
1.425743
1.464486
1.433492
1.501441
1.665950
2.091527
2.312660
2.492666
2.978444
5.574822
30.618906
87.734461
246.935487
471.285582
890.231729
1016.001701
1016.001701
1016.001701
1016.001701
1016.001701
1016.001701
1016.001701
733.132958
451.793671
203.398466
96.852779
35.472512
25.012493
34.366846
48.414469
71.713924
91.383457
117.197633
132.212639
141.714811
141.080618
124.900937
109.104514
83.202720
65.195560
43.216944
30.573606
19.462705
14.185905
11.466742
10.462999
10.059476
9.669662
10.661483
10.718703
10.916591
11.057854
11.081696
11.149645
11.526942
10.691881
10.507703
10.408759
10.170937
9.640455
9.501576
9.285808
9.292960
9.210706
8.694530
8.947849
9.189844
8.950830
8.630753
8.762479
8.485913
8.924603
8.333921
8.583665
8.210540
8.266568
8.481741
8.182526
8.683801
8.394718
8.308887
8.169413
8.542538
8.480549
8.566976
8.263588
8.392930
8.365512
8.372664
8.611679
8.039474
7.874966
8.203983
7.945895
8.442998
7.925630
##ZVALUE=300
0.650883
0.669956
0.949502
0.753999
0.926852
0.932813
0.737906
0.661612
0.961423
0.897646
0.861883
0.899434
0.950694
0.988841
0.869632
1.007915
0.869632
1.094937
1.147985
1.165867
1.339912
1.189709
1.315475
1.480579
1.373887
1.748800
1.762509
1.987815
2.006888
2.232790
2.745986
3.150702
12.597442
48.958659
169.501901
331.295729
683.190823
999.465585
1016.001701
1016.001701
1016.001701
1016.001701
1016.001701
1016.001701
983.109474
554.647446
329.583883
148.628950
65.876842
28.199553
20.516515
27.597547
44.235587
60.843825
86.702704
105.098486
124.110579
131.159425
130.511522
121.986866
101.732612
84.309578
59.918761
44.312477
26.974678
19.082427
12.718439
10.567904
9.485483
9.275675
9.630919
9.569526
9.620786
9.590983
9.668469
9.889603
9.384751
9.695888
8.908510
8.807778
8.982420
9.020567
8.639693
8.523464
8.596778
8.625984
8.666515
8.495450
7.985830
8.286834
8.202791
8.143783
8.010864
8.099675
7.928610
8.089542
8.067489
8.152723
7.981658
8.076429
8.470416
8.266568
8.124709
8.219481
8.361936
8.487701
8.469820
8.722544
8.493662
8.048415
8.304715
8.006692
8.376837
8.405447
7.945895
7.623434
##ZVALUE=305
0.811815
0.696778
0.658631
0.782609
0.953674
0.829697
0.875592
0.690818
0.579953
0.761747
0.733733
0.831485
0.870824
1.013875
1.038909
0.933409
0.956655
0.912547
0.798702
0.971556
1.078844
1.040697
1.213551
1.330972
1.289845
1.651645
1.602769
1.484752
1.769662
1.436472
1.826882
2.034903
2.558827
3.125668
6.617904
26.275516
107.637644
240.426660
543.528795
866.904855
1016.001701
1016.001701
1016.001701
1016.001701
1016.001701
1016.001701
1016.001701
755.887032
464.617610
252.278447
92.610717
38.227439
16.481876
18.348694
28.218627
39.552450
61.969757
78.399777
101.525784
114.826560
125.176907
125.026703
114.667416
99.054575
76.949000
58.266521
38.848519
27.124882
16.675591
12.594461
10.108948
9.332895
9.194613
8.899570
8.922815
9.038448
8.610487
8.999705
8.545518
8.574724
8.495450
8.876920
8.442998
8.721948
8.510947
8.748770
8.410811
8.638501
8.632541
8.340478
8.774996
8.195639
8.148551
8.499622
8.505583
8.361936
8.003712
8.652806
8.397698
8.175969
8.043647
8.405447
8.175969
8.072853
8.527637
8.394718
8.370876
8.548498
8.646846
8.381605
8.624792
8.419752
8.394718
8.149743
7.777810
7.835627
##ZVALUE=310
0.682473
0.668764
0.761747
0.762939
0.689626
0.641942
0.812411
0.764728
0.859499
0.763535
0.903606
0.705719
0.546575
0.790954
0.816584
0.781417
0.839829
0.738502
0.795722
0.879765
0.939965
0.857711
1.071692
1.150966
1.146793
1.146793
1.323819
1.468658
1.535416
1.477599
1.528859
1.791716
1.845956
2.264977
2.318621
2.575517
3.573895
11.262894
60.953498
149.221420
309.161544
660.672784
988.482833
1016.001701
1016.001701
1016.001701
1016.001701
1016.001701
1016.001701
1012.566686
610.172749
358.344913
147.020817
65.055490
19.392967
13.136864
16.802549
22.645593
36.362410
50.624609
72.044730
90.075731
107.913613
116.641521
117.590427
112.142563
94.018579
78.735948
55.111647
40.688515
27.073622
18.842816
12.694597
10.371804
9.281635
9.056926
8.519888
8.203983
8.353591
8.175969
8.235574
7.948875
8.318424
8.041859
8.114576
8.485913
8.156896
8.680820
7.887483
8.388758
8.264780
8.466840
8.040667
8.382797
8.033514
8.003712
8.307695
8.111596
8.151531
8.386970
8.389950
8.495450
8.407831
8.214712
8.466840
8.308887
8.640885
8.293986
8.182526
8.458495
8.440614
8.460879
8.360744
7.831454
8.043647
7.626414
##ZVALUE=315
0.525713
0.545979
0.649691
0.697970
0.694990
0.573993
0.678897
0.528693
0.783801
0.587702
0.585914
0.671744
0.695586
0.535846
0.625849
0.893474
0.822544
0.942945
0.955462
0.890493
0.801682
0.894666
0.816584
0.940561
0.999570
1.084805
1.002550
1.318455
1.314878
1.110435
1.135468
1.343489
1.484752
1.732707
1.727939
1.869798
2.048612
2.318621
2.980828
5.051494
29.763579
84.990859
247.472525
458.192825
882.633924
1016.001701
1016.001701
1016.001701
1016.001701
1016.001701
1016.001701
1016.001701
732.813478
451.003909
206.802487
93.741417
26.599765
12.963414
11.661649
14.565587
22.186637
31.982660
50.018430
64.661503
86.080432
99.084973
109.502673
111.724734
101.815462
89.886785
70.412755
55.066943
37.744641
27.893782
17.689466
13.235807
10.202527
8.633733
8.332729
8.246899
7.909536
7.847548
7.804632
7.825494
8.196831
8.189678
8.365512
8.573532
8.332729
8.194447
8.321404
8.246899
8.439422
8.075833
8.303523
8.268952
8.357763
8.278489
8.402467
8.626580
8.203983
8.639693
8.428693
8.145571
8.296967
8.952618
8.711815
8.390546
8.445978
8.245707
8.689761
7.909536
8.130670
8.373857
7.646680
7.619858
##ZVALUE=320
0.553727
0.453591
0.571609
0.631809
0.550747
0.706911
0.558496
0.617504
0.749826
0.642538
0.717640
0.702739
0.457764
0.577569
0.552535
0.864863
0.651479
0.653863
0.784993
0.773668
0.694990
0.819564
0.943542
0.792742
0.834465
1.015663
0.892878
1.120567
1.094937
1.041889
1.210570
1.230836
1.404881
1.355410
1.615882
1.499653
1.636744
1.774430
2.082586
2.249479
2.525449
3.251433
9.970665
55.746436
142.682791
376.656055
628.999472
1005.042791
1016.001701
1016.001701
1016.001701
1016.001701
1016.001701
1016.001701
934.945941
597.355962
269.762874
135.911703
46.664476
18.853545
10.488629
10.562539
13.837814
18.517971
30.284524
41.947961
61.911941
77.319741
95.559955
102.909803
104.325414
99.919438
85.856915
71.231723
52.905679
39.915442
25.635958
17.649531
12.047887
9.641647
8.405447
8.357763
8.037686
7.896423
7.970929
7.860661
8.338690
8.607507
8.029938
8.278489
8.514524
8.330941
8.274913
8.311868
8.385777
8.156896
8.576512
8.429885
7.950664
8.396506
8.419752
8.484721
8.343458
8.845925
8.459687
8.401871
8.242726
8.854866
8.425713
8.437634
8.225441
8.338690
8.031726
8.006692
8.287430
8.105636
##ZVALUE=325
0.587702
0.574589
0.431538
0.449419
0.642538
0.518560
0.754595
0.530481
0.713468
0.577569
0.585914
0.640750
0.519753
0.700951
0.575781
0.640750
0.806451
0.635982
0.759959
0.887513
0.775456
0.617504
0.665784
0.774860
0.893474
0.827909
0.778437
1.075864
1.024604
1.097918
1.028776
1.215935
1.081824
1.201630
1.545548
1.315475
1.491904
1.286864
1.514554
1.853704
1.929998
2.077818
2.358556
2.788901
6.881952
27.560592
106.826425
230.513811
517.279506
826.166868
1016.001701
1016.001701
1016.001701
1016.001701
1016.001701
1016.001701
1008.827686
723.740458
376.857519
202.798843
71.529746
27.203560
10.599494
9.108782
10.088682
12.726784
18.903613
26.471615
44.180751
59.116483
78.170896
88.777542
98.596811
100.707412
93.538761
81.936717
65.046549
50.286651
33.780932
24.248958
15.382767
11.686683
9.576678
8.749962
8.339882
8.187890
8.231997
8.081794
7.919669
7.869601
8.123517
8.279681
8.141994
8.355975
8.518696
8.251667
8.622408
8.629560
8.396506
8.433461
8.387566
8.724928
8.524656
8.677840
8.635521
8.780956
8.484721
8.545518
8.742809
8.669496
8.450747
8.445978
8.171797
8.377433
8.165836
8.040667
##ZVALUE=330
0.559688
0.534654
0.516772
0.473857
0.400543
0.701547
0.545979
0.543594
0.497699
0.548959
0.481606
0.515580
0.623465
0.759959
0.730753
0.587702
0.802875
0.577569
0.838637
0.648499
0.816584
0.856519
0.732541
0.781417
0.829697
0.817776
0.884533
0.990629
0.797510
0.862479
0.953674
1.235604
1.049638
1.071692
0.994802
1.136661
1.325607
1.365542
1.449585
1.519918
1.428723
1.577735
1.566410
2.111793
2.148747
2.531409
3.335476
15.385747
52.343607
137.540698
352.067947
611.487627
1006.292701
1016.001701
1016.001701
1016.001701
1016.001701
1016.001701
1016.001701
919.230580
501.651764
282.455683
109.824538
45.018792
13.438463
8.669496
8.517504
8.933544
12.456775
17.803907
27.202964
39.340854
57.416558
70.572495
84.757805
91.170669
92.306733
87.652802
74.234605
61.140656
43.731928
33.599734
22.663474
16.889572
11.865497
10.177493
8.534789
8.154511
8.048415
8.055568
8.074641
7.904768
8.036494
7.919669
7.949471
8.282661
8.197427
8.256435
8.037686
8.357763
8.204579
8.581877
8.483529
8.520484
8.682609
8.759499
8.813739
8.985996
8.702874
8.585453
8.364916
8.342862
8.447766
8.308887
8.133650
8.038878
##ZVALUE=335
0.542998
0.551939
0.542998
0.280738
0.536442
0.395775
0.504851
0.541806
0.530481
0.691414
0.574589
0.521541
0.514984
0.501871
0.556707
0.628829
0.598431
0.719428
0.636578
0.540614
0.718832
0.739694
0.779629
0.737906
0.770688
0.597835
0.786781
0.757575
0.772476
0.793934
0.894666
0.929832
0.909567
0.895858
1.028776
1.095533
1.096725
0.994802
1.053810
1.185536
1.362562
1.310706
1.443624
1.634955
1.744628
1.958609
2.218485
2.290606
2.756715
5.614758
32.891631
91.219544
260.253549
466.479063
861.672759
1016.001701
1016.001701
1016.001701
1016.001701
1016.001701
1016.001701
1016.001701
625.132918
378.146768
160.912871
70.212483
19.663572
10.059476
8.644462
8.489490
9.823442
11.997819
17.242432
24.477839
38.143992
49.154758
67.613721
78.578591
86.166859
86.978674
80.776811
71.840882
58.075786
46.191812
32.455921
24.353862
16.497970
12.995601
10.169744
8.656979
8.365512
7.882714
7.925630
7.945895
8.087754
7.995963
8.224845
8.142591
8.320808
8.297563
8.507967
8.469820
8.361936
8.569956
8.478761
8.912683
8.662939
8.729696
8.634925
8.540750
8.578897
8.204579
8.529425
8.256435
8.210540
8.022785
##ZVALUE=340
0.494719
0.474453
0.495911
0.757575
0.365973
0.536442
0.446439
0.534654
0.583529
0.492930
0.434518
0.552535
0.426769
0.605583
0.517964
0.558496
0.508428
0.577569
0.588894
0.797510
0.617504
0.719428
0.472665
0.775456
0.705719
0.757575
0.956655
0.707507
0.696778
0.715852
0.986457
0.893474
0.800490
0.777841
0.837445
0.983477
0.952482
0.821948
1.124740
1.130700
0.924468
1.248717
1.198649
1.385808
1.467466
1.629591
1.697540
1.628995
1.956820
2.098680
2.411604
3.353953
16.743541
56.163669
182.198882
361.566544
744.140744
1016.001701
1016.001701
1016.001701
1016.001701
1016.001701
1016.001701
1016.001701
785.105824
489.431620
217.097998
101.045966
26.678443
11.101961
8.422732
8.167624
8.231997
9.025931
11.593699
15.427470
25.261641
35.255551
50.205588
61.870813
73.820949
80.399513
80.900788
77.820420
68.189502
57.050586
43.562651
33.268929
22.936463
17.346740
12.021661
10.016561
8.622408
8.411407
8.125901
8.130670
8.387566
8.144975
8.287430
8.292794
8.334517
8.420944
8.284450
8.544922
8.538961
8.728504
8.707643
8.783937
8.702874
8.433461
8.805990
8.571744
8.567572
8.558631
8.258820
7.887483
##ZVALUE=345
0.443459
0.500679
0.384450
0.516772
0.522733
0.528693
0.450611
0.639558
0.638962
0.554919
0.528693
0.388622
0.533462
0.603795
0.450611
0.479817
0.599623
0.591874
0.640750
0.618696
0.742674
0.598431
0.616908
0.683665
0.546575
0.763535
0.786781
0.701547
0.741482
0.739694
0.689626
0.666976
0.710487
0.766516
0.736713
0.902414
0.930429
0.818968
0.913739
0.987649
0.901818
1.072884
1.268983
1.267791
1.369715
1.316667
1.374483
1.543760
1.522899
1.577735
1.705885
1.992583
2.072453
2.532601
7.169843
28.498769
115.166903
250.402689
545.215011
837.846994
1016.001701
1016.001701
1016.001701
1016.001701
1016.001701
1016.001701
949.162841
623.532534
282.287598
138.507485
46.319962
17.860532
8.837581
8.337498
8.247495
7.799864
8.433461
10.248423
15.444756
21.823645
33.519864
43.899417
56.658983
65.626502
73.981881
75.386763
72.079897
65.818429
53.753853
44.148564
32.711625
23.633838
16.642809
12.870431
10.154843
9.434819
8.515716
8.249879
8.096695
7.977486
8.209944
8.564591
8.616447
8.621812
8.478761
8.608699
9.110570
8.889437
8.933544
8.804798
8.553863
8.589625
8.923411
8.372664
8.414984
8.249879
##ZVALUE=350
0.443459
0.384450
0.370741
0.426769
0.582933
0.431538
0.481606
0.559688
0.553727
0.570416
0.537634
0.446439
0.524521
0.541806
0.455976
0.678897
0.528693
0.604987
0.480413
0.527501
0.507832
0.607967
0.672936
0.487566
0.507832
0.665784
0.637770
0.758767
0.757575
0.782609
0.795722
0.791550
0.861883
0.858903
0.855923
0.868440
0.672936
0.902414
0.847578
0.981688
0.913739
1.076460
1.106858
1.211762
1.053810
1.088977
1.243949
1.282692
1.359582
1.505613
1.426935
1.661777
1.690984
1.867414
1.821518
2.452731
3.764629
14.024973
69.497824
161.028504
393.159986
656.217933
1016.001701
1016.001701
1016.001701
1016.001701
1016.001701
1016.001701
999.650955
713.631511
376.485586
198.971629
65.233707
24.321675
9.775758
7.981658
7.385612
6.976724
7.079840
7.839799
10.029674
13.722777
20.437837
27.554631
39.298534
48.656464
59.896708
66.101551
69.373846
67.820549
60.575604
52.306652
40.315986
31.925440
22.603869
17.515421
12.955666
10.498762
9.432435
8.791685
8.263588
8.417964
8.561611
8.539557
8.782744
8.638501
8.795857
8.612871
8.981824
9.118915
8.782744
8.836985
8.508563
8.167624
8.447766
8.325577
##ZVALUE=355
0.562668
0.599623
0.440478
0.304580
0.393987
0.484586
0.353456
0.473857
0.600815
0.569820
0.510812
0.715852
0.564456
0.702739
0.600815
0.616908
0.643730
0.623465
0.642538
0.653863
0.522733
0.746846
0.678897
0.689626
0.624657
0.914931
0.786781
0.685453
0.801682
0.758767
0.594854
0.668764
0.656843
0.738502
0.717640
0.882745
0.833869
0.661612
0.824928
0.835657
0.925660
1.003742
1.027584
0.835657
1.075864
1.080632
1.172423
1.265407
1.310706
1.162887
1.288652
1.323819
1.543760
1.506805
1.819730
1.973510
2.065897
2.426505
2.684593
6.107688
39.068460
106.780529
288.205743
512.674451
932.879448
1016.001701
1016.001701
1016.001701
1016.001701
1016.001701
1016.001701
867.561698
458.342433
250.900984
100.681782
39.656758
11.171699
7.589459
7.082820
6.787777
6.432533
6.547570
7.344484
8.507967
12.139678
17.401576
25.468469
33.139586
45.404434
53.849816
60.555935
63.850880
62.219501
57.673454
48.295856
40.748715
31.315684
24.619699
18.086433
14.377832
11.095405
9.995699
8.742809
8.882880
8.767843
8.905530
8.772612
8.840561
8.941889
8.843541
9.046793
8.673668
8.252859
8.436441
8.250475
8.019805
##ZVALUE=360
0.602603
0.558496
0.475645
0.634789
0.478625
0.539422
0.380874
0.532866
0.577569
0.596642
0.496507
0.370741
0.527501
0.708699
0.493526
0.527501
0.664592
0.556707
0.653863
0.542998
0.479817
0.689626
0.654459
0.548959
0.555515
0.656843
0.734925
0.567436
0.665784
0.800490
0.755787
0.699759
0.774860
0.695586
0.813603
0.834465
0.632405
0.948906
0.938773
0.778437
0.943542
0.988841
0.860691
1.004934
1.132488
0.997782
1.041889
0.969768
1.112819
1.176596
1.170635
1.199841
1.271963
1.403689
1.484752
1.549721
1.822710
1.818538
2.100468
2.251863
2.438426
3.601909
18.092990
57.209730
183.040500
356.333852
708.676577
995.783806
1016.001701
1016.001701
1016.001701
1016.001701
1016.001701
985.211730
597.333908
355.656743
148.217678
62.818527
16.409755
8.122921
6.662607
6.475449
6.452799
6.088614
6.270409
6.465912
7.979870
10.111928
14.915466
20.159483
29.064417
37.413836
47.863722
53.480864
57.989955
58.232546
54.649711
49.033761
40.253997
33.113956
24.370551
19.723773
14.323592
11.796951
9.989738
9.056926
9.172559
8.847713
9.038448
8.672476
8.713603
8.407831
8.336902
8.678436
8.211732
7.975698
##ZVALUE=365
0.465512
0.486970
0.458956
0.605583
0.548959
0.414848
0.508428
0.432730
0.573993
0.575781
0.613928
0.380874
0.442863
0.543594
0.509620
0.476837
0.655651
0.626445
0.542998
0.718832
0.645518
0.568628
0.440478
0.555515
0.637770
0.603795
0.658631
0.755787
0.830889
0.895858
0.740886
0.735521
0.746846
0.861883
0.722408
0.741482
0.760555
0.763535
0.819564
0.755787
0.771880
1.027584
0.913739
1.012683
0.891685
0.996590
1.009703
0.980496
1.066923
1.122952
1.163483
1.251698
1.152754
1.232624
1.422763
1.427531
1.373887
1.428723
1.789927
1.779795
1.903772
2.183914
2.450943
2.936721
7.389784
28.187633
115.186572
248.847008
570.591688
894.865990
1016.001701
1016.001701
1016.001701
1016.001701
1016.001701
1016.001701
711.637735
425.645709
183.447003
86.133480
26.500821
10.604858
6.799698
6.295443
6.130934
5.988479
5.664825
5.761981
6.207824
6.806850
9.183884
12.590885
18.937588
24.574995
33.492446
40.453672
48.441887
52.887797
54.985881
52.409768
47.189593
41.544437
32.904744
26.612878
19.811988
15.464425
12.176633
10.111928
9.213686
8.857846
8.389950
8.411407
8.192658
8.028746
7.790923
7.726550
##ZVALUE=370
0.592470
0.492930
0.592470
0.506639
0.322461
0.442863
0.598431
0.532866
0.628829
0.496507
0.462532
0.442863
0.517964
0.531673
0.437498
0.446439
0.493526
0.410676
0.418425
0.455976
0.671744
0.556707
0.570416
0.663996
0.657439
0.677705
0.596642
0.687838
0.572801
0.631809
0.661612
0.723600
0.723600
0.702739
0.791550
0.765920
0.729561
0.668764
0.764728
0.833869
0.788569
0.693798
0.742674
0.890493
1.002550
0.897646
0.777841
0.957847
0.856519
0.954866
0.937581
0.997782
0.962615
1.131892
1.102686
1.102686
1.230836
1.278520
1.363754
1.517534
1.547933
1.696944
2.013445
2.026558
2.177954
2.215505
4.112720
14.833808
79.484582
195.908546
458.397865
735.290647
1016.001701
1016.001701
1016.001701
1016.001701
1016.001701
1016.001701
834.298730
542.716980
263.051987
130.631924
43.417811
16.978979
6.815791
5.914569
5.643964
5.863905
5.644560
5.565882
5.673766
5.857944
6.904602
8.469820
11.779666
15.613437
22.601485
28.552413
37.586689
43.546557
49.463511
51.365495
50.393939
46.980977
39.562583
33.814907
25.837421
19.658804
16.124845
12.503862
10.904670
9.370446
8.424520
7.798672
7.706881
7.424951
##ZVALUE=375
0.426769
0.441670
0.338554
0.361800
0.253916
0.378489
0.472665
0.394583
0.387430
0.369549
0.371933
0.436902
0.541806
0.397563
0.464916
0.441670
0.581741
0.544786
0.567436
0.479817
0.480413
0.560880
0.596642
0.487566
0.572801
0.533462
0.551939
0.717640
0.534654
0.543594
0.525713
0.679493
0.596642
0.645518
0.591874
0.726581
0.673532
0.743866
0.719428
0.674725
0.586510
0.766516
0.761747
0.891685
0.564456
0.698566
0.772476
0.792742
0.792742
0.719428
0.758767
0.978708
0.860691
0.918508
1.041889
0.897646
1.098514
1.068711
1.107454
1.130700
1.304746
1.360774
1.642704
1.439452
1.660585
1.827478
1.992583
2.439618
3.073812
8.294582
46.443939
119.403601
309.324861
551.654696
963.485837
1016.001701
1016.001701
1016.001701
1016.001701
1016.001701
992.475748
709.581971
378.147960
212.853551
80.542564
32.239556
9.183884
6.325841
5.723834
5.496740
5.707741
5.652905
5.544424
5.648732
5.932450
6.728768
7.761717
9.759665
13.740659
18.260479
25.782585
31.794906
39.412975
44.396520
48.753619
48.597455
45.587420
40.504932
35.066605
27.785897
23.122430
17.245412
13.779998
10.650754
9.225607
7.941723
##ZVALUE=380
0.373721
0.529885
0.420809
0.476837
0.384450
0.346899
0.431538
0.491738
0.559688
0.626445
0.483990
0.337958
0.453591
0.542998
0.569820
0.470877
0.351667
0.602603
0.425577
0.358820
0.431538
0.526905
0.400543
0.534654
0.618696
0.572801
0.613928
0.736713
0.625849
0.458956
0.584722
0.712872
0.644922
0.601411
0.705719
0.677705
0.637770
0.875592
0.575781
0.574589
0.670552
0.776649
0.565648
0.730753
0.742674
0.860691
0.914931
0.764728
0.922680
0.765920
0.898838
0.666976
0.766516
0.671744
0.769496
0.785589
0.990629
1.033545
1.038909
0.964999
1.046658
0.980496
1.199841
1.124740
1.289845
1.547933
1.498461
1.584888
2.103448
2.297759
2.788901
4.354715
24.654865
77.344775
234.405398
433.922410
822.698474
1016.001701
1016.001701
1016.001701
1016.001701
1016.001701
1016.001701
905.808806
521.513820
303.104520
122.867823
53.865910
14.216900
6.903410
5.823970
5.811453
5.772710
5.674958
5.735755
5.908608
5.833507
5.939603
6.498694
7.195473
9.229779
11.931658
17.320514
22.107959
30.191541
36.180615
42.408705
46.195984
46.497583
43.891668
40.968657
34.475923
29.168725
22.154450
17.838478
13.178587
##ZVALUE=385
0.377893
0.447631
0.328422
0.400543
0.469685
0.321865
0.372529
0.315905
0.346899
0.392795
0.418425
0.259876
0.336766
0.414848
0.400543
0.437498
0.475645
0.361800
0.462532
0.472665
0.439882
0.387430
0.672936
0.528693
0.512600
0.621676
0.634789
0.764728
0.580549
0.750422
0.532866
0.613928
0.791550
0.743866
0.657439
0.820756
0.745654
0.685453
0.787973
0.864863
0.798702
0.622869
0.806451
0.742674
0.682473
0.900626
0.880957
0.859499
0.908971
0.815988
0.902414
0.858903
0.833869
0.744462
1.004934
0.880957
0.928640
0.902414
0.816584
1.021624
0.971556
1.030564
1.152754
1.151562
1.178980
1.367927
1.304746
1.480579
1.630783
1.860857
2.077818
2.192855
2.515912
2.815723
10.947585
40.572882
158.548951
334.000587
688.264966
985.949636
1016.001701
1016.001701
1016.001701
1016.001701
1016.001701
1016.001701
691.014528
437.809825
196.970701
94.877481
29.319525
10.926723
5.932450
5.791783
5.796552
5.957484
5.672574
5.818605
5.545616
5.595684
5.575418
5.847812
6.389618
8.014441
10.405779
13.917685
19.702911
26.511550
31.300783
37.181973
40.422678
42.871833
42.295456
38.724542
34.472942
27.964711
##ZVALUE=390
0.310540
0.338554
0.311732
0.328422
0.506639
0.288486
0.236630
0.608563
0.415444
0.406504
0.436902
0.326633
0.258684
0.339746
0.453591
0.410676
0.507832
0.413656
0.409484
0.546575
0.645518
0.375509
0.408888
0.517964
0.524521
0.562668
0.638962
0.545979
0.677705
0.623465
0.792742
0.719428
0.778437
0.810623
0.888705
0.953674
0.821948
0.898838
0.935793
0.863671
0.903606
0.825524
0.641942
0.870824
0.978708
0.870824
0.795722
0.887513
0.746846
0.784993
0.741482
0.941753
0.776649
0.975728
0.786781
0.812411
1.021624
0.946522
0.851750
0.820756
0.889897
0.892878
0.934601
1.049638
1.107454
1.282692
1.201630
1.503825
1.524687
1.769662
1.742840
2.045631
2.057552
2.050996
2.263784
2.636909
5.392432
23.216605
107.218623
236.261487
526.659489
837.569833
1016.001701
1016.001701
1016.001701
1016.001701
1016.001701
1016.001701
928.063393
613.433719
289.503932
144.792795
47.638416
17.545819
6.928444
5.924702
5.693436
6.001592
5.628467
5.608797
5.689859
5.625486
5.854964
5.673766
5.668998
6.185770
7.597804
9.787679
12.025833
16.554594
20.840764
27.012825
31.873584
37.186742
39.441586
39.832592
##ZVALUE=395
0.329614
0.343919
0.299811
0.473857
0.326633
0.415444
0.354648
0.355840
0.241995
0.378489
0.304580
0.395775
0.297427
0.341535
0.311732
0.422597
0.392795
0.184774
0.379682
0.415444
0.487566
0.507832
0.515580
0.462532
0.489950
0.628829
0.349879
0.757575
0.761747
0.697970
0.696778
0.643730
0.811815
0.868440
0.872612
0.898838
0.898838
0.847578
0.726581
0.844598
0.888705
0.857711
0.854731
0.778437
0.858903
0.949502
0.978708
0.940561
0.752807
1.090765
0.877976
0.982881
0.903606
0.917912
0.979900
0.831485
0.989437
0.876784
1.017451
1.071692
0.856519
0.933409
0.903606
0.924468
1.105666
1.132488
1.203418
1.423955
1.533628
1.650453
1.575947
1.696944
1.793504
1.882911
1.866817
1.918674
2.121925
2.219677
3.247857
10.683537
62.139630
154.869556
370.602608
629.023910
1012.928486
1016.001701
1016.001701
1016.001701
1016.001701
1016.001701
1016.001701
786.091685
416.175723
222.568512
80.923438
32.884479
9.579659
5.910993
5.553961
5.731583
5.594492
5.760789
5.534887
5.677938
5.789995
5.753636
5.613565
5.504489
6.053448
6.772876
7.776618
10.489821
13.281703
19.114614
23.855567
30.210614
##ZVALUE=400
0.558496
0.549555
0.370741
0.388622
0.330806
0.313520
0.326633
0.440478
0.372529
0.206828
0.339746
0.369549
0.363588
0.267625
0.253916
0.435710
0.390410
0.269413
0.335574
0.424981
0.398755
0.510812
0.482798
0.439882
0.546575
0.595450
0.520945
0.620484
0.668764
0.611544
0.661612
0.706911
0.814795
0.809431
0.830889
0.987649
0.883937
0.792742
0.721812
0.759959
0.831485
0.903606
0.927448
0.942945
1.081824
0.907779
0.912547
0.952482
0.811815
0.813603
0.915527
0.935793
0.979900
0.897646
0.712872
0.853539
0.920892
0.831485
0.938773
1.023412
0.944734
1.081824
0.848770
0.948906
1.132488
1.103878
1.099706
1.189709
1.324415
1.555681
1.504421
1.486540
1.531839
1.512766
1.411438
1.639724
1.689792
1.808405
2.103448
2.056956
2.705455
5.210638
30.428767
87.604523
257.768631
476.070642
887.541771
1016.001701
1016.001701
1016.001701
1016.001701
1016.001701
1016.001701
893.066525
500.883460
293.938518
125.143528
55.806637
15.578866
7.119775
5.665421
5.313754
5.659461
5.522966
5.435944
5.576611
5.893707
5.399585
5.320907
5.053878
5.156994
5.312562
5.783439
7.061958
8.939505
12.070537
##END
