##TITLE=13-1
##FORMAT=SPECTACLE-ASCII V-1.2
##DATA TYPE=ULTRAVIOLET SPECTRUM
##SECOND TYPE=ULTRAVIOLET SPECTRUM
##DATE=04/04/18
##TIME=11:19:36
##SPECTROMETER/DATA SYSTEM=SPECTACLE
##XUNITS=NM EM
##YUNITS=ENERGY
##YFACTOR=1
##FIRSTX=220
##LASTX=450
##NPOINTS=116
##3DDATA=Equidistant
##ZUNITS=NM EX
##FIRSTZ=210
##LASTZ=400
##ZPOINTS=39
##XYDATA=(Y..Y)
##ZVALUE=210
18.668771
16.909838
13.835430
12.816787
11.369586
10.345578
10.392666
7.640719
7.551908
6.653666
3.714561
3.320575
3.422499
2.606511
2.440810
3.063679
3.052950
3.665686
2.825856
3.664494
3.438592
4.281998
4.154444
5.138516
5.186796
6.168485
7.282495
7.513762
8.640885
8.335710
9.392500
10.086894
8.125901
9.661913
10.526776
10.176897
9.379983
9.245872
10.062456
9.987950
9.915829
9.368658
10.299683
9.875894
9.528995
10.025501
9.885430
9.025931
9.199977
10.004640
9.670854
9.608865
10.058880
9.310842
9.855628
8.078814
9.648800
8.808970
9.601712
9.082556
7.951856
9.113550
9.228587
9.068847
9.297729
8.584857
8.812547
8.754730
10.441542
13.107657
12.844801
15.503764
17.748475
21.009445
22.645593
22.399426
22.809505
22.639632
23.498535
21.101832
20.266771
19.345880
16.705990
14.097691
12.805462
10.993481
9.620786
8.217692
9.089708
10.727644
11.896491
17.176867
21.236539
27.176738
30.655861
40.902495
43.950677
51.359534
59.176683
61.518550
64.252615
67.448616
70.234537
62.167645
64.295530
58.039427
53.834915
48.744678
46.424866
37.048459
30.155778
25.272965
20.760894
18.394589
15.008450
14.291406
##ZVALUE=215
48.511624
50.298572
41.539669
31.467676
25.082827
18.795729
16.445518
14.637709
15.687943
13.458729
11.100769
9.346604
7.918477
5.760789
4.193783
4.141927
3.273487
3.270507
3.203750
3.981590
3.540516
3.901720
5.517602
5.041957
5.790591
6.685853
6.983876
7.555485
8.302927
9.117723
9.270906
10.310411
10.325909
10.183454
11.469722
10.530949
10.499954
10.267496
11.844635
10.802746
9.907484
11.431575
10.235906
11.289716
10.497570
9.383559
11.555552
10.985732
10.840893
10.098815
10.117888
11.343956
10.058880
10.352731
10.193586
9.155869
10.737777
9.788871
8.770823
9.117723
9.507537
9.317994
8.984804
9.781718
10.039806
9.535551
9.147525
10.267496
10.460615
12.115836
13.693571
14.544725
17.861724
20.028949
18.136501
20.208955
21.077991
19.366741
20.018816
17.673969
17.417669
16.024709
13.996959
13.494492
10.674596
9.864569
8.850694
8.270741
7.099509
7.173419
7.429719
6.924868
7.493496
8.656979
12.057424
13.577938
21.446943
28.192997
36.157966
42.205453
53.515434
61.660409
74.379444
79.655647
90.419650
91.049671
97.571611
97.007751
98.765492
91.142654
86.537004
79.617500
72.076917
62.569976
49.902797
40.239692
##ZVALUE=220
108.253956
109.990835
106.361508
97.935796
81.802607
61.651468
45.054555
31.935573
26.788712
22.878647
22.518635
21.835566
19.694567
17.575622
14.244914
11.282563
7.796884
5.039573
4.056692
3.809929
3.717542
4.515648
4.289746
5.332828
5.338788
6.099939
7.480979
7.726550
7.762909
10.073781
8.592606
8.680820
8.969903
10.254979
10.009408
9.862781
10.576844
10.043979
11.020899
11.606812
11.294484
11.963844
11.720657
11.983514
12.002587
11.225939
12.724996
12.875795
12.400746
11.422634
12.847781
12.209415
13.066530
11.154413
12.939572
12.059808
11.800528
11.351705
11.950731
10.178685
10.851622
10.516644
10.534525
10.287762
9.976625
9.966493
10.923743
10.978580
11.837482
13.391972
14.954805
14.247894
16.574860
17.264485
18.921494
19.954443
20.230412
18.218756
18.660426
16.607642
16.857982
15.400648
14.048815
12.194514
9.915829
9.711981
9.886622
8.555651
8.258820
6.984472
7.674694
7.591844
6.922483
7.206798
7.177591
7.893443
7.872581
8.645654
9.690523
12.715459
16.883612
24.928451
34.546852
43.525696
60.864687
73.945522
93.159676
109.746456
121.373534
131.207705
143.427849
149.940848
147.094727
147.770643
142.678618
136.766434
##ZVALUE=225
143.204927
142.563581
175.277591
191.865563
191.024542
170.115829
143.535733
107.008815
78.869462
56.360960
46.233535
37.053823
37.349463
38.418770
35.631657
30.504465
26.521683
19.576550
15.925765
10.216832
6.944537
5.318522
5.456805
4.953742
5.435944
6.005764
5.740523
7.136464
6.381869
7.095933
7.892847
7.796884
8.877516
8.715987
9.024739
9.815693
9.477735
11.568666
12.704730
12.581944
12.942553
12.859702
14.574528
13.021827
12.638569
12.837648
14.008880
13.282895
13.911724
14.101863
12.636781
13.956428
13.212562
13.021827
13.224483
12.535453
11.619925
12.203455
12.407899
13.192892
12.540817
12.544990
12.309551
12.167692
11.292696
12.417436
12.801886
12.392998
13.143420
13.395548
13.772845
15.679598
16.108751
17.503500
16.886592
18.209815
17.506480
18.016696
15.880466
16.464591
13.496876
13.607740
13.760924
11.617541
10.391474
10.741949
8.658767
10.442734
8.535981
8.105636
8.636713
8.545518
8.512735
7.945895
8.393526
8.527637
8.283854
8.589625
7.895827
7.957816
8.547902
8.054972
10.075569
10.990500
20.250678
23.878813
47.439933
51.295757
64.032674
106.873512
111.768842
129.365921
157.728791
196.634531
201.426744
212.363601
##ZVALUE=230
91.869831
94.989538
152.389407
212.386847
276.921988
313.189626
305.070877
300.129652
261.897445
204.554796
96.118450
88.438988
67.664981
55.991411
56.831837
55.182576
55.566430
56.597590
47.559738
32.226443
29.014945
18.683672
14.335513
7.069707
7.109642
6.473660
6.225705
5.772710
6.789565
6.555915
8.514524
7.563829
7.968545
9.546876
9.444952
9.908676
10.307431
11.441708
11.320710
11.560917
12.554526
12.231469
14.143586
13.723969
13.123751
13.076663
14.402866
12.996793
13.818741
14.517903
14.974475
13.291836
13.323426
13.671517
14.872551
13.758540
13.016462
11.499524
14.118552
13.547540
12.621880
12.516975
11.874437
13.288856
13.040900
12.703538
12.247562
11.022687
14.696717
14.525652
14.765859
15.933514
16.633868
18.402934
18.073916
18.569827
17.133951
17.129779
15.830994
14.891624
15.532970
13.616681
11.900663
11.444688
12.014508
10.404587
9.549856
9.060502
9.444952
9.598732
9.433627
9.108782
8.505583
8.475780
8.835793
9.086728
8.469820
8.994937
8.575916
9.863973
9.276867
8.726716
10.424852
8.142591
9.554625
9.540915
10.208488
10.588765
12.670755
19.089580
25.444627
43.383837
57.446957
88.553429
114.251971
149.194598
##ZVALUE=235
28.262734
30.320883
70.248842
121.682882
187.585950
292.304754
379.653573
482.378602
499.381423
479.658842
421.280861
317.549706
233.181715
150.120854
110.710859
85.083842
80.797672
81.308484
85.911751
88.245869
76.548457
67.849755
51.217675
35.871863
26.334524
16.171932
11.243820
8.104444
7.179976
7.513762
7.869601
7.773638
8.585453
9.001493
9.733438
9.804964
11.140704
12.231469
11.649728
11.686683
14.413595
13.387799
12.288690
13.513565
14.406443
14.263988
15.245676
14.722943
13.834834
15.134811
14.334917
14.189482
14.546514
14.005899
13.570786
12.760758
13.003945
13.362765
12.871623
12.681484
12.614727
13.013482
12.398958
12.929440
11.774898
13.546944
13.865829
13.225675
13.733506
14.530420
16.426444
17.217994
17.842650
19.129515
19.176602
19.120574
18.578768
17.772913
17.688870
15.877485
16.043782
14.326572
13.811588
13.209581
12.693405
11.847615
11.722445
10.431409
10.099411
9.883642
10.599494
10.727644
10.631680
10.447502
9.978414
11.731982
11.215806
10.737777
9.460449
10.571480
9.728670
9.666681
10.032654
9.401441
10.685921
9.735823
10.739565
10.978580
11.012554
10.324717
10.537505
10.589957
11.747479
15.255809
21.688938
35.925508
##ZVALUE=240
2.661943
2.526641
10.001659
29.834509
61.087608
144.246817
240.469575
409.848690
537.932515
685.528517
748.720765
747.554898
679.695606
527.118444
411.990881
262.250900
180.184841
124.677420
104.502439
105.123520
114.019513
118.654966
115.990639
105.187893
81.463456
67.842007
46.750903
33.801794
21.364689
15.840530
10.650754
10.788441
10.175705
10.849833
10.865927
12.181997
12.352467
12.979507
13.261437
13.806820
12.934804
15.238523
12.971759
13.948679
13.665557
14.105439
14.021993
15.443563
14.509559
16.277432
14.062524
15.237927
15.609860
13.994575
13.323426
13.640523
14.289618
14.325976
14.009476
14.684796
13.298988
12.562871
13.319850
12.125969
13.908744
14.307499
13.643503
15.373826
15.165806
16.494989
18.223524
19.034743
18.887520
21.108985
23.361444
20.645857
21.719933
20.832419
19.192696
19.480586
17.278790
17.510653
16.525984
15.051961
14.196634
14.158487
12.668967
12.870431
11.828542
14.015436
12.643933
12.798905
11.321902
12.277961
12.172461
12.398958
12.593865
12.267828
12.820959
13.255477
13.400912
11.430979
12.727976
12.999773
12.952685
12.370944
13.129711
13.842583
12.600422
12.025833
11.845827
11.010766
11.862516
12.188554
11.712909
12.348890
##ZVALUE=245
1.892447
1.971722
2.308488
2.494454
4.606843
19.418597
51.277876
128.981471
230.699778
413.870811
568.966866
789.844990
912.784934
952.998996
911.093950
758.240819
608.889461
401.734710
271.866918
154.633522
118.486881
104.818940
114.014745
125.095844
131.828785
125.932693
114.714503
98.116994
75.001717
57.802796
39.225817
27.257800
19.092560
13.802648
9.989738
11.498928
11.238456
11.502504
11.233687
12.762547
12.001991
12.885928
13.080835
13.161898
12.527704
13.152957
13.321638
13.148785
13.068914
12.179613
12.654662
12.295842
13.246536
12.728572
12.180805
12.686849
11.647940
11.077523
11.313558
10.547638
11.295676
11.547804
10.715723
11.290908
12.052655
10.977983
11.647940
11.119843
12.750626
13.422966
14.308691
14.781952
17.005801
16.519427
17.105937
17.402768
16.373992
15.261769
16.028881
15.665889
12.415648
13.350844
13.511777
11.372566
11.703968
11.692643
11.465549
10.982752
10.804534
10.259748
11.359453
10.924935
11.350513
11.211634
10.427833
10.678768
11.103749
10.049939
9.862781
10.993481
11.260509
9.780526
10.883808
10.448694
10.916591
11.878610
11.184812
11.694431
11.709929
12.002587
11.715889
10.756850
11.369586
11.240840
10.338426
10.475516
##ZVALUE=250
2.027750
1.736879
1.853704
1.931787
1.631975
2.054572
2.730489
12.563467
36.915541
103.341937
192.763805
386.787653
555.595756
813.285708
953.985453
1016.001701
1016.001701
959.548950
815.683007
567.702651
382.288694
212.880969
136.125684
103.872418
108.416677
123.045444
137.368441
142.992735
140.339732
124.357939
101.194978
82.860589
57.266951
40.709972
25.509000
20.003915
13.589859
12.611747
11.057854
11.788607
12.223721
12.488961
13.409853
11.759996
11.962652
12.579560
12.586713
11.913776
11.791587
11.783838
12.140870
11.481643
11.997819
10.981560
11.386871
10.585785
11.891723
10.387897
10.406971
10.086894
10.595918
9.818673
9.632707
9.864569
10.326505
9.882450
9.887815
11.145473
11.467934
10.969639
12.590885
13.694763
13.846755
15.019774
15.811920
15.239716
14.374852
14.369488
13.210773
12.988448
12.298822
11.555552
10.632873
10.147691
10.515451
9.370446
9.495616
9.821653
10.856986
9.525418
9.737611
8.974671
10.176897
9.825826
8.661747
9.455681
8.317828
9.330511
10.165572
9.873509
9.706616
9.934902
9.253621
9.514689
9.942651
10.449886
9.946823
10.598898
9.671450
9.917617
9.580851
10.490417
10.408759
10.168552
9.981990
9.563565
##ZVALUE=255
1.140833
1.418591
1.518726
1.569986
1.970530
1.599789
1.864433
2.068877
2.265573
7.221699
23.987889
80.872774
160.076618
333.450437
503.582954
764.846802
947.920680
1016.001701
1016.001701
1016.001701
981.097817
723.059773
508.569479
280.251503
168.129802
104.430914
94.961524
105.525851
129.032731
141.712427
147.736669
147.877932
133.414865
116.718411
82.937479
61.166883
41.241646
28.991699
18.197894
14.705658
12.756586
13.260841
13.503432
13.310909
12.630820
12.462735
12.877584
12.661815
13.043880
12.978911
12.631416
12.683868
11.639595
12.044907
12.034774
11.488795
10.768771
10.808706
10.181665
10.309815
10.252595
9.895563
9.432435
9.841919
9.317994
9.266734
10.280609
9.413958
9.335876
10.492802
11.049509
12.564659
12.925863
13.569593
12.830496
13.297796
12.539625
11.518598
11.399984
11.235476
9.884834
9.525418
9.848475
9.423494
8.786917
8.506775
8.850694
8.842945
8.191466
8.762479
9.211898
9.008646
8.220673
7.920861
8.331537
8.138418
8.734465
8.582473
8.742809
8.781552
9.341836
9.175539
9.310842
9.196997
9.371638
8.517504
9.323955
8.676648
9.482503
9.283423
8.435845
9.653568
9.037852
8.928776
8.910894
8.968711
##ZVALUE=260
1.552701
1.524687
1.228452
1.476407
1.518726
1.345873
1.394749
1.774430
2.013445
2.112985
1.962781
3.622770
12.437701
52.516460
111.479759
263.800621
428.524017
703.947544
927.175879
1016.001701
1016.001701
1016.001701
1016.001701
933.159590
691.558719
406.602621
261.162519
156.058669
95.383525
88.740587
110.936761
132.508874
147.839785
156.171918
153.438449
144.037604
113.738775
92.006922
64.980984
48.083663
30.150414
23.261905
16.684532
15.896559
15.336871
14.344454
14.155507
13.683438
13.952851
13.752580
13.218522
13.178587
13.169646
12.958646
13.019443
12.365580
12.251735
11.844635
11.523962
11.495948
10.103583
10.866523
10.128617
9.774566
10.096431
9.535551
9.905696
9.470582
10.065436
10.410547
11.464953
10.802746
11.843443
11.275411
11.864901
11.634827
11.043549
10.915995
10.123849
10.349751
9.500980
8.647442
9.103417
8.466840
7.708669
8.101463
7.657409
7.209778
7.716417
7.207990
7.832646
6.893873
7.183552
7.577538
6.990433
7.992983
7.463694
7.481575
7.424951
8.951426
7.759929
7.715821
8.123517
8.242726
8.569956
8.660555
8.814931
9.030700
8.826852
8.691549
9.138584
8.073449
9.052753
8.522868
8.606911
8.419752
##ZVALUE=265
1.197457
1.143813
1.100898
1.341701
1.501441
1.421571
1.356602
1.663566
1.516938
1.901984
1.894832
1.901984
2.094507
2.521873
6.421804
33.031702
85.240602
209.975839
366.965532
677.065849
927.542448
1016.001701
1016.001701
1016.001701
1016.001701
1016.001701
888.006687
558.639765
354.964733
208.522677
104.021430
80.329776
92.146993
113.654733
143.663883
158.170462
163.779855
158.828497
139.891505
120.969415
96.732974
68.521500
50.027966
32.986999
24.661422
17.626882
18.116832
15.036464
16.279817
16.493797
16.159415
15.954971
15.516877
14.389753
13.997555
13.971925
13.529658
12.479424
12.449622
11.990666
11.251569
11.162758
11.152625
11.252761
10.463595
10.734797
10.380745
10.509491
10.303855
10.582805
10.907650
11.342764
11.641979
11.397600
11.455417
11.052489
10.302663
10.397434
9.852648
9.303689
8.967519
8.442998
7.909536
8.174777
7.863641
7.823706
7.259846
7.381439
7.058978
7.384419
6.941557
7.309914
7.522702
7.066727
6.728768
7.152557
6.966591
7.193685
7.512569
7.228851
6.972551
7.419586
7.401705
7.912517
7.967949
7.756948
8.133650
8.357763
7.702708
8.609891
8.152723
8.527637
8.227825
8.473992
8.071661
7.969737
##ZVALUE=270
1.046658
1.036525
1.126528
0.890493
1.236796
1.324415
1.299977
1.241565
1.242757
1.384616
1.606941
1.550913
1.707673
1.821518
2.093911
1.928806
3.097653
14.941692
48.429966
157.234669
301.022530
585.963726
873.996615
1016.001701
1016.001701
1016.001701
1016.001701
1016.001701
1016.001701
817.617774
479.205847
291.595459
142.221451
83.399415
71.270466
87.470412
119.089484
142.410994
160.702467
171.054006
162.745714
149.961710
123.346448
99.423528
70.202947
51.547885
36.227703
28.001666
21.510720
19.114614
17.895699
17.887950
16.554594
16.032457
16.240478
15.478730
15.150905
15.043616
14.205575
13.802648
13.113618
12.960434
12.024641
12.343526
11.015534
11.089444
10.919571
10.408759
10.943413
10.413527
10.603666
11.171699
11.036992
10.882616
10.762811
10.732412
10.792613
9.974837
10.487437
9.042621
8.472800
8.289814
7.906556
7.912517
7.910728
7.021427
7.422566
7.480979
6.883740
7.079840
7.135868
6.871819
6.756783
7.007718
6.842613
6.591678
6.993413
7.408857
6.927848
7.000566
7.218719
6.992817
7.055998
7.608533
7.147789
7.259846
7.191896
7.365942
7.456541
7.774830
7.718801
7.995963
7.949471
7.798672
7.734895
7.767677
##ZVALUE=275
1.040697
0.903606
1.006722
0.949502
1.001954
1.098514
0.999570
1.076460
1.211762
1.209974
1.210570
1.500845
1.378655
1.488924
1.873970
1.751781
1.621842
2.062917
2.378821
6.420612
25.174618
104.161501
231.818557
508.040786
784.433484
1016.001701
1016.001701
1016.001701
1016.001701
1016.001701
1016.001701
991.158485
637.655854
391.109586
179.240704
102.021694
62.111616
67.007542
94.111562
115.622878
144.955516
159.039497
168.119669
164.371729
145.527720
126.536489
97.924471
76.581836
52.094460
38.112998
26.707649
21.665692
18.663406
18.190742
16.861558
15.970469
15.633702
15.364885
15.404820
14.262795
14.645457
12.936592
12.638569
11.843443
12.115836
12.093782
10.960698
10.853410
11.796951
10.767579
11.169910
11.484623
11.136532
10.892749
11.366606
11.263490
10.756850
10.992885
9.866953
9.449720
8.864999
8.379817
8.332729
7.877946
7.050633
7.211566
6.760955
7.122755
7.214546
6.729960
7.043481
6.787777
6.525517
6.528497
6.880760
6.620884
6.834865
6.688833
7.053614
6.770492
7.088780
7.127523
6.849766
6.791949
7.167459
6.918907
7.225871
7.209778
7.004738
6.859899
7.386804
6.765723
7.136464
7.420778
7.414818
7.937551
##ZVALUE=280
0.986457
0.938773
0.889897
0.893474
1.085997
0.921488
0.720620
1.135468
1.105666
1.195669
1.097918
1.173615
1.202822
1.431704
1.396537
1.521707
1.669526
1.539588
1.662970
1.804829
2.346635
3.616810
14.804006
71.272850
171.432495
407.084823
642.485619
929.489732
1016.001701
1016.001701
1016.001701
1016.001701
1016.001701
1016.001701
777.899623
505.856872
248.683691
131.569505
62.816739
53.126812
69.612861
88.183880
118.361712
138.173699
160.486698
166.551471
157.980919
145.049691
117.486715
96.054673
69.240928
51.916838
33.648610
25.810599
18.893480
17.264485
14.338493
13.800859
13.847947
13.414621
12.956858
12.585521
11.881590
11.714697
11.673570
11.317730
11.672974
11.305809
10.909438
10.674000
11.179447
11.174679
10.873675
10.284781
10.772943
10.537505
10.301471
10.152459
9.505749
9.406805
8.803606
7.952452
7.896423
7.719994
7.070899
6.768703
6.969571
7.356405
6.978512
6.755590
6.764531
6.250739
6.590486
6.397963
6.627440
6.151795
6.405711
6.472468
6.768703
6.479621
6.603599
6.793737
6.381869
6.584525
6.571412
6.726980
6.744862
6.867647
7.325411
7.321835
6.794930
7.094741
6.916523
6.298423
6.670952
6.730556
##ZVALUE=285
0.761747
0.787973
0.813603
0.888705
1.086593
1.079440
0.835657
0.938773
1.160502
1.068711
1.088977
1.184940
1.156926
1.098514
1.077652
1.174808
1.217723
1.511574
1.584888
1.374483
1.697540
2.066493
2.068877
2.779961
7.520914
26.467443
96.948743
213.899612
479.878783
752.877593
1016.001701
1016.001701
1016.001701
1016.001701
1016.001701
1016.001701
968.243480
669.787526
350.894928
198.224783
85.606575
48.934817
44.155717
58.651567
84.686875
107.761621
134.530663
149.116516
156.349540
153.939724
137.858987
120.206475
88.974833
70.101619
47.113895
32.958984
20.527840
16.070604
12.572408
12.000799
10.780692
11.235476
10.506511
10.073781
9.761453
10.244846
9.997487
10.179877
10.278821
9.945631
10.718703
10.190606
9.759665
10.422468
10.013580
9.854436
9.331703
9.096861
8.863807
8.594990
7.650852
7.744431
8.096695
7.629991
7.177591
7.424951
6.942749
6.740689
6.601810
6.345510
6.345510
6.589890
6.305575
6.454587
6.262660
6.467700
6.110668
6.697774
6.214976
5.820990
6.441474
6.715655
6.378889
6.410480
6.598830
6.674528
6.629825
6.816983
6.664991
6.742477
6.518960
6.435513
6.655455
6.790757
6.305575
6.391406
##ZVALUE=290
0.780821
0.834465
0.770688
0.846982
0.775456
0.902414
0.834465
0.858903
0.764728
0.864863
0.733733
1.058578
0.935793
1.161695
1.005530
1.161695
1.003742
1.315475
1.276731
1.242757
1.303554
1.563430
1.620650
1.724958
2.061725
2.177954
3.014803
9.570718
45.707822
114.994645
300.045609
526.785851
932.973027
1016.001701
1016.001701
1016.001701
1016.001701
1016.001701
1016.001701
853.216648
485.279560
285.063982
121.406913
59.607625
30.878782
36.311746
54.178834
73.299408
101.206899
120.982528
141.413808
148.540735
146.671534
133.261681
110.902786
89.082718
61.239600
43.856502
28.086901
19.068718
13.120770
10.697842
9.282827
8.954406
8.385777
8.826852
8.217692
8.512735
8.637905
9.195805
9.279847
9.354949
8.810759
9.337664
9.114742
9.079576
8.881688
8.335710
8.238554
7.864833
7.472634
7.658601
7.390976
7.402897
7.356405
7.199645
7.191896
6.473660
6.782413
6.419420
6.708503
6.286502
6.005764
6.117821
6.176829
6.368756
6.218553
6.513000
6.766915
6.543994
6.366968
6.746650
6.364584
6.252527
6.517768
6.428957
6.670952
6.396770
7.073879
6.726980
6.640553
6.343722
6.128550
6.159544
6.454587
6.269813
##ZVALUE=295
0.652671
0.687838
0.606775
0.801682
0.895858
0.749826
0.696778
0.859499
0.829697
0.788569
0.809431
0.804663
0.887513
0.920892
0.692606
1.075864
0.930429
1.044869
1.081824
0.968575
1.178980
1.278520
1.379848
1.391768
1.724958
1.777411
1.972914
1.841784
2.585649
4.220605
24.424791
69.717765
196.624398
386.223793
746.507645
1015.658975
1016.001701
1016.001701
1016.001701
1016.001701
1016.001701
974.087715
594.954491
367.369652
165.575743
79.630613
31.330585
23.938417
33.305883
45.899749
70.266724
90.210438
114.808679
128.739476
138.713717
135.663748
122.847557
106.354952
80.455542
62.574744
40.488839
27.841926
16.559958
12.103915
9.115934
7.738471
7.316470
7.448792
7.276535
8.061528
8.172989
7.784963
8.329749
8.650422
8.580685
8.386970
8.170605
7.507801
7.454753
7.325411
7.102489
6.987453
6.917715
7.169843
6.747842
6.488562
6.612539
6.899834
6.581545
6.041527
6.473660
6.401539
6.325841
6.442666
6.269813
6.009936
6.160736
6.106496
6.230474
6.187558
5.753636
6.182790
6.427765
6.178617
6.160736
6.561875
6.667972
6.636977
6.544590
6.023645
6.284714
6.433725
6.279945
6.535649
6.186962
6.030798
##ZVALUE=300
0.638962
0.599623
0.588894
0.720620
0.809431
0.668764
0.614524
0.940561
0.776649
0.705719
0.715852
0.784993
0.803471
0.746846
0.784993
0.964999
1.027584
0.847578
1.004934
1.049638
0.939965
1.241565
1.063943
1.278520
1.286864
1.441836
1.443624
1.576543
1.848936
2.038479
2.383590
2.625585
11.352897
40.364861
135.386586
266.238451
552.541614
839.508772
1016.001701
1016.001701
1016.001701
1016.001701
1016.001701
1016.001701
750.152469
484.951735
240.272880
127.866864
45.595765
21.551847
20.180941
28.175712
43.739676
59.977770
85.089803
102.008581
124.216676
130.789876
129.563808
119.816661
99.836588
82.198977
58.506727
41.771531
25.813580
17.075539
11.237860
8.495450
7.203817
7.308722
7.269979
7.662773
7.402897
7.467866
7.704496
7.833838
7.423759
7.418990
6.827712
7.185936
7.382631
6.905794
6.801486
6.871819
6.605983
6.669760
6.737709
6.577969
6.484985
6.415844
6.400943
6.492734
6.039739
6.274581
6.430745
6.146431
6.403923
5.936623
6.236434
6.404519
6.467700
5.921721
6.056428
6.402731
6.622672
6.416440
6.320477
6.341934
6.206632
6.474853
6.315708
5.997419
6.207824
6.278753
5.897880
5.994439
##ZVALUE=305
0.612736
0.658631
0.528693
0.653863
0.590682
0.746846
0.588894
0.636578
0.621676
0.766516
0.591874
0.501871
0.685453
0.727773
0.798702
0.806451
0.797510
0.957847
0.889897
0.973940
0.823736
0.981688
0.964999
1.128912
1.006722
1.049638
1.278520
1.435876
1.483560
1.422763
1.557469
1.542568
1.948476
2.427697
5.629659
21.594763
88.261962
192.301869
425.391793
665.713549
1002.498865
1016.001701
1016.001701
1016.001701
1016.001701
1016.001701
906.921029
624.564886
325.551629
177.967548
69.476962
29.510856
14.537573
17.243624
25.985837
39.049983
60.536861
79.046488
100.595951
115.191936
124.808550
123.443604
111.876726
97.527504
75.811744
57.613850
37.201643
25.798678
14.976859
10.664463
8.371472
7.705688
7.393956
6.784797
7.255673
7.568598
7.171631
6.842613
6.879568
6.601810
6.888509
6.815791
6.464720
6.789565
6.300807
6.557703
6.153584
6.844997
6.158948
6.580949
6.532669
6.395578
6.361604
6.196499
5.914569
6.145835
6.113648
6.080866
6.061792
6.190538
5.991459
6.197691
6.224513
6.176829
6.323457
6.520748
6.552935
6.292462
6.579757
6.009936
6.366968
6.226897
6.242990
6.146431
6.066561
5.943775
##ZVALUE=310
0.678897
0.634789
0.551939
0.517964
0.589490
0.647902
0.365973
0.556707
0.530481
0.591874
0.685453
0.509620
0.738502
0.705719
0.718832
0.740886
0.673532
0.758767
0.866652
0.791550
0.828505
0.729561
0.853539
0.867844
1.032948
0.881553
1.023412
1.226664
1.383424
1.279712
1.299977
1.434684
1.658797
1.607537
2.011657
2.279878
2.680421
11.441708
39.753914
135.159492
261.802673
534.641743
810.740590
1016.001701
1016.001701
1016.001701
1016.001701
1016.001701
1016.001701
758.975744
502.091646
250.688791
131.343603
45.468807
18.961430
12.163520
14.963746
24.101734
34.052730
53.255558
69.727898
92.513561
106.545687
116.132498
118.026733
107.493997
94.540715
74.656606
57.870746
37.704706
26.700497
16.047955
11.969805
8.768439
7.770658
7.037520
6.664991
6.528497
6.332994
6.385446
6.443858
6.376505
6.404519
6.257892
6.724000
6.321669
6.480813
6.457567
6.699562
6.338954
6.400943
5.808473
6.265640
6.084442
6.227493
6.077886
6.009936
6.238818
6.051660
5.953908
6.353855
6.188750
6.369948
6.168485
6.098747
6.428957
6.483793
6.350875
6.381869
6.170869
6.338954
6.359816
6.153584
6.267428
6.083846
5.903840
##ZVALUE=315
0.501871
0.509620
0.568628
0.579953
0.568628
0.555515
0.661612
0.612736
0.567436
0.509620
0.691414
0.450611
0.605583
0.545979
0.783801
0.693798
0.564456
0.724792
0.720620
0.602603
0.885725
0.774860
0.787973
0.828505
0.941753
0.928640
0.883937
1.065731
0.887513
1.097918
1.145601
1.013875
1.219511
1.399517
1.545548
1.847744
1.882911
1.970530
2.492666
4.076958
24.918914
72.617531
209.776759
383.145809
712.289810
983.464718
1016.001701
1016.001701
1016.001701
1016.001701
1016.001701
945.217609
584.596992
363.121629
168.373585
78.616738
22.853613
11.426806
11.149645
13.855696
21.380782
30.794740
48.715472
63.882470
85.211992
98.470449
109.104514
110.903978
101.927519
88.906884
67.963600
53.524971
36.484599
25.424957
15.499592
11.201501
7.868409
7.035732
6.290674
5.924702
6.111860
6.398559
6.383657
5.972981
6.191730
6.186962
6.574988
6.419420
6.215572
6.066561
5.788803
6.292462
6.201863
6.239414
6.453991
6.202459
6.255507
6.234646
6.067753
5.893707
6.447434
6.197691
6.136894
6.332994
6.246567
6.269813
6.396770
6.317496
6.436706
6.615520
6.336570
6.302595
6.349683
6.115437
5.909801
6.111860
##ZVALUE=320
0.493526
0.488758
0.494719
0.550747
0.703931
0.546575
0.425577
0.557899
0.485778
0.647902
0.479817
0.558496
0.474453
0.483990
0.529885
0.595450
0.761747
0.533462
0.763535
0.791550
0.545979
0.711679
0.670552
0.777841
0.809431
0.985861
0.922680
0.817776
0.928640
1.061559
0.927448
1.136661
1.084805
1.126528
1.249909
1.299977
1.444817
1.286864
1.700521
1.809597
2.021790
2.887845
8.576512
47.391653
118.552446
310.406685
525.997877
886.224508
1016.001701
1016.001701
1016.001701
1016.001701
1016.001701
1012.977958
768.869519
422.558784
239.220858
98.565817
43.797493
14.417768
9.124875
10.283589
12.743473
18.734932
27.455688
43.872595
57.724714
79.707503
93.292594
103.069544
104.480982
96.838474
86.117983
65.525770
50.557852
33.837557
23.947954
15.470982
10.930896
7.991791
6.797910
6.322861
5.942583
5.884767
6.145835
6.082654
5.925894
6.181598
6.086826
6.173849
5.969405
5.915761
6.223917
5.928874
6.252527
6.089807
6.275773
6.534457
6.176829
6.269813
6.457567
6.084442
6.481409
6.489754
6.286502
6.429553
6.564856
6.438494
6.418824
6.261468
6.425977
6.401539
6.249547
6.231666
6.145835
5.846620
##ZVALUE=325
0.558496
0.402927
0.257492
0.324845
0.524521
0.557899
0.579953
0.490546
0.496507
0.683665
0.513792
0.542998
0.479817
0.474453
0.561476
0.603795
0.544786
0.707507
0.666976
0.381470
0.646710
0.526905
0.685453
0.653863
0.655651
0.729561
0.782609
0.791550
1.019835
0.901818
0.937581
0.843406
0.913739
1.036525
1.415610
1.153946
1.219511
1.265407
1.315475
1.534820
1.538992
1.715422
1.943707
2.171993
5.319715
21.158457
84.937811
186.260939
426.679850
677.188635
1012.271643
1016.001701
1016.001701
1016.001701
1016.001701
1016.001701
821.618438
566.763878
296.751857
160.326958
57.996511
23.406744
9.288788
8.198619
9.077787
11.270642
18.027425
26.587844
42.731762
58.012605
77.557564
89.170933
97.529888
98.009706
90.912580
79.301596
60.628653
46.261549
30.682683
21.419525
13.686419
10.192990
7.779598
6.823540
6.425977
6.183982
6.009936
6.230474
5.904436
5.834699
5.743504
5.860925
6.120801
6.178617
5.962849
5.792975
6.285906
6.359816
6.094575
6.277561
6.325841
6.556511
6.161928
6.292462
6.804466
6.590486
6.424785
6.592870
6.550550
6.368756
6.000996
6.386638
6.253719
6.175637
6.392598
6.099939
##ZVALUE=330
0.533462
0.350475
0.464916
0.396967
0.334978
0.532866
0.666976
0.268817
0.443459
0.606775
0.493526
0.553727
0.408888
0.456572
0.447631
0.535846
0.417829
0.548959
0.499487
0.757575
0.501871
0.674725
0.536442
0.719428
0.816584
0.690818
0.823736
0.765920
0.883937
0.785589
0.774860
0.834465
0.772476
0.915527
0.833869
0.944734
1.080632
1.070499
1.022816
1.278520
1.141429
1.238585
1.562834
1.777411
1.915693
2.122521
2.787709
11.793971
40.024519
105.995536
284.375548
494.348407
866.859555
1016.001701
1016.001701
1016.001701
1016.001701
1016.001701
963.299870
698.795915
385.088921
214.854479
85.320473
36.467910
11.893511
8.122921
7.931590
8.630753
12.028813
16.903877
26.996732
37.734509
55.837631
69.012642
82.706809
89.678764
91.106892
85.051656
71.541667
59.805512
42.301416
31.753778
20.940900
15.096664
9.906888
7.888675
6.458759
5.772710
5.755424
5.822778
5.784631
5.734563
5.763769
6.073713
5.706549
5.944967
6.014705
5.897880
6.205440
5.960464
6.201863
6.373525
6.082654
6.311536
6.257892
6.223917
6.492734
6.251931
6.352663
6.533861
6.356835
6.116629
6.153584
6.381869
5.968809
5.978942
##ZVALUE=335
0.449419
0.457764
0.444651
0.466704
0.499487
0.424981
0.396967
0.588894
0.427961
0.545979
0.605583
0.376701
0.465512
0.484586
0.397563
0.572801
0.558496
0.321865
0.393987
0.433922
0.600815
0.577569
0.539422
0.686646
0.716448
0.560880
0.625849
0.640750
0.684857
0.721812
0.699759
0.660419
0.850558
0.721812
0.855923
0.977516
0.986457
0.864863
0.936985
0.973940
1.068711
1.034737
1.127720
1.238585
1.450777
1.337528
1.626611
1.826882
2.206564
4.169941
24.675727
69.347620
200.991631
368.211865
690.642595
978.537798
1016.001701
1016.001701
1016.001701
1016.001701
1016.001701
816.544890
470.150709
281.888843
121.302605
54.585934
16.355515
8.761883
7.520914
7.121563
8.649826
10.903478
16.469955
23.000836
36.992431
49.013495
65.859556
76.447725
84.785819
84.770918
77.937841
69.668889
55.033565
44.246912
30.558705
22.293925
14.167428
10.896921
7.521510
6.805658
6.055832
5.880594
5.602837
5.669594
5.832911
5.449653
5.596876
5.963445
6.041527
6.068945
5.619526
5.769730
6.036758
6.036758
6.433725
6.374717
6.637573
6.467700
6.258488
6.562471
6.530881
6.382465
5.962849
6.244779
6.116629
5.953908
##ZVALUE=340
0.348687
0.492930
0.295639
0.397563
0.527501
0.374913
0.488758
0.489950
0.504851
0.447631
0.579953
0.361800
0.311732
0.492930
0.461936
0.489950
0.577569
0.421405
0.458956
0.422597
0.678897
0.360608
0.448823
0.504851
0.521541
0.466704
0.555515
0.651479
0.576973
0.638962
0.680685
0.930429
0.731945
0.842810
0.666976
0.925660
0.843406
0.897646
0.896454
0.903606
0.918508
0.828505
0.998974
1.207590
1.229644
1.163483
1.229644
1.402497
1.436472
1.621842
1.873970
2.923608
9.309649
48.618913
121.126771
307.474732
523.640513
871.855617
1016.001701
1016.001701
1016.001701
1016.001701
1016.001701
895.162821
629.134774
333.783627
178.735852
64.495802
25.291443
9.336472
7.399917
7.124543
7.387996
8.129478
10.150671
15.787482
22.731423
34.602880
46.005845
62.077641
71.324706
79.431534
79.257488
74.108839
66.282749
52.741766
42.542815
30.309558
22.730827
14.150739
10.420680
7.477999
6.675720
5.816817
5.728602
5.530715
5.343556
5.806684
5.576611
5.542636
5.793571
5.965829
6.015897
5.905628
6.058812
6.266832
6.182790
6.392598
6.181598
6.206632
6.323457
5.850792
6.096959
6.033778
6.020665
5.747676
##ZVALUE=345
0.426769
0.396967
0.392795
0.329614
0.366569
0.372529
0.376701
0.269413
0.372529
0.512600
0.453591
0.327826
0.423789
0.457764
0.371933
0.463724
0.527501
0.451803
0.500679
0.419617
0.528693
0.580549
0.563860
0.582933
0.534654
0.526905
0.601411
0.649691
0.554919
0.613928
0.597835
0.483990
0.679493
0.731945
0.724792
0.742674
0.606775
0.807643
0.692606
0.917912
0.878572
0.933409
0.746846
0.918508
0.879765
1.012683
1.023412
1.077652
1.061559
1.367927
1.563430
1.387596
1.863837
2.020597
5.158782
21.191835
88.534951
185.450912
401.405692
628.489852
979.402661
1016.001701
1016.001701
1016.001701
1016.001701
1016.001701
723.909736
472.023487
213.695765
102.456808
32.862425
13.734698
7.625818
7.178783
6.608963
6.577969
7.143617
8.805990
13.842583
19.861460
32.277703
42.162538
55.618882
63.915849
72.134733
73.762536
70.048571
63.607693
51.917434
41.972995
29.900670
21.695495
14.257431
10.569692
7.587671
6.657839
5.710721
5.711913
5.655885
5.630851
5.767941
5.628467
5.774498
5.746484
5.885959
5.920529
6.225705
5.896688
6.067753
6.212592
6.112456
5.801916
5.847812
5.671978
5.790591
5.669594
##ZVALUE=350
0.436902
0.341535
0.473857
0.378489
0.270605
0.395775
0.466704
0.387430
0.358820
0.432730
0.283718
0.394583
0.391603
0.463724
0.476837
0.466704
0.469685
0.394583
0.521541
0.250936
0.500679
0.483990
0.687838
0.533462
0.650883
0.412464
0.511408
0.636578
0.403523
0.533462
0.713468
0.423789
0.695586
0.554919
0.673532
0.686646
0.801682
0.783801
0.695586
0.893474
0.582933
0.664592
0.816584
0.874996
0.919700
0.771880
0.880957
1.048446
0.972748
1.114607
1.190901
1.176596
1.363754
1.426935
1.632571
1.800656
2.970695
10.249615
49.115419
115.829706
288.139582
496.096611
839.048028
1016.001701
1016.001701
1016.001701
1016.001701
1016.001701
830.929875
551.341772
268.988609
143.473744
53.480864
20.532608
8.006692
6.717443
5.882978
5.780458
5.957484
6.756783
8.726716
12.254715
18.986464
26.276708
38.043857
47.615767
58.440566
64.885616
68.093538
66.130757
58.995485
50.082803
38.043857
29.229522
20.165443
15.330911
10.247827
8.111000
6.433725
6.253719
5.752444
5.744696
5.672574
5.619526
5.685687
5.571842
5.969405
6.033778
5.762577
5.895495
5.974770
5.877614
5.719662
5.498528
5.466938
5.593896
##ZVALUE=355
0.484586
0.448823
0.567436
0.391603
0.389814
0.270605
0.315905
0.464916
0.382662
0.358820
0.398755
0.366569
0.503659
0.484586
0.416636
0.409484
0.474453
0.398755
0.410676
0.391603
0.514984
0.451803
0.491738
0.526905
0.488758
0.587702
0.574589
0.445843
0.645518
0.696778
0.768900
0.591874
0.596642
0.538826
0.754595
0.687838
0.534654
0.722408
0.732541
0.722408
0.645518
0.839829
0.814795
0.765920
0.816584
0.968575
0.892878
0.915527
0.829697
0.938773
1.117587
1.164675
1.225471
1.267791
1.258850
1.301765
1.630783
1.861453
2.263784
4.689693
27.193427
78.672767
215.637684
375.728011
677.127838
938.083529
1016.001701
1016.001701
1016.001701
1016.001701
906.526446
663.182735
368.891954
201.285481
73.265433
29.237866
9.228587
6.521940
5.938411
5.573630
5.514622
5.514622
6.390810
7.528663
11.172891
15.761852
23.799539
32.080412
43.647885
51.669478
59.012771
61.496496
59.968829
55.474639
45.725703
38.617849
28.830767
22.001863
14.872551
11.015534
7.980466
6.936789
6.253719
5.716681
5.791783
5.656481
5.557537
5.720854
5.497932
5.916953
5.583763
5.634427
5.387664
5.398989
5.504489
5.389452
##ZVALUE=360
0.388622
0.424981
0.360608
0.429749
0.515580
0.419617
0.367761
0.531673
0.502467
0.383854
0.502467
0.587702
0.225902
0.388622
0.498891
0.296831
0.505447
0.571609
0.324845
0.520945
0.604987
0.497699
0.547767
0.587702
0.574589
0.618696
0.455976
0.614524
0.335574
0.574589
0.561476
0.483990
0.702739
0.810623
0.726581
0.590682
0.896454
0.784993
0.639558
0.745654
0.782609
0.574589
0.699759
0.736713
0.908971
0.827909
0.829697
0.758767
1.030564
0.928640
0.941753
1.124740
1.067519
1.106858
1.356602
1.202822
1.345873
1.385808
1.345873
1.918674
1.992583
2.679825
13.706684
42.200685
133.177638
258.961916
515.163541
758.046508
1016.001701
1016.001701
1016.001701
1016.001701
1013.112664
799.940825
473.979712
284.387469
118.687749
49.183965
13.757944
7.131696
5.847812
5.587935
5.422831
4.941821
5.253553
5.390644
6.680489
8.897781
13.564825
18.896461
27.506948
36.129951
45.976639
51.349998
55.892467
55.640936
52.078962
46.876669
37.342906
30.329823
21.818876
16.634464
11.451840
8.837581
7.276535
6.213784
6.053448
5.489588
5.473495
5.543828
5.383492
5.350709
5.201697
5.344748
5.068779
5.090833
##ZVALUE=365
0.429749
0.383854
0.423789
0.517964
0.450611
0.417829
0.340939
0.414848
0.545979
0.382662
0.345707
0.598431
0.582933
0.332594
0.451803
0.322461
0.506639
0.318885
0.405908
0.519753
0.401735
0.551939
0.447631
0.429749
0.591874
0.496507
0.549555
0.472665
0.561476
0.544786
0.499487
0.513792
0.585914
0.592470
0.589490
0.645518
0.691414
0.601411
0.707507
0.810623
0.659823
0.590682
0.762939
0.758767
0.722408
0.834465
0.813603
0.859499
0.956655
0.861883
0.914931
1.066923
0.938773
0.953674
1.061559
1.017451
1.164675
1.319647
1.398921
1.300573
1.663566
1.826882
1.983643
2.099872
6.004572
20.676851
83.512664
178.669691
411.056876
645.827651
965.442657
1016.001701
1016.001701
1016.001701
1016.001701
902.276635
564.214587
344.581604
149.187446
69.588423
21.822453
8.776784
5.884767
5.615950
5.110502
5.130768
4.608631
4.666448
4.959702
5.417466
7.744431
10.767579
16.709566
23.000836
32.191873
38.539767
46.386719
50.758719
51.611662
50.177574
44.226646
38.453937
30.501485
23.720860
16.770959
13.051629
9.318590
7.162690
6.201863
5.644560
5.446672
4.978776
4.909635
5.130768
4.788637
5.001426
##ZVALUE=370
0.501871
0.404716
0.479817
0.431538
0.222921
0.198483
0.469685
0.502467
0.541806
0.354648
0.441670
0.533462
0.448823
0.462532
0.572801
0.442863
0.404716
0.303984
0.339746
0.381470
0.467896
0.397563
0.356436
0.444651
0.351667
0.408888
0.543594
0.571609
0.590682
0.535846
0.530481
0.502467
0.507832
0.518560
0.511408
0.584722
0.697970
0.649691
0.698566
0.633597
0.593662
0.716448
0.668764
0.698566
0.648499
0.633597
0.752807
0.626445
0.790954
0.668764
0.701547
0.738502
0.763535
0.831485
0.928640
0.898838
0.888705
1.014471
1.061559
1.221895
1.273751
1.342893
1.428723
1.501441
1.632571
1.970530
3.311634
11.247993
57.682991
138.702989
326.578617
521.216989
826.904774
1016.001701
1016.001701
1016.001701
1016.001701
967.496634
645.336509
424.104929
208.150744
103.909969
34.909844
13.911724
5.940795
4.997849
4.844666
4.655719
4.399419
4.463792
4.293919
4.320741
5.481839
6.849766
9.763837
13.599992
20.222664
26.528835
35.365820
41.177869
46.502948
48.205853
47.432780
43.903589
37.342906
31.179786
23.609996
16.895533
13.425946
9.807944
7.831454
6.294847
5.598664
4.852414
4.695654
4.805923
##ZVALUE=375
0.304580
0.371933
0.329614
0.475645
0.492930
0.386834
0.452995
0.366569
0.279546
0.382662
0.403523
0.451803
0.449419
0.391603
0.436902
0.423789
0.334978
0.488758
0.429749
0.507832
0.550747
0.534654
0.478625
0.542998
0.638962
0.460744
0.419617
0.492930
0.482798
0.498891
0.506639
0.515580
0.446439
0.499487
0.656843
0.545979
0.615716
0.591874
0.556707
0.646710
0.613928
0.693798
0.468493
0.507832
0.571609
0.624657
0.534654
0.585914
0.587702
0.732541
0.606775
0.690818
0.634789
0.761747
0.725985
0.923872
0.996590
0.976920
0.722408
0.795722
1.078844
1.045465
1.030564
1.118779
1.208782
1.317859
1.429915
1.775622
2.333522
5.854964
32.676458
84.383488
218.906403
392.527580
698.408484
929.952860
1016.001701
1016.001701
1016.001701
1016.001701
776.986480
550.002456
307.692885
172.365904
65.118670
26.263595
7.523894
5.385876
4.587770
4.626513
4.430413
4.429817
4.457831
4.108548
4.210472
4.693866
6.227493
7.728934
12.065768
16.503930
23.655891
30.078888
37.439466
42.166710
45.588613
45.860410
42.740703
37.441850
32.163858
24.939775
19.907951
14.457703
11.282563
7.991791
6.669760
5.306602
##ZVALUE=380
0.435710
0.357628
0.423789
0.302792
0.313520
0.387430
0.387430
0.383854
0.195503
0.356436
0.444651
0.237823
0.462532
0.391603
0.485778
0.474453
0.288486
0.324845
0.359416
0.526905
0.353456
0.438690
0.636578
0.417829
0.427961
0.414848
0.369549
0.448823
0.491738
0.696778
0.539422
0.544786
0.388622
0.549555
0.732541
0.591874
0.510812
0.576973
0.573993
0.705719
0.581741
0.714660
0.622869
0.608563
0.548959
0.690818
0.726581
0.638962
0.524521
0.597835
0.632405
0.692606
0.667572
0.839829
0.806451
0.733733
0.901818
0.942945
0.868440
0.774860
0.974536
0.950694
0.875592
0.805855
1.108646
1.034737
1.176000
1.373887
1.557469
1.716614
1.949668
3.316402
16.819835
53.587556
169.053674
321.380496
639.251471
900.890827
1016.001701
1016.001701
1016.001701
1016.001701
909.157991
682.296753
235.509872
111.708641
100.720525
37.222505
8.446574
5.173683
4.553795
4.483461
4.539490
4.253983
4.220605
4.173517
4.161596
4.294515
4.567504
6.718636
7.315874
10.048747
14.899969
22.135973
27.549863
33.932924
40.406585
43.313503
44.032931
42.105913
38.382411
26.741624
26.127696
15.332699
14.898777
10.852814
##ZVALUE=385
0.317693
0.224710
0.328422
0.302792
0.440478
0.449419
0.478625
0.396967
0.404716
0.327826
0.237823
0.355840
0.405908
0.353456
0.312924
0.204444
0.320673
0.172853
0.282526
0.535846
0.243783
0.424981
0.441670
0.495911
0.475645
0.674725
0.546575
0.544786
0.488758
0.563860
0.584722
0.462532
0.810623
0.634789
0.588894
0.570416
0.693798
0.574589
0.520945
0.682473
0.584722
0.749826
0.706911
0.612736
0.708699
0.613928
0.610948
0.658631
0.741482
0.579953
0.741482
0.715852
0.619888
0.652671
0.703931
0.571609
0.781417
0.843406
0.574589
0.803471
0.745654
0.880957
0.853539
0.747442
0.936985
0.912547
1.133680
1.219511
1.470447
1.352429
1.531839
1.819730
1.982450
1.989603
7.254481
26.004910
96.812844
209.952593
447.984934
682.743788
987.411737
1016.001701
1016.001701
1016.001701
1011.753678
821.914673
524.277687
330.461860
149.276853
71.866512
22.596717
8.334517
4.743934
4.637837
4.326701
4.293919
4.237890
4.265904
3.843904
4.033446
3.926754
4.015565
4.885793
6.064773
8.739829
11.816621
17.704964
24.353862
29.234886
34.542680
38.631558
40.523410
40.066838
36.781430
32.624602
25.961995
##ZVALUE=390
0.386834
0.337958
0.411868
0.192523
0.208616
0.205636
0.226498
0.304580
0.061989
0.133514
0.380874
0.430942
0.485778
0.273585
0.363588
0.242591
0.386834
0.244975
0.265837
0.279546
0.196695
0.477433
0.414848
0.411868
0.567436
0.466704
0.526905
0.408888
0.407696
0.610948
0.524521
0.493526
0.531673
0.592470
0.770688
0.678897
0.809431
0.733733
0.661612
0.682473
0.779629
0.682473
0.682473
0.796914
0.560880
0.702739
0.802875
0.750422
0.876784
0.767708
0.725985
0.718832
0.810623
0.825524
0.560880
0.696778
0.846982
0.688434
0.707507
0.815988
0.784993
0.650883
0.688434
0.855923
0.812411
0.850558
0.917912
1.009703
1.042485
1.170635
1.302958
1.466870
1.535416
1.553893
1.558661
1.938939
3.354549
13.804436
65.064430
152.777433
358.272791
565.730929
860.253572
1016.001701
1016.001701
1016.001701
1016.001701
978.766680
673.872828
456.121564
234.005451
119.338632
39.022565
14.264584
5.181432
4.377961
4.191995
4.112720
4.386902
4.224777
4.432797
4.079938
4.300475
3.914833
4.120469
4.627705
5.850792
8.216500
10.801554
14.466643
20.357966
25.088787
31.187534
35.224557
37.825704
37.999749
##ZVALUE=395
0.266433
0.508428
0.445843
0.149608
0.268817
0.562668
0.384450
0.232458
0.288486
0.252724
0.400543
0.426769
0.365973
0.400543
0.332594
0.286698
0.302792
0.361800
0.319481
0.196695
0.212789
0.327826
0.233650
0.384450
0.469685
0.457764
0.641942
0.570416
0.585914
0.816584
0.658631
0.640750
0.676513
0.724792
0.613928
0.843406
0.706911
0.743866
0.852942
0.725985
0.710487
0.735521
0.775456
0.624657
0.822544
0.952482
0.770688
0.734925
0.717640
0.606775
0.608563
0.774860
0.659823
0.671744
0.881553
0.779629
0.593662
0.801682
0.701547
0.600815
0.786781
0.699759
0.815988
0.808835
0.789762
0.795722
0.905991
0.918508
1.092553
1.085997
1.369715
1.320839
1.357794
1.444817
1.339912
1.496673
1.635551
1.794696
2.311468
7.847548
40.172935
101.625919
252.937675
422.936678
719.169974
943.830609
1016.001701
1016.001701
1016.001701
1016.001701
790.299773
556.184649
295.526981
161.728859
63.694715
26.477575
7.622838
4.930496
4.475713
4.470944
4.361868
4.205704
4.497766
4.576445
4.324913
4.280806
4.375577
4.065633
4.407763
5.159974
6.409883
9.108782
11.906624
17.634630
22.166967
28.377771
##ZVALUE=400
0.626445
0.414848
0.590682
0.290871
0.355840
0.382662
0.294447
0.126958
0.167489
0.271797
0.444651
0.262856
0.276566
0.388622
0.363588
0.288486
0.299811
0.352859
0.350475
0.249743
0.277758
0.434518
0.405908
0.512600
0.422597
0.371933
0.527501
0.422597
0.541806
0.626445
0.679493
0.683665
0.469685
0.576973
0.630617
0.710487
0.713468
0.845790
0.710487
0.693798
0.861883
0.830889
0.656843
0.759959
0.668764
0.648499
0.635982
0.734925
0.777841
0.869632
0.671744
0.718832
0.723600
0.621676
0.591874
0.800490
0.585914
0.714660
0.616908
0.776649
0.703931
0.682473
0.802875
0.815988
0.731945
0.778437
0.993609
1.051426
0.941753
1.019835
1.266599
1.105666
1.267791
1.244545
1.159906
1.147985
1.078844
1.286864
1.437664
1.559854
1.969934
3.807545
20.968914
59.260726
171.180964
316.381454
595.402718
827.387571
1016.001701
1016.001701
1016.001701
1016.001701
878.921747
651.310682
374.817848
223.323703
96.768737
43.327808
12.123585
5.726814
4.343987
4.560947
4.391670
4.491806
4.777908
4.762411
4.577637
4.418492
4.333854
3.924966
3.953576
4.186630
4.448891
5.631447
7.430911
11.021495
##END
