##TITLE=14-1
##FORMAT=SPECTACLE-ASCII V-1.2
##DATA TYPE=ULTRAVIOLET SPECTRUM
##SECOND TYPE=ULTRAVIOLET SPECTRUM
##DATE=04/04/18
##TIME=11:08:32
##SPECTROMETER/DATA SYSTEM=SPECTACLE
##XUNITS=NM EM
##YUNITS=ENERGY
##YFACTOR=1
##FIRSTX=220
##LASTX=450
##NPOINTS=116
##3DDATA=Equidistant
##ZUNITS=NM EX
##FIRSTZ=210
##LASTZ=400
##ZPOINTS=39
##XYDATA=(Y..Y)
##ZVALUE=210
17.014742
17.107725
13.403893
11.749864
9.515882
9.889603
8.210540
7.681847
6.588697
5.399585
4.277825
3.724694
2.634525
2.911687
2.861619
2.774596
2.786517
3.201962
3.010631
3.605485
3.993511
3.214478
4.137754
4.069805
5.195737
5.516410
6.827712
7.287860
7.703900
8.144975
8.777976
8.408427
9.758472
9.693503
9.473562
9.786487
10.014772
8.838773
9.920597
8.553863
8.882880
8.264780
8.987784
8.648634
8.928776
8.791685
8.812547
8.088946
8.830428
8.876920
8.448958
8.201599
8.009672
8.765459
9.475946
8.905530
7.686615
7.945895
7.552505
8.123517
7.311702
8.757710
8.365512
7.660985
8.420944
8.744597
8.320808
9.671450
8.979440
11.878610
12.518764
14.086962
15.950799
19.561648
18.577576
19.456744
18.620491
18.750429
17.525554
16.675591
16.989708
15.241504
13.701916
10.351539
10.321736
8.499622
7.319450
7.593632
8.173585
8.768439
10.811687
14.018416
17.421842
23.579597
27.953982
35.747886
39.781928
49.103498
56.159496
56.944489
60.313940
61.048865
65.645576
62.541962
58.223605
55.256486
53.566694
48.455596
38.338900
35.971999
29.276609
24.188757
19.402504
15.416741
13.788939
13.742447
##ZVALUE=215
50.501823
48.072934
39.225817
28.960705
24.759769
17.661452
16.595721
14.669895
16.322732
13.765693
12.156963
9.353757
8.337498
5.212426
4.950762
3.805757
2.996922
3.950596
4.070997
3.534555
3.866553
4.061460
3.832579
4.784465
5.948544
6.223917
7.320642
7.176995
7.724762
8.602738
8.715987
9.314418
9.250641
11.435747
9.808540
10.789633
11.273623
10.420680
9.965897
9.221435
10.352731
9.765625
9.580851
9.659529
9.638667
9.805560
9.332895
8.600950
9.755492
9.096861
10.223985
9.556413
10.165572
9.683967
10.222793
9.233952
8.599758
9.284616
10.774732
8.847713
8.671880
8.969903
8.015633
8.338690
9.129643
8.557439
9.585619
9.143949
12.076497
12.524724
12.945533
14.662743
15.731454
17.321706
19.015670
19.008517
18.280745
19.648671
18.096566
15.155673
15.872717
14.969707
13.547540
11.421442
10.488629
9.495616
8.474588
7.709861
7.034540
6.572604
7.287860
6.157756
7.656813
8.578897
11.683702
12.745857
17.543435
23.143888
33.720732
39.499998
49.927831
57.535768
72.001815
78.294873
87.238550
89.155436
92.420578
93.638897
90.961456
87.382793
81.980824
75.456500
68.990588
58.869720
47.580600
37.718415
##ZVALUE=220
109.782815
109.350681
98.119974
89.585781
75.463653
58.309436
39.708614
34.216642
27.001500
25.836825
25.160909
23.803711
22.345781
17.561913
14.350414
10.674000
8.539557
6.153584
5.204678
4.211664
4.546642
4.481673
5.064607
4.707575
5.289912
5.309582
5.902648
6.465912
7.313490
8.380413
8.403659
9.311438
9.291768
9.018779
10.373592
10.910630
8.919835
10.952950
9.263754
10.253787
10.318756
9.882450
11.001825
10.947585
12.148619
11.425614
11.329651
11.357665
10.943413
10.649562
11.427999
11.059642
11.495948
10.378957
10.661483
11.854768
11.518598
10.530949
10.520816
11.200905
10.599494
10.637641
10.667443
11.442900
9.655952
9.905696
10.306835
11.117458
11.008978
12.246966
12.833476
13.626814
15.647411
17.221570
19.246936
17.350912
19.387603
18.478632
17.254949
16.991496
15.803576
14.651418
13.691783
12.332797
10.701418
10.867715
9.098649
7.612705
8.161664
6.429553
8.026958
6.413460
6.616712
6.246567
6.657839
5.991459
6.815791
8.160472
8.283854
11.545420
16.454458
23.524761
33.634901
49.762726
53.993464
72.975755
83.996654
102.431774
113.004446
126.084685
137.574673
144.309998
140.008926
139.607787
139.681697
134.835839
##ZVALUE=225
134.407878
136.882663
163.986683
177.925825
183.426738
168.368816
136.819482
103.337765
76.705813
53.171515
43.874979
38.452744
39.273500
38.560629
35.684705
33.024549
25.900602
20.737648
16.336441
10.834932
7.658601
5.774498
4.970431
4.460812
5.698800
6.155968
6.053448
5.623698
6.299615
7.134676
7.878542
8.290410
8.275509
9.608865
8.865595
10.952950
10.200739
10.821819
10.319948
11.418462
11.612773
12.123585
13.357997
12.207627
11.308789
12.287498
11.625886
12.929440
13.445616
13.198853
13.656616
13.393760
13.082623
12.585521
13.038516
13.039708
12.643933
13.116598
12.311935
12.163520
12.884736
11.367798
12.243986
10.823607
12.020469
11.981726
11.812449
11.485815
12.911558
13.688803
14.908910
15.630722
16.909838
18.185973
18.037558
17.300844
18.333793
17.559528
15.683770
15.573502
14.645457
14.417768
11.621714
13.010502
10.612607
10.501742
8.461475
8.344650
7.812977
7.975698
8.444786
6.765723
7.406473
7.234812
7.538795
7.427931
6.891489
6.978512
6.890893
7.298589
7.712841
8.366704
7.583499
11.092424
15.967488
24.321675
38.449764
52.194595
63.706636
83.665848
104.074478
128.734708
146.158934
173.431635
188.492537
209.202766
##ZVALUE=230
90.648532
99.353790
155.419707
206.431746
256.394744
299.942493
309.258699
289.364457
248.582959
189.648867
140.769482
89.285970
69.417953
59.576631
59.172511
58.152676
60.457587
56.462884
51.610470
39.192438
28.877854
19.771457
12.552738
9.507537
7.973909
6.234646
5.269647
6.665587
6.830692
6.918907
7.260442
7.384419
7.600784
8.378625
8.802414
9.812713
10.644794
10.370612
11.949539
10.936856
12.111664
12.701750
13.174415
13.473630
12.805462
13.119578
14.469624
13.807416
13.159513
13.818741
12.911558
13.409853
13.274550
13.219714
14.153719
12.460947
13.948679
13.302565
12.471676
12.290478
11.593699
12.512803
11.431575
12.684464
13.141632
11.872649
11.489987
13.095737
13.880730
15.173554
15.535951
15.830994
18.122792
19.024611
17.624497
18.232465
18.974543
18.444657
17.357469
17.522573
15.928745
13.796687
12.947917
11.931658
11.749864
10.551810
9.904504
10.268688
10.606647
9.788871
9.120703
9.828806
8.821487
8.388758
8.996725
8.732677
8.163452
8.091927
9.047985
9.706616
8.657575
9.038448
9.203553
8.676648
8.069873
8.718967
8.286834
10.716915
13.173819
17.324686
24.810433
39.160848
56.197643
86.659789
110.134482
149.607658
##ZVALUE=235
26.687980
30.281544
71.628690
124.278665
189.990997
301.697850
380.951762
474.697948
498.825908
490.975976
427.739620
331.912637
238.102674
152.160525
115.548968
89.605451
82.688928
87.037683
85.666776
87.731481
79.108477
65.775514
53.076744
35.291910
26.083589
15.679598
12.418628
9.265542
8.293986
8.191466
7.360578
7.257462
8.569956
9.567738
9.424686
10.778904
10.032654
10.755658
11.309981
10.767579
13.033748
13.591647
13.582706
13.125539
14.264584
13.067722
13.554692
13.228655
14.469624
13.158917
13.894439
14.634728
12.659431
13.803840
13.246536
13.325810
13.541579
12.176633
13.103485
13.916492
13.148785
12.510419
12.144446
12.449622
13.021827
13.656616
12.368560
12.893677
13.619661
13.970733
16.753674
17.066598
18.852949
20.164847
19.048452
20.881891
18.932819
18.789768
18.282533
16.893744
15.647411
14.051795
14.387965
12.641549
12.311935
11.653900
10.886788
11.148453
11.176467
10.596514
10.265708
9.708405
10.275841
8.927584
9.255409
9.444952
9.436607
9.771585
10.252595
9.243488
8.540750
9.672642
9.279847
10.044575
10.610819
10.030866
9.048581
11.160970
9.860992
10.382533
10.284781
9.343624
10.855794
14.069676
19.827485
34.385920
##ZVALUE=240
2.581477
2.674460
8.911490
27.997494
59.821606
137.700438
235.667825
399.258733
525.643826
656.647682
722.433925
717.945695
653.021932
518.260598
400.382876
251.219869
178.341866
122.789741
105.072856
108.522773
112.991929
120.380521
117.837787
104.316473
86.223483
62.118769
48.068762
35.290718
23.451447
15.655756
10.813475
10.713935
10.811687
9.758472
9.966493
11.363626
10.750890
11.946559
12.709498
13.991594
12.382865
12.329817
13.624430
13.780594
13.676882
14.420748
13.145804
13.394952
15.368462
13.780594
13.340712
14.270544
15.112758
15.047789
13.051629
12.641549
13.003945
11.860728
12.669563
10.651946
12.040734
12.301803
14.465451
11.860728
12.384653
12.930632
12.823939
15.208721
14.373660
13.862848
16.173720
17.895699
17.896891
19.551516
20.218492
20.982623
19.973516
18.622875
17.556548
18.354654
15.214682
15.749931
14.160872
12.717843
13.332963
12.262464
11.618733
11.188984
11.111498
10.966659
10.048747
10.608435
10.748506
12.031794
10.874867
10.677576
9.047985
10.759830
11.002421
11.150837
10.314584
12.167692
10.305643
10.730624
11.387467
10.523796
9.952784
11.468530
10.925531
9.915829
10.635853
10.501742
10.445714
9.985566
11.333823
10.466576
##ZVALUE=245
1.829863
2.458692
2.463460
1.892447
4.693866
19.701719
46.113729
119.586587
213.554502
388.740897
547.154546
729.404688
830.082893
882.861614
828.558803
700.618625
568.808913
390.496850
265.498757
154.853463
115.830898
104.596615
115.369558
131.146908
133.562684
127.383471
115.944743
99.233985
74.864626
57.004690
36.096573
26.067495
16.143918
12.595654
11.700988
10.207891
11.038780
10.931492
11.629462
11.765957
12.689829
12.247562
12.627840
12.297630
11.728406
12.503862
13.086796
12.038946
12.505651
12.339950
12.589693
11.675954
12.313724
11.790991
12.618899
12.771487
10.227561
11.556745
10.781884
11.570454
10.484457
10.735989
10.784864
11.372566
10.376573
11.879802
10.540485
11.946559
12.002587
13.505816
13.459921
14.626980
16.427636
16.765594
17.347932
17.473698
16.376972
15.339851
15.646815
13.243556
12.354851
12.233853
11.877418
10.946989
11.404753
10.330677
8.487701
10.080934
9.940863
9.689927
8.832812
9.144545
9.017587
9.370446
10.252595
9.567738
10.105968
9.164810
10.373592
9.508729
9.772778
10.587573
8.467436
8.654594
10.374784
9.399652
9.922981
10.523796
9.304881
9.550452
10.487437
9.481907
9.780526
10.102987
9.923577
9.516478
##ZVALUE=250
1.863837
1.737475
1.672506
1.474619
2.251863
2.260804
2.185702
12.630820
29.767752
89.460611
175.643563
356.065631
519.583821
749.501586
896.750689
1008.258462
1014.043689
914.473534
770.924091
539.323688
376.680493
207.250714
135.999918
102.521777
104.171634
124.043822
135.769844
143.038630
139.632821
125.892758
101.731420
83.969831
59.236884
40.641427
24.396777
17.911792
13.205409
12.107491
10.835528
11.274815
12.230873
12.032986
11.868477
12.627840
12.224913
11.409521
11.297464
11.706948
11.309981
12.108684
10.906458
10.970831
11.503696
10.834932
11.112690
9.796619
10.522604
10.457635
10.258555
10.651946
9.506941
9.620786
9.637475
9.727478
9.629726
9.360909
9.047985
8.678436
11.216998
10.856986
11.790991
12.851954
13.465881
14.362931
13.786554
14.182925
12.862682
12.640953
11.687875
11.506677
10.325909
9.576678
10.912418
8.570552
7.977486
8.320808
8.261800
8.179545
8.520484
8.414984
8.003712
7.376671
8.921623
7.891655
8.305907
8.025765
7.717609
8.112788
8.496642
8.335710
8.811951
8.519888
8.452535
9.899735
7.948875
8.132458
9.188652
9.214878
8.801818
8.820891
9.125471
9.077787
7.998943
8.485913
8.295774
7.494688
##ZVALUE=255
1.111627
1.400709
1.153946
1.438856
1.694560
1.707673
1.555681
2.176762
2.164841
6.918907
20.911694
71.006417
142.546892
304.205418
461.438894
703.666806
884.403586
1016.001701
1016.001701
1016.001701
937.024951
698.918700
500.239730
287.542939
176.597834
108.297467
96.502900
105.503798
127.842426
143.671632
150.436759
148.048997
130.295753
114.452839
84.252954
64.149499
40.879846
27.240515
18.459558
14.526844
12.529492
11.078715
11.813641
12.687445
12.288690
11.401772
12.061000
12.290478
12.722611
11.394620
12.085438
10.986924
11.201501
10.498762
10.721684
10.123849
9.853840
10.438561
10.203719
10.720491
8.258820
8.397698
10.069609
8.483529
8.733869
8.754730
9.016991
8.786917
9.342432
9.571910
10.308623
11.001825
11.312962
11.805892
12.082458
11.055470
11.065602
10.534525
10.730624
9.667873
8.469820
8.324981
9.029508
7.052422
7.881522
7.330775
7.094741
7.111430
6.534457
6.587505
7.225871
6.847978
6.377697
6.831884
6.352663
6.517768
6.416440
7.298589
7.363558
7.235408
7.246733
7.629991
7.324815
6.881952
6.881952
7.223487
7.867813
8.141994
7.579923
7.726550
7.342696
7.380843
7.350445
7.625818
7.536411
7.202625
##ZVALUE=260
1.221895
1.085997
1.254678
1.247525
1.385808
1.600981
1.275539
1.655817
1.834631
1.914501
1.894832
3.768802
9.826422
44.933558
97.696781
224.851966
376.319885
621.590018
834.792852
1016.001701
1016.001701
1016.001701
1016.001701
824.648738
605.973601
352.723598
226.242542
141.734481
89.028478
87.232590
109.593868
132.365823
149.975419
160.335898
151.949525
139.467716
112.498999
89.914799
60.938001
46.482682
30.609965
21.668673
15.697479
14.471412
12.987852
13.376474
13.166666
13.237000
12.990832
12.686849
12.342930
12.753606
12.629628
12.188554
11.544824
11.801720
10.453463
10.288954
10.261536
9.865761
9.320974
9.149909
8.908510
8.781552
8.467436
9.023547
8.441806
8.907914
8.763671
9.251833
9.578466
9.990931
10.167956
9.961724
9.426475
9.643435
9.520650
9.016991
8.764863
8.179545
7.687807
8.262992
7.328987
6.554723
6.745458
6.537437
6.268620
6.217957
6.315708
5.850792
5.822778
5.864501
5.666614
6.249547
5.644560
6.337762
6.556511
6.770492
6.266832
5.779862
6.042719
6.374717
6.844997
6.314516
6.381869
6.830692
7.092953
6.870627
6.627440
7.238984
6.578565
6.611943
6.990433
7.034540
6.590486
6.575584
##ZVALUE=265
1.275539
1.028776
1.037717
1.118779
1.223683
1.128912
1.258850
1.446605
1.419783
1.496673
1.699924
1.852512
1.980662
2.800822
6.042719
27.513504
68.441629
176.664591
313.846469
578.851700
807.327032
1016.001701
1016.001701
1016.001701
1016.001701
1008.592844
822.506547
523.863435
331.722498
196.421742
101.269484
77.295899
90.323687
111.176968
137.714744
157.932639
167.358518
157.813430
139.399767
118.060708
98.815560
65.244436
48.823953
30.629635
22.560954
16.939640
16.151667
15.252829
14.671683
15.270710
14.080405
14.224648
14.020801
13.084412
13.305545
12.953877
11.756420
11.412501
11.596680
11.362433
10.439754
10.287762
9.708405
9.683967
9.486675
8.929968
8.840561
8.558631
9.216666
8.826852
9.468794
9.917617
9.826422
9.324551
9.965897
9.990931
8.909702
8.603930
8.652806
7.922649
7.265806
6.941557
6.244779
6.962419
6.281734
6.279945
5.804896
6.068945
5.802512
5.963445
6.274581
5.748868
5.569458
5.747676
5.365610
5.590916
5.622506
5.663633
6.126761
5.884767
6.428957
5.983710
5.765557
6.388426
6.311536
6.423593
6.030798
6.390810
6.549954
6.407499
6.634593
6.279945
6.016493
6.793737
6.483793
6.153584
##ZVALUE=270
1.076460
0.968575
1.221895
0.949502
0.995994
1.244545
1.200438
1.231432
1.180768
1.203418
1.503825
1.387596
1.581907
1.654625
1.595616
2.276897
3.284812
13.014674
39.173961
127.744675
243.178010
495.171547
732.992887
1016.001701
1016.001701
1016.001701
1016.001701
1016.001701
981.720686
675.964952
461.703539
237.276554
138.479471
75.738430
69.719553
91.319680
113.931894
144.786835
159.440637
167.678595
162.116885
145.682693
124.696493
94.462633
71.717501
48.078895
35.156608
24.702549
19.624829
17.451644
16.509891
15.703440
15.331507
15.445948
14.646649
14.036894
14.082789
13.682842
12.481809
11.579990
11.373758
10.982752
10.455847
9.892583
9.627938
9.559989
9.350777
9.243488
9.106994
9.987950
9.143949
9.439588
9.632707
9.874701
9.272695
8.853674
8.938909
8.520484
7.784963
7.179976
7.200837
6.682873
6.678700
6.370544
6.289482
5.957484
5.783439
5.650520
5.440712
5.913973
5.285740
5.622506
5.666614
5.478859
5.694628
5.474687
5.870461
5.729795
5.622506
5.528927
5.252957
5.800724
6.030798
5.401969
5.770922
6.221533
5.747676
5.882978
5.679727
5.951524
5.746484
6.039739
6.086826
5.927682
6.220937
6.319880
##ZVALUE=275
0.823736
1.069903
1.196861
0.939965
0.990629
1.047850
1.127720
1.068711
1.055598
1.100898
1.130700
1.052618
1.250505
1.349449
1.489520
1.554489
1.725554
1.849532
2.145767
6.430745
23.855567
89.284778
190.480947
414.247513
642.670989
975.683928
1016.001701
1016.001701
1016.001701
1016.001701
1016.001701
911.900997
582.344532
362.424850
168.032646
96.297860
59.342980
65.031648
92.169642
114.046931
137.718916
160.194635
167.695880
161.275864
148.331523
119.740963
98.317862
70.810914
52.217841
38.892627
26.605725
20.565987
17.329454
16.724467
15.879869
14.354587
14.302731
13.765693
13.089776
13.312697
12.315512
11.994839
11.254549
10.841489
11.040568
10.578632
9.684563
9.592772
9.348989
9.677410
9.741783
10.110736
9.456873
9.187460
9.547472
9.339452
8.939505
8.846521
7.895827
7.940531
6.994605
6.430745
6.317496
5.968809
6.014705
6.035566
5.489588
6.179810
5.370975
5.403757
5.365610
5.496740
5.419850
5.177855
5.432963
5.591512
4.838705
5.822778
5.362630
5.211830
5.598664
5.723834
5.401969
5.416870
5.901456
5.505681
5.827546
5.650520
6.164908
5.895495
5.550981
6.200671
5.866885
5.719662
5.741715
5.224943
##ZVALUE=280
0.885725
1.071692
0.839829
0.841618
0.936985
1.034737
0.886917
1.069903
0.968575
0.958443
1.039505
0.984669
1.074672
1.126528
1.270771
1.374483
1.451969
1.648664
1.701713
1.941919
2.069473
3.568530
12.955666
60.531497
139.535666
323.559046
518.601537
842.849016
1016.001701
1016.001701
1016.001701
1016.001701
1016.001701
1015.234590
715.437531
478.390455
244.532824
131.809711
62.030554
51.081777
65.685511
87.320805
117.000937
137.256980
158.069730
163.763762
156.994462
143.614411
116.748810
94.337463
66.394806
50.246716
32.535791
23.918748
17.597675
14.016628
13.714433
12.768507
12.110472
12.299418
11.895895
11.387467
10.521412
10.675788
10.471940
9.898543
9.598732
9.453893
9.320974
8.999705
9.668469
9.617805
9.466410
9.349585
9.548664
9.252429
9.142756
8.134842
8.108616
7.292628
7.017851
6.547570
6.543994
5.920529
5.897880
5.647540
5.605817
5.980730
5.382895
5.413890
5.304813
5.394816
4.921556
5.221963
5.012751
5.096793
5.329847
5.342960
5.531907
5.098581
5.397797
5.049706
4.988909
5.944967
5.077720
5.260706
5.576611
5.598664
5.573630
5.688667
5.589724
5.597472
5.258918
5.575418
5.411506
5.357862
##ZVALUE=285
0.873804
0.766516
0.780821
1.106858
0.874996
0.960827
1.031756
0.651479
0.845790
0.807643
0.785589
0.820756
1.152754
1.025796
1.096725
1.151562
1.111627
1.333952
1.552701
1.575947
1.296997
1.639724
2.025962
2.170801
6.968975
24.363995
85.635781
182.732940
400.713682
625.837445
964.759588
1016.001701
1016.001701
1016.001701
1016.001701
1016.001701
896.949768
627.477765
336.531997
193.923712
83.726645
47.238469
43.171644
56.710839
83.602667
105.940700
132.218599
148.294568
155.991912
152.523518
135.391951
118.123889
90.247989
68.754554
43.474436
31.133890
19.629598
14.971495
11.877418
10.848641
10.498762
9.883642
9.318590
9.177923
9.223819
8.656979
8.872747
8.723736
8.683801
8.604527
8.841753
8.589625
9.171963
8.740425
8.977652
8.574724
8.277893
7.801652
7.241964
6.762743
7.061958
6.578565
5.731583
6.484985
6.017685
5.893707
5.918741
5.672574
5.287528
5.138516
5.373955
5.150437
5.480647
5.580783
5.132556
5.219579
5.120635
5.206466
4.824996
5.205870
5.193949
5.208850
5.074739
5.241632
5.111694
5.279779
5.156994
4.916787
5.004406
5.500913
5.083680
5.014539
5.421638
5.487800
5.587935
4.920959
##ZVALUE=290
0.784993
0.642538
0.833869
0.892878
0.893474
0.852942
0.767708
0.792742
0.740886
0.778437
0.840425
0.994802
0.851750
0.946522
1.064539
1.029968
1.155734
1.033545
1.328588
1.125932
1.389980
1.496673
1.564622
1.787543
1.884699
2.063513
3.049970
9.016991
43.904781
109.224916
266.574621
454.791784
793.783665
1016.001701
1016.001701
1016.001701
1016.001701
1016.001701
1013.122797
786.799788
459.730625
271.475911
114.224553
54.707527
30.381680
36.217570
53.757429
72.527528
102.167726
120.716691
141.989589
147.294998
143.490434
131.430626
108.656883
88.460445
60.222745
42.901635
27.149916
19.102693
12.723804
9.533763
8.332729
8.314848
7.686615
7.530451
7.683635
7.754564
7.713437
7.711649
8.077621
8.113980
8.719563
8.242726
8.141994
7.799864
7.668734
7.348657
6.746650
6.789565
6.633997
6.038547
5.934834
6.207824
6.059408
5.617738
5.661845
5.601645
5.265474
5.246997
5.093813
5.195737
5.375743
5.145669
5.127788
5.158782
4.926920
4.991889
5.018711
5.266666
5.307794
5.037785
4.846454
5.067587
5.027652
4.664660
5.252957
5.366802
5.178452
5.389452
5.405545
5.421638
4.910827
5.229712
5.188584
4.982948
##ZVALUE=295
0.601411
0.802875
0.761747
0.712872
0.873804
0.888705
0.722408
0.943542
0.932813
0.933409
0.940561
0.752807
0.646710
0.930429
0.908971
1.051426
1.065731
0.879765
0.868440
1.168847
1.105666
1.208782
1.322627
1.433492
1.557469
1.743436
1.858473
1.849532
2.165437
3.903508
24.238825
67.513585
189.930797
359.249711
684.254766
955.522656
1016.001701
1016.001701
1016.001701
1016.001701
1016.001701
938.481688
648.355484
338.720679
183.460712
65.323710
30.824542
24.040937
30.775666
43.789744
68.083405
89.375973
116.062760
130.221844
139.787793
136.275887
123.496652
106.411576
79.211593
62.522888
39.207935
27.297735
16.906857
11.886954
8.035898
7.389784
7.098913
6.924868
7.011890
7.428527
7.288456
7.593632
7.470846
7.320642
7.519722
7.269979
7.031560
7.279515
6.293654
6.288886
6.220937
6.275773
6.006956
5.829930
5.754828
5.693436
5.578995
5.397797
5.348921
5.410910
5.311966
5.288720
4.904866
5.425811
5.139709
5.079508
5.219579
5.377531
5.051494
5.009770
5.229712
5.099773
5.441904
5.011559
4.770756
5.155802
5.365610
5.002618
4.968643
5.501509
5.067587
5.002618
4.880428
5.024672
4.936457
5.013943
##ZVALUE=300
0.684857
0.633597
0.634789
0.815988
0.654459
0.666976
0.602603
0.716448
0.764728
0.835657
0.548959
0.683665
0.647902
0.588894
0.688434
0.774860
0.760555
0.898838
0.946522
1.223683
1.093745
0.979900
1.071692
1.138449
1.223683
1.409650
1.589656
1.495481
1.669526
1.680851
2.106428
2.750754
10.899901
37.984848
128.690600
255.825520
521.289706
790.301561
1016.001701
1016.001701
1016.001701
1016.001701
1016.001701
1016.001701
759.639740
496.411920
250.959992
130.504966
44.113994
21.204948
20.104647
26.919842
43.318868
61.005950
85.788965
104.411840
123.551488
129.880905
130.135417
119.706988
99.826455
81.053972
58.344007
42.156577
24.893880
16.987920
10.744929
8.027554
7.103682
6.788969
6.697774
7.016659
6.953478
7.133484
7.002950
7.187724
6.759763
6.501675
6.411672
5.982518
5.965829
5.895495
5.670786
5.620718
5.845428
5.337596
5.452633
5.204678
4.953742
5.083680
4.907846
5.007982
4.970431
4.900694
5.153418
5.135536
4.966855
4.973412
5.082488
4.924536
5.054474
5.198717
5.124807
4.700422
5.388856
5.035996
4.892945
5.064607
4.887581
5.178452
5.374551
5.346537
4.837513
5.253553
4.961491
4.843473
##ZVALUE=305
0.549555
0.478625
0.522733
0.561476
0.819564
0.637770
0.725985
0.634789
0.738502
0.781417
0.766516
0.798702
0.653863
0.756979
0.874996
0.731945
0.643730
0.655651
0.803471
0.789762
1.005530
1.027584
1.128912
1.118779
1.052618
1.060963
1.189709
1.234412
1.403689
1.156926
1.702905
1.969934
1.880527
2.083778
5.597472
20.678639
85.645914
187.469721
417.655706
655.729771
936.800838
1016.001701
1016.001701
1016.001701
1016.001701
1016.001701
931.859612
599.292517
369.211435
203.054547
74.119568
31.090975
14.759898
16.677976
26.825666
38.699508
60.057640
78.320503
101.554990
114.561915
123.113990
124.140978
112.020969
99.180937
74.889660
56.658983
37.976503
25.613904
14.408827
10.760427
8.127689
7.199645
6.833673
6.862879
6.833673
6.242990
6.144643
6.094575
5.837679
5.704761
5.617738
5.709529
5.620718
5.620718
5.556941
5.630851
5.527735
5.611777
5.365610
5.301833
5.079508
5.001426
4.962683
5.212426
5.245805
4.894733
4.976988
5.175471
5.223751
5.070567
4.948974
5.338788
5.176663
5.120635
5.261898
4.773736
5.186796
5.038977
5.204678
5.348921
5.152822
5.118847
4.935861
4.964471
4.984736
5.230904
##ZVALUE=310
0.567436
0.569820
0.538826
0.507832
0.564456
0.511408
0.604987
0.626445
0.534654
0.653863
0.668764
0.743866
0.629425
0.695586
0.683665
0.728965
0.801682
0.735521
0.503659
0.754595
0.747442
1.009703
0.812411
0.937581
1.005530
1.065731
1.133680
1.121759
1.113415
1.193881
1.289845
1.342893
1.527667
1.770854
1.910925
2.082586
2.464652
8.897781
45.805573
110.639930
275.126696
469.852686
816.913843
1016.001701
1016.001701
1016.001701
1016.001701
1016.001701
1016.001701
812.410712
474.070907
287.978649
122.028589
55.508614
17.884970
11.847615
15.736818
21.225810
34.854412
49.204826
71.140528
89.502931
107.451677
114.516616
116.101503
108.777881
93.411803
76.871514
53.574443
38.744807
23.602843
16.465783
10.581613
8.329749
6.788969
6.118417
6.001592
5.953908
5.712509
5.461574
5.465746
5.305409
5.105734
5.484819
5.349517
5.369782
5.551577
5.144477
5.384684
5.341768
5.007982
4.651546
5.030632
4.994869
5.277991
4.947782
4.793406
4.951954
4.962683
5.183816
4.955530
5.164742
5.163550
5.359650
4.875660
4.930496
5.163550
5.003810
5.059838
5.288720
5.207658
5.224943
5.156994
5.346537
5.058646
4.862547
##ZVALUE=315
0.567436
0.698566
0.510812
0.506639
0.649691
0.547767
0.508428
0.577569
0.448823
0.500679
0.646710
0.570416
0.572801
0.483990
0.750422
0.567436
0.758767
0.569820
0.601411
0.705719
0.597835
0.734925
0.778437
0.719428
0.878572
0.984669
1.046658
0.900626
1.096725
1.044869
0.929832
1.029968
1.099706
1.266599
1.444817
1.510978
1.739860
1.663566
2.238750
3.869534
22.706985
64.672828
193.314552
357.000828
680.762529
965.860486
1016.001701
1016.001701
1016.001701
1016.001701
1016.001701
910.413861
565.751791
351.972580
162.692666
76.834559
22.247434
11.396408
10.783672
13.741851
21.513700
31.155944
48.802495
65.233707
86.226463
99.661946
109.016895
111.256838
100.878477
88.774562
67.881942
53.974986
35.876632
25.469661
15.347600
10.741949
7.587671
6.315708
5.852580
5.479455
5.208850
5.215406
5.137920
5.152822
4.997849
4.902482
5.306602
5.150437
5.058646
5.400777
5.391836
5.301833
5.104542
5.353689
4.939437
4.886985
4.945993
5.068779
4.948974
4.909635
5.010962
5.124807
5.329847
5.019903
5.074739
5.312562
5.278587
5.412698
4.955530
5.296469
5.134940
5.084872
5.437732
5.035996
5.085468
5.038977
##ZVALUE=320
0.581741
0.581741
0.606775
0.591874
0.608563
0.443459
0.497699
0.532866
0.504851
0.458956
0.514984
0.505447
0.479817
0.605583
0.606775
0.577569
0.658631
0.589490
0.640750
0.773668
0.606775
0.721812
0.751615
0.655651
0.695586
0.794530
1.023412
0.849962
0.963807
0.758767
0.958443
0.948906
1.038909
1.202822
1.206994
1.144409
1.266599
1.515746
1.595616
1.892447
1.872778
2.559423
7.222891
42.390823
110.182762
292.823911
488.674641
814.775825
1016.001701
1016.001701
1016.001701
1016.001701
1016.001701
1016.001701
706.426501
461.458564
225.787759
114.623904
36.956668
15.684962
9.125471
9.591579
12.771487
17.821789
29.537678
41.666627
59.365630
76.024532
93.470812
101.985931
103.775859
98.155737
83.162785
69.006681
50.110817
37.134886
22.536516
15.168786
9.118915
6.812811
5.682707
5.404949
5.066991
5.069971
4.976988
4.908442
4.719496
4.774928
4.838705
4.816651
4.785657
4.960895
4.821420
5.151629
5.099773
4.924536
5.280972
5.108714
5.115867
4.823804
5.048513
4.887581
5.263686
5.195737
5.236864
5.263686
5.342960
5.246997
5.188584
5.363822
5.286932
5.249977
5.367994
5.380511
5.212426
5.014539
##ZVALUE=325
0.453591
0.445843
0.514984
0.421405
0.625849
0.526905
0.415444
0.515580
0.633597
0.493526
0.493526
0.635982
0.405908
0.517964
0.505447
0.546575
0.578761
0.733733
0.698566
0.585914
0.453591
0.602603
0.674725
0.679493
0.616908
0.730753
0.646710
0.721812
0.727773
0.807643
0.791550
0.923872
0.959635
0.943542
0.941753
1.018643
1.108646
1.379848
1.575947
1.453757
1.541972
1.823902
1.979470
2.346635
4.397631
27.770400
74.863434
197.551847
363.663435
608.371496
982.376933
1016.001701
1016.001701
1016.001701
1016.001701
1016.001701
835.089684
564.381480
287.402868
156.247616
57.700872
22.609830
9.452701
8.070469
9.177923
11.384487
18.277764
26.507974
42.748451
57.810545
75.829625
87.903738
96.949935
98.003745
91.066957
79.779625
61.626434
47.616959
31.108856
20.959973
12.732744
9.394884
6.700754
5.676746
4.991889
4.871488
4.886985
4.765987
4.960895
4.725456
4.583597
4.882812
4.652739
4.696846
5.066991
4.851818
4.990697
5.118847
5.097985
5.025864
4.952550
4.931688
5.111694
5.178452
5.114675
5.278587
5.212426
5.208850
5.366802
5.487800
5.328655
5.286932
4.952550
5.058646
5.010962
4.931688
##ZVALUE=330
0.504851
0.381470
0.441670
0.552535
0.431538
0.524521
0.468493
0.469685
0.397563
0.384450
0.498891
0.591874
0.536442
0.454783
0.697970
0.593662
0.573993
0.544786
0.689626
0.562668
0.615716
0.653863
0.631809
0.671744
0.684857
0.765920
0.647902
0.687838
0.719428
0.705719
0.838637
0.677705
0.937581
0.850558
0.839829
0.788569
1.002550
0.980496
1.108646
1.143813
1.416802
1.313686
1.389980
1.431704
1.789927
1.963973
2.731681
9.402633
47.493577
116.325021
287.856460
484.152436
833.232999
1016.001701
1016.001701
1016.001701
1016.001701
1016.001701
979.081988
721.059442
400.025845
221.316814
84.162951
36.802888
11.516809
7.829666
7.604957
8.061528
11.425614
16.591549
27.050972
37.721992
54.796934
68.269968
82.334876
89.149475
89.274645
84.601641
70.422888
58.051944
42.051673
31.013489
19.295812
13.982654
8.796453
6.857514
5.429983
4.945993
4.784465
4.735589
4.499555
4.521608
4.715919
4.567504
4.781485
4.750490
4.853606
4.853606
4.769564
4.745722
4.826784
4.937649
5.228519
5.135536
5.223751
5.523562
5.241632
5.237460
5.262494
5.298853
5.321503
5.305409
5.355477
5.168915
4.929900
4.803538
##ZVALUE=335
0.299811
0.456572
0.276566
0.427961
0.449419
0.384450
0.427961
0.537634
0.559688
0.425577
0.592470
0.516772
0.443459
0.428557
0.470877
0.388622
0.454783
0.530481
0.564456
0.581741
0.455976
0.460744
0.563860
0.646710
0.652671
0.578761
0.628829
0.576973
0.660419
0.781417
0.743866
0.790954
0.775456
0.717640
0.725985
0.730753
0.879765
1.066923
0.941753
0.944734
0.968575
1.297593
1.224875
1.138449
1.465678
1.394749
1.756549
1.883507
2.111793
4.234910
24.333596
67.988634
196.296573
356.636643
661.325455
945.925713
1016.001701
1016.001701
1016.001701
1016.001701
1016.001701
835.441947
497.177839
305.305719
135.470629
62.666535
17.993450
8.591413
7.093549
7.057786
8.118749
10.025501
16.176701
23.029447
36.357641
48.130751
64.522624
75.837970
84.443688
85.361004
77.767968
68.206787
54.465532
43.489933
30.023456
21.534562
13.678670
9.499788
6.743670
5.447865
4.785657
4.778504
4.615784
4.631877
4.330873
4.347563
4.486442
4.718900
4.890561
4.436970
4.876852
4.914999
4.922748
5.136728
5.038977
5.041957
5.183816
5.166531
5.019903
5.079508
5.440712
5.121827
4.995465
4.994869
4.699826
4.666448
##ZVALUE=340
0.451803
0.367761
0.280738
0.462532
0.479817
0.524521
0.360608
0.459552
0.337958
0.439882
0.460744
0.320673
0.450611
0.484586
0.707507
0.484586
0.548959
0.598431
0.476837
0.520945
0.375509
0.534654
0.454783
0.462532
0.561476
0.498891
0.593662
0.518560
0.578761
0.665784
0.699759
0.759959
0.682473
0.802875
0.719428
0.680685
0.780821
0.719428
0.779629
0.834465
0.890493
0.854731
1.079440
0.940561
1.157522
1.303554
1.247525
1.317859
1.314878
1.792908
1.943707
2.292991
12.361407
40.016770
131.455660
264.575481
546.273589
790.909529
1016.001701
1016.001701
1016.001701
1016.001701
1016.001701
929.417014
590.638518
371.363759
171.803832
84.432960
24.226904
9.737611
7.003546
6.869435
6.927848
7.424951
10.173917
13.874769
23.260713
33.138990
48.353672
59.270859
71.622729
77.690482
78.651905
74.652433
64.643621
54.203868
39.615631
30.058622
19.539595
13.897419
9.037852
6.652474
5.237460
4.846454
4.519820
4.686713
4.764795
4.599690
4.330873
4.501939
4.596710
4.710555
4.569888
4.825592
4.890561
4.999638
5.001426
5.199909
5.226731
5.213618
5.089641
5.204678
5.203485
4.987717
5.053878
4.959702
##ZVALUE=345
0.334978
0.348687
0.370741
0.239611
0.445843
0.326633
0.413656
0.386834
0.268817
0.407696
0.409484
0.436902
0.448823
0.301600
0.412464
0.541806
0.393987
0.392795
0.565648
0.618696
0.546575
0.498891
0.473857
0.448823
0.453591
0.481606
0.500679
0.595450
0.520945
0.488758
0.489950
0.552535
0.569820
0.655651
0.690818
0.615716
0.833869
0.733733
0.785589
0.643730
0.801682
0.811815
0.791550
1.007915
0.920892
0.973940
0.942945
1.159906
1.213551
1.268983
1.519918
1.397729
1.846552
1.842976
5.175471
20.526648
87.683797
181.628466
393.091440
613.022447
958.347917
1016.001701
1016.001701
1016.001701
1016.001701
1004.408598
697.079897
459.793806
214.086771
105.912685
34.376979
14.349818
7.660985
6.666780
6.331801
6.233454
6.761551
8.500814
13.704896
20.306706
30.799508
42.569637
54.826736
63.712001
70.798993
73.276758
69.822669
63.496828
51.214695
40.842891
27.946830
19.930601
13.063550
9.452701
6.827712
5.706549
5.167723
4.703999
4.586577
4.755855
4.808903
4.639626
5.048513
4.726648
4.670620
4.619956
4.778504
5.156994
4.897714
5.403757
4.975796
5.004406
5.047917
4.943609
4.853606
4.773736
##ZVALUE=350
0.326633
0.066757
0.445843
0.269413
0.451803
0.404716
0.466704
0.407696
0.494719
0.483990
0.341535
0.456572
0.475645
0.291467
0.390410
0.458956
0.398755
0.396967
0.381470
0.472665
0.409484
0.438690
0.427961
0.535846
0.438690
0.607967
0.550747
0.497699
0.603795
0.554919
0.612736
0.531673
0.623465
0.686646
0.703931
0.750422
0.744462
0.548959
0.571609
0.767708
0.813603
0.724792
0.732541
0.697970
0.739694
0.759959
0.979900
1.078844
1.001954
0.908971
1.101494
1.179576
1.286864
1.313686
1.453757
1.739860
3.160834
10.715723
49.988627
114.885569
285.764933
475.433469
798.394680
1008.288860
1016.001701
1016.001701
1016.001701
1016.001701
764.088035
523.458719
276.854634
146.264434
50.293803
19.557476
7.846951
6.372929
5.606413
5.555749
5.274415
6.014705
8.408427
12.078881
18.760562
25.741458
37.565827
47.437549
58.036447
63.931942
66.932440
65.071583
58.044791
50.164461
37.193894
28.972626
19.582510
14.226437
9.595752
7.431507
5.962849
5.163550
5.105734
4.651546
4.721880
4.694462
4.503727
5.004406
4.928708
5.010962
4.977584
4.835725
4.791617
4.563928
4.729629
4.499555
4.308820
4.459620
##ZVALUE=355
0.310540
0.369549
0.453591
0.396967
0.340939
0.240803
0.386834
0.399947
0.354648
0.436902
0.434518
0.394583
0.322461
0.378489
0.520945
0.404716
0.343919
0.493526
0.427961
0.487566
0.589490
0.393987
0.390410
0.496507
0.485778
0.424981
0.429749
0.425577
0.499487
0.730753
0.594854
0.607967
0.644922
0.452995
0.488758
0.602603
0.729561
0.588894
0.571609
0.606775
0.714660
0.636578
0.716448
0.655651
0.620484
0.836849
0.891685
0.864863
0.820756
0.935793
1.031756
0.964999
1.134872
1.237988
1.311898
1.374483
1.606941
1.631975
1.915693
4.734993
27.400851
74.059963
200.907588
359.655023
659.625530
901.022553
1016.001701
1016.001701
1016.001701
1016.001701
837.208033
611.679554
345.394611
192.011595
72.354674
30.190945
9.481907
6.237626
5.577803
5.056858
4.891753
4.953742
5.512834
7.020831
10.641813
14.994740
23.528934
31.339526
43.174624
50.604939
58.457851
61.170459
59.294701
54.803491
45.522451
38.074851
27.583838
20.986795
13.861656
10.410547
7.099509
5.957484
5.100965
5.051494
4.870892
4.921556
5.054474
4.903674
4.512668
4.895926
4.866719
4.679561
4.657507
4.506707
4.516840
4.334450
##ZVALUE=360
0.365973
0.379682
0.320673
0.383854
0.425577
0.339746
0.345707
0.354648
0.257492
0.346899
0.532866
0.511408
0.400543
0.358820
0.400543
0.207424
0.371933
0.444651
0.475645
0.473857
0.470877
0.445843
0.454783
0.403523
0.498891
0.426769
0.581741
0.444651
0.548959
0.602603
0.634789
0.567436
0.550747
0.665784
0.660419
0.647902
0.644922
0.689626
0.678897
0.626445
0.764728
0.619888
0.787973
0.652671
0.706911
0.749826
0.829697
0.680685
0.836849
1.007915
0.991821
1.176596
0.984669
1.045465
1.342893
1.084805
1.161695
1.347661
1.448989
1.572967
1.903772
2.934933
10.497570
48.579574
118.330717
294.139981
485.212803
787.354708
1004.350781
1016.001701
1016.001701
1016.001701
1001.586914
699.585676
463.190675
225.389600
115.928650
41.101575
15.588999
6.452799
5.488992
5.149841
4.785657
4.901886
4.728436
4.868507
5.956888
8.526444
12.173653
18.810630
26.125908
36.852956
43.991804
52.051544
55.820942
54.658651
52.722692
44.550896
37.742853
29.054880
22.609830
15.305877
11.432767
7.708669
6.553531
5.117655
4.850626
4.934669
4.648566
4.703999
4.636645
4.491806
4.669428
4.313588
4.436970
4.220605
##ZVALUE=365
0.452995
0.470877
0.275970
0.383854
0.280738
0.286698
0.474453
0.422597
0.374913
0.359416
0.516772
0.351667
0.478625
0.464916
0.471473
0.490546
0.499487
0.478625
0.551939
0.398755
0.508428
0.409484
0.294447
0.264645
0.509620
0.449419
0.517964
0.511408
0.611544
0.604987
0.508428
0.630617
0.638962
0.542998
0.643730
0.559688
0.652671
0.588894
0.670552
0.668764
0.620484
0.661612
0.702739
0.681877
0.709891
0.662804
0.743866
0.811815
0.936985
0.967979
0.921488
0.882745
0.804663
0.834465
0.901818
0.982881
0.987649
1.219511
1.145601
1.176000
1.548529
1.594424
1.925826
2.219677
5.595684
21.292567
83.234906
179.061890
410.971045
646.554828
965.865850
1016.001701
1016.001701
1016.001701
1016.001701
857.712626
550.153852
334.191918
146.718621
67.570806
19.438863
8.397698
5.722642
5.007982
5.247593
4.681945
4.174709
4.248619
4.349947
5.068779
7.221699
10.361671
16.070604
22.642612
31.644702
38.579702
46.193600
49.558878
51.221848
49.858689
44.011474
38.004518
29.590726
23.392439
16.337633
12.193918
8.523464
6.242990
5.590916
5.012751
4.773736
4.290938
4.417896
4.254580
4.144907
4.127622
##ZVALUE=370
0.343919
0.420809
0.349879
0.260472
0.409484
0.242591
0.359416
0.421405
0.395775
0.286698
0.402927
0.447631
0.466704
0.466704
0.404716
0.367761
0.336766
0.456572
0.621676
0.515580
0.475645
0.454783
0.248551
0.318885
0.444651
0.487566
0.469685
0.303984
0.555515
0.470877
0.656843
0.550747
0.449419
0.623465
0.562668
0.518560
0.588894
0.514984
0.555515
0.517964
0.576973
0.676513
0.503659
0.613928
0.666976
0.711679
0.721812
0.616908
0.732541
0.766516
0.721812
0.888705
0.778437
0.816584
0.851750
0.866652
1.014471
0.982881
1.071692
1.095533
1.160502
1.050830
1.261830
1.499653
1.516938
1.836419
3.166795
10.801554
57.547688
139.626861
328.223705
520.380735
822.669864
1016.001701
1016.001701
1016.001701
1016.001701
930.833817
611.364841
399.186015
196.879506
98.023415
33.248663
13.062954
5.393624
4.865527
4.308820
4.237890
3.948808
3.846884
3.834963
4.345775
4.947782
6.436706
9.638667
13.323426
19.935966
26.368499
34.621954
40.598512
46.661496
48.463941
46.681762
43.843985
36.742687
29.081702
22.893548
16.284585
12.491941
8.903742
6.986856
5.447865
4.930496
4.085898
4.149675
3.732443
##ZVALUE=375
0.335574
0.283718
0.403523
0.386834
0.492930
0.411868
0.362992
0.417829
0.300407
0.433922
0.337958
0.422597
0.320673
0.443459
0.575781
0.275970
0.378489
0.534654
0.236630
0.257492
0.437498
0.392795
0.412464
0.369549
0.296831
0.401735
0.416636
0.367761
0.448823
0.494719
0.437498
0.403523
0.410676
0.639558
0.601411
0.479817
0.594854
0.624657
0.567436
0.650883
0.610948
0.665784
0.715852
0.294447
0.531673
0.605583
0.609756
0.641942
0.664592
0.813603
0.705719
0.688434
0.667572
0.675917
0.660419
0.825524
0.720620
0.666976
1.009703
0.907779
0.728965
0.908971
1.120567
1.023412
1.140833
1.202822
1.497865
1.502633
2.230406
5.701780
32.827854
84.091425
221.154690
393.751860
694.931746
933.586955
1016.001701
1016.001701
1016.001701
1016.001701
765.742660
529.770851
283.672810
160.355568
61.357617
25.263429
7.440448
5.055666
4.669428
4.146695
4.139543
4.179478
4.092455
3.960729
4.050732
4.666448
5.761981
7.470846
11.663437
16.048551
23.877621
30.137897
37.466884
42.453408
45.266747
45.401454
42.715669
37.125945
32.098889
24.818778
19.937754
13.986826
10.476708
7.319450
5.762577
4.654527
##ZVALUE=380
0.280738
0.394583
0.332594
0.249743
0.327826
0.304580
0.249743
0.382662
0.223517
0.418425
0.327826
0.306964
0.393987
0.237823
0.175834
0.432730
0.355840
0.388622
0.239611
0.421405
0.299811
0.436902
0.303984
0.305772
0.378489
0.519753
0.350475
0.478625
0.496507
0.563860
0.535846
0.571609
0.513792
0.536442
0.703931
0.557899
0.605583
0.661612
0.558496
0.403523
0.605583
0.684857
0.559688
0.563860
0.544786
0.569820
0.677705
0.630617
0.711679
0.610948
0.679493
0.640750
0.671744
0.820756
0.689626
0.813603
0.818968
0.576973
0.788569
0.758767
0.821948
0.637770
0.791550
1.062751
0.871420
1.122952
1.349449
1.313686
1.586676
1.819730
2.161860
3.201962
17.728806
55.288672
161.851645
304.612517
587.148666
838.032961
1016.001701
1016.001701
1016.001701
1016.001701
876.157880
649.651885
372.730494
216.368437
88.121891
39.186478
11.105537
5.514622
4.774928
4.276633
4.584789
4.295707
4.056692
4.005432
3.938675
4.080534
4.202724
4.776716
6.987453
9.564757
15.238523
20.135641
27.906895
33.418536
39.810538
42.902827
43.153763
41.976571
36.967993
32.090545
25.055408
19.763708
13.940930
9.700656
##ZVALUE=385
0.291467
0.436902
0.569820
0.186563
0.099540
0.418425
0.396967
0.252724
0.146627
0.377893
0.164509
0.481606
0.254512
0.292659
0.193715
0.374913
0.343919
0.300407
0.267625
0.268817
0.346899
0.282526
0.344515
0.356436
0.478625
0.406504
0.468493
0.644922
0.411868
0.519753
0.551939
0.517964
0.703931
0.710487
0.524521
0.631809
0.754595
0.594854
0.657439
0.677705
0.579953
0.594854
0.625849
0.503659
0.656843
0.535846
0.699759
0.511408
0.590682
0.690818
0.569820
0.643730
0.601411
0.584722
0.655651
0.686646
0.785589
0.669956
0.604987
0.658631
0.754595
0.718832
0.898838
0.912547
0.966787
0.815988
0.876784
0.948906
1.271963
1.437664
1.690984
1.716614
1.929998
2.186894
7.316470
26.711822
101.743937
220.597982
471.213460
713.734031
1007.751822
1016.001701
1016.001701
1016.001701
1000.393629
804.392695
502.960682
315.105915
139.775872
67.206621
21.329522
8.119941
4.607439
4.291534
4.453659
4.402995
4.161596
3.920794
3.804564
3.616810
3.765821
3.600717
4.607439
5.604625
8.459687
11.645555
17.381907
24.253726
28.822422
34.742951
38.100481
40.168762
39.443970
36.094785
31.658411
25.861859
##ZVALUE=390
0.273585
0.340939
0.189543
0.352859
0.319481
0.253916
0.342727
0.338554
0.233650
0.172853
0.279546
0.399947
0.121593
0.194907
0.337958
0.225902
0.418425
0.360608
0.249743
0.302792
0.206828
0.293851
0.471473
0.415444
0.477433
0.523925
0.573993
0.532866
0.601411
0.618696
0.612736
0.681877
0.618696
0.670552
0.701547
0.674725
0.801682
0.702739
0.851750
0.745654
0.626445
0.516772
0.740886
0.539422
0.644922
0.782609
0.432730
0.815988
0.687838
0.708699
0.647902
0.747442
0.679493
0.709891
0.594854
0.745654
0.808835
0.726581
0.804663
0.836849
0.706911
0.590682
0.706911
0.737906
0.776649
0.791550
1.031756
1.104474
1.200438
1.386404
1.354814
1.530647
1.408458
1.649857
1.587868
1.911521
3.248453
18.910766
58.599710
182.505846
340.579748
637.139678
875.408649
1016.001701
1016.001701
1016.001701
1016.001701
932.889581
701.776743
399.650931
227.799416
91.222525
41.684508
12.276769
5.856752
4.500747
4.474521
4.163980
4.222989
4.026890
3.928542
3.845692
3.695488
3.797412
3.970861
4.451871
5.331635
7.281899
9.932518
14.912486
19.205809
25.921464
30.407906
35.662651
37.813783
37.708879
##ZVALUE=395
0.355840
0.340939
0.323653
0.264645
0.486970
0.367761
0.338554
0.184774
0.201464
0.312924
0.221729
0.333786
0.269413
0.303984
0.156760
0.233650
0.423789
0.286698
0.501871
0.373721
0.319481
0.402927
0.471473
0.430942
0.407696
0.494719
0.468493
0.472665
0.581741
0.530481
0.663996
0.794530
0.560880
0.737906
0.817776
0.699759
0.636578
0.618696
0.605583
0.695586
0.665784
0.702739
0.643730
0.599623
0.835657
0.810623
0.694990
0.831485
0.550747
0.629425
0.654459
0.553727
0.739694
0.654459
0.534654
0.593662
0.634789
0.700951
0.724792
0.726581
0.669956
0.887513
0.663996
0.801682
0.726581
0.823736
1.114607
1.041889
1.184940
1.171827
1.266599
1.276731
1.484752
1.301765
1.376867
1.503825
1.527667
1.612902
2.334714
8.160472
46.987534
116.272569
277.659893
465.814471
784.713030
1004.156470
1016.001701
1016.001701
1016.001701
1016.001701
795.423985
554.727912
286.426544
151.503682
55.304766
23.058653
7.249713
4.790425
4.443526
4.289746
4.289746
4.360676
4.327893
4.265904
4.091859
4.094839
4.157424
3.890991
4.158616
4.614592
6.206632
8.267760
12.417436
16.251802
22.354722
28.266907
##ZVALUE=400
0.486970
0.440478
0.453591
0.355840
0.260472
0.421405
0.404716
0.335574
0.431538
0.332594
0.360608
0.321865
0.174642
0.368953
0.407696
0.332594
0.278950
0.331998
0.244975
0.387430
0.297427
0.288486
0.439882
0.435710
0.396967
0.361800
0.409484
0.484586
0.356436
0.455976
0.502467
0.523925
0.661612
0.667572
0.647902
0.637770
0.785589
0.887513
0.828505
0.838637
0.713468
0.583529
0.842810
0.709891
0.584722
0.784993
0.682473
0.814795
0.687838
0.642538
0.675917
0.724792
0.631809
0.659823
0.695586
0.592470
0.575781
0.665784
0.633597
0.862479
0.736713
0.838637
0.668764
0.739694
0.690818
0.819564
0.857711
0.995994
1.084805
1.012683
1.169443
1.351833
1.294613
1.375675
1.228452
1.370907
1.367927
1.335740
1.387596
1.688600
1.836419
3.768802
22.461414
64.001679
186.568499
347.062945
652.813911
908.965468
1016.001701
1016.001701
1016.001701
1016.001701
889.282823
650.954843
381.968617
227.891803
97.357631
42.884946
12.065768
5.693436
4.136562
4.341602
4.500747
4.540682
4.687905
4.647970
4.449487
4.239678
4.145503
4.021525
3.833771
3.959537
4.181862
5.359650
7.027984
10.896921
##END
