##TITLE=2-1
##FORMAT=SPECTACLE-ASCII V-1.2
##DATA TYPE=ULTRAVIOLET SPECTRUM
##SECOND TYPE=ULTRAVIOLET SPECTRUM
##DATE=04/04/18
##TIME=14:48:04
##SPECTROMETER/DATA SYSTEM=SPECTACLE
##XUNITS=NM EM
##YUNITS=ENERGY
##YFACTOR=1
##FIRSTX=220
##LASTX=450
##NPOINTS=116
##3DDATA=Equidistant
##ZUNITS=NM EX
##FIRSTZ=210
##LASTZ=400
##ZPOINTS=39
##XYDATA=(Y..Y)
##ZVALUE=210
16.998649
16.900897
13.533831
11.347532
10.719895
9.901524
8.047819
8.617640
6.999969
5.277991
4.108548
3.088713
3.240705
2.903938
3.726482
3.109574
3.541708
3.649592
4.632473
3.740788
4.119873
4.246831
5.146861
5.429983
6.759763
6.869435
8.112788
8.737445
8.189678
10.254979
11.562705
11.539459
10.416508
11.146665
12.076497
10.896921
11.769533
12.111664
11.406541
13.415813
11.006594
11.712909
12.706518
12.374520
13.108850
13.218522
13.052821
12.126565
13.295412
12.141466
11.540651
12.588501
10.840893
12.608767
12.677908
11.159778
12.313724
11.974573
12.487769
12.899637
11.307597
10.363460
10.522604
12.448430
10.897517
11.354685
10.695457
10.826588
12.707710
14.493465
14.422536
17.570853
20.161867
21.371841
22.484660
23.326874
23.823977
21.459460
21.127462
20.613670
18.346906
16.339421
14.503598
13.581514
11.333823
9.519458
9.262562
8.886456
9.488463
10.838509
13.390779
16.619563
22.665858
27.152896
33.709407
40.659904
45.468807
52.788854
56.094527
60.609579
65.009594
67.865849
66.275597
63.765645
61.949492
57.229996
53.188801
47.226548
41.696429
35.211444
30.627847
23.527741
19.421577
16.201735
16.052723
14.280677
##ZVALUE=215
50.681829
48.845410
38.290620
30.649900
23.763776
18.888712
15.819669
14.515519
13.740659
13.306737
11.515617
9.035468
6.755590
4.851818
4.417896
4.424453
3.790855
3.798604
4.254580
4.031658
4.712939
4.112720
5.682707
6.124973
6.680489
8.411407
8.552670
8.775592
9.355545
9.943843
9.607673
11.543632
11.750460
13.911724
13.210773
13.306737
12.067556
13.009906
12.409687
13.303757
13.470650
13.354421
14.042854
14.961958
14.044642
14.486909
14.190674
15.666485
14.566779
15.109777
15.476942
15.151501
13.111830
15.274882
14.862418
13.900995
15.186667
14.800429
13.538599
14.426708
14.882684
13.789535
14.086962
13.527870
13.929605
13.646483
13.736486
15.523434
15.052557
16.915798
18.270612
18.758774
20.838976
23.169518
21.860600
22.398829
23.846626
21.733642
20.363927
20.882487
17.599463
17.092824
13.743639
13.294816
12.207627
9.851456
9.632707
8.546710
7.902980
7.967949
7.609725
7.459521
7.840991
9.313822
12.167692
15.387535
22.502542
27.540922
41.790605
49.018860
59.574842
67.850947
80.200434
87.548494
93.368888
100.252628
99.819899
97.280741
97.311735
93.674660
89.164972
79.192519
70.619583
59.208870
52.740574
39.414763
##ZVALUE=220
121.473670
120.862722
108.273625
103.567839
89.388490
66.325665
45.728683
33.029914
27.896762
24.568439
25.049448
21.570921
20.061731
16.982555
15.037656
11.314750
8.071661
5.845428
4.848838
4.848838
4.531741
5.625486
5.922914
6.155968
6.543994
6.625652
7.761717
7.684827
8.448958
9.698868
10.912418
11.254549
11.824965
11.768937
13.003945
13.693571
15.831590
15.789866
15.561581
15.384555
15.154481
15.855432
16.479492
16.038418
17.169714
17.339587
17.441511
17.989874
19.257665
18.842816
19.244552
20.199418
20.881891
20.339489
21.328926
20.714998
19.877553
21.565557
20.432472
19.640923
18.615723
17.695427
19.168854
18.272996
18.961430
16.416907
18.319488
17.448664
18.058419
20.411611
21.578670
21.393895
24.909973
25.474429
25.513768
24.773479
24.213791
23.388863
20.877719
20.858645
18.737912
18.354654
16.277432
13.738871
13.043880
12.662411
11.284947
10.303855
10.128617
10.321736
8.541942
9.311438
8.370876
8.587837
8.351803
7.910728
8.752942
8.564591
12.383461
13.543963
18.674731
26.202798
38.711429
51.422715
68.861842
81.918836
97.195506
120.924711
133.044720
144.483447
153.011680
161.312819
159.832835
158.030987
151.305795
140.422583
##ZVALUE=225
152.267814
156.300664
197.266936
207.854509
213.596821
188.998580
159.736872
115.267634
81.928968
55.071712
45.098662
38.500428
36.865473
38.711429
37.191510
28.983951
24.419427
19.336939
15.527606
10.927916
7.946491
6.577969
6.076694
5.510449
7.213950
6.761551
7.753968
7.525682
8.398890
8.443594
9.847879
9.962916
11.190772
12.099743
12.456775
14.003515
14.519691
15.242696
16.423464
16.791821
19.715428
20.401478
21.546483
22.555590
22.210479
22.856593
21.805763
22.287965
23.437738
24.834871
24.132729
27.313828
25.775433
24.573803
25.995970
25.350451
25.824904
25.478601
24.876595
24.347901
21.852851
23.246408
25.168657
25.199652
20.998716
21.123886
21.573901
22.325516
22.317767
22.614598
24.690628
25.937557
26.476979
26.944876
27.193427
25.117993
24.237633
24.008751
22.646785
21.957755
19.527674
16.956925
15.064478
14.038682
13.980865
13.701916
11.043549
12.007952
10.609627
10.322928
10.271668
9.765625
10.036826
11.215806
9.861588
9.420514
9.078979
9.377599
8.560419
9.259582
9.339452
9.043813
9.972453
12.590885
16.352534
26.117563
36.254525
56.373477
71.343780
98.031759
120.558739
156.831741
175.307989
208.627582
235.019922
251.830816
##ZVALUE=230
108.190775
114.690661
183.990598
244.510770
308.184624
359.217525
374.345779
342.212915
294.982791
223.125815
164.047480
102.349520
76.705813
61.922669
57.529807
58.054924
58.981776
54.786801
48.001409
35.402775
28.834939
20.271540
13.848543
10.196567
8.450747
7.967949
7.534623
6.908774
8.792877
8.397698
9.617805
9.885430
10.745525
12.085438
13.151765
13.168454
16.141534
15.382767
19.287467
20.180941
19.770861
21.940470
23.300648
22.323728
23.648739
24.906993
26.286840
27.966499
28.079748
29.630661
29.728413
28.378963
27.428865
28.614998
27.802587
29.807687
29.156804
30.877590
27.812719
28.395653
27.391911
25.311708
25.744438
23.522973
25.283694
24.764538
24.484992
25.008917
26.398897
26.039481
26.730895
27.149916
29.448867
29.079914
30.118823
26.120543
27.275681
26.861429
23.943782
21.654963
20.898581
20.092726
17.720461
16.147494
14.548898
14.289618
13.746619
12.697577
12.938976
11.959672
12.361407
11.562705
11.254549
11.273623
10.248423
10.422468
10.117888
10.528564
9.510517
9.827614
10.306835
11.166930
9.904504
9.556413
9.872913
10.088682
9.902716
11.177659
14.104843
20.029545
32.307506
46.404600
73.847771
99.253654
140.826702
189.983845
##ZVALUE=235
30.593872
37.658811
73.047876
161.129832
240.029693
375.890732
474.181771
576.107502
613.247752
596.296787
500.473976
407.197475
263.674855
186.199546
122.582912
91.159940
82.060695
86.391568
88.928938
88.759661
80.245733
65.610409
52.208900
35.352707
24.689436
16.043782
12.923479
9.752512
8.980632
9.518862
10.016561
11.169910
11.681914
12.339950
13.308525
13.721585
15.766621
16.292930
17.684698
19.494891
20.279884
20.257831
22.619963
23.630857
23.786426
26.681423
24.793744
27.413964
26.901960
29.180646
28.691888
28.371811
26.267767
28.432608
27.641654
26.542544
26.331544
27.867556
31.352639
27.815700
26.955605
27.019978
25.269985
24.538636
25.220513
24.034977
24.973750
26.152730
25.517941
25.435686
26.447773
27.347803
28.734803
27.523637
30.206442
28.548837
28.371811
26.096702
23.805499
22.067428
22.128820
19.756556
19.215941
17.548800
16.567707
13.937950
15.653968
14.756918
13.870597
12.546778
12.518764
11.932850
12.911558
11.962652
12.131929
12.415648
10.961890
10.832548
11.553764
11.246800
10.471940
10.831952
10.883808
11.705756
11.423826
11.744499
10.872483
11.051893
10.952950
11.831522
10.674596
12.157559
12.160540
16.036630
23.323894
40.728450
##ZVALUE=240
3.678799
3.623962
13.213754
33.577681
89.807510
166.909695
328.762531
481.467843
685.096979
807.677507
902.406573
872.814655
787.233710
633.751750
474.078655
291.702747
207.026601
132.910609
110.931993
108.188987
116.371512
122.600794
113.431811
102.141500
80.093741
65.893531
46.206713
34.319758
22.805929
17.429590
13.766885
11.480451
11.791587
13.452768
13.284683
14.386773
16.016960
17.668605
16.895533
19.223690
19.518733
20.402670
20.585656
20.535588
21.617413
23.280978
23.797750
23.045540
24.744868
25.696754
23.052692
24.558902
24.991632
25.902987
23.697615
24.081469
23.415685
23.388863
23.137927
24.927855
23.336411
24.252534
23.143888
22.756457
21.395683
21.472573
21.524429
22.298694
23.997426
23.238659
24.782419
26.103854
25.166869
27.868748
28.441548
29.541850
26.677847
24.534464
25.660992
23.774505
22.357702
19.704700
19.050837
16.707778
16.870499
14.426708
14.362931
14.585853
14.057755
12.891889
13.255477
12.325644
13.365746
13.393760
13.011694
12.636781
12.386441
11.021495
13.106465
12.116432
12.794733
12.554526
12.085438
11.736751
12.665987
12.106895
12.997985
11.977553
12.527704
11.955500
11.963844
10.955930
11.742711
11.665821
11.472702
11.758804
##ZVALUE=245
2.534986
1.876950
2.855659
3.058910
5.818605
24.175644
57.689548
160.828829
288.528800
499.563813
692.343712
926.667452
1015.913486
1015.913486
1015.913486
864.748955
688.024759
449.486971
309.972763
174.001455
123.280883
108.696818
117.431879
126.617551
130.807757
122.357607
110.663772
92.849731
75.375438
56.426525
38.578510
27.098656
18.276572
14.837980
13.304949
13.999939
12.711883
15.724897
15.307665
16.195774
16.202927
16.871691
18.188953
16.806722
18.650889
19.156933
19.982457
19.891858
19.637942
20.781755
19.090772
19.076467
18.612742
19.420981
19.207597
20.695925
18.797517
18.367767
18.899441
20.143986
19.153953
18.600821
18.859506
18.774867
17.171502
18.498898
17.836690
18.161535
18.084645
20.176768
20.154715
21.679997
22.763610
22.106767
22.468567
22.883415
22.577643
21.380782
20.687580
19.296408
18.280745
16.636848
14.879704
15.636683
13.948679
13.692975
13.052821
13.104677
12.417436
11.241436
12.264848
10.877848
11.472702
11.073947
11.340976
11.803508
11.545420
11.777878
11.107922
10.811687
10.640621
11.812449
11.198521
11.673570
11.256933
11.062622
10.409951
11.147857
11.502504
11.011958
11.983514
10.612607
10.011792
11.986494
10.108948
9.623766
##ZVALUE=250
2.151728
2.288818
1.644492
1.987815
2.333522
2.677441
3.994703
16.400814
46.306849
125.378966
244.552493
485.526919
695.070028
981.096625
1015.914679
1015.914679
1015.914679
1015.914679
917.843580
616.402626
425.736904
234.691501
148.508549
107.155442
111.294985
129.212737
140.070915
141.237974
135.474801
123.822689
99.650621
80.994964
55.881739
39.066672
27.700663
20.067692
15.429854
15.576482
15.858412
16.915798
16.725659
16.839504
17.275810
17.454624
18.496513
18.881559
17.940998
18.909574
18.624663
18.855929
19.166470
20.030737
20.145774
19.649863
19.173622
19.216537
18.915534
18.046498
19.523501
18.367767
17.605424
17.322898
17.304420
17.390847
17.115474
16.446710
17.220974
17.297864
17.472506
18.788576
18.926859
20.092726
20.416975
20.948648
19.759536
21.713972
18.883944
19.454956
17.742515
16.130805
15.330911
14.471412
14.195442
12.907982
11.650920
11.491776
11.483431
10.130405
10.514855
10.271668
10.409951
10.033846
10.298491
9.950995
9.203553
9.728670
9.511709
9.794831
9.367466
9.349585
9.599924
9.689927
9.933710
9.238720
9.763837
8.980632
9.060502
9.236932
9.265542
9.051561
9.663701
9.481907
9.575486
9.683967
9.429455
8.804798
##ZVALUE=255
1.685619
1.637936
2.063513
1.651645
1.718998
2.047420
2.234578
2.734661
3.048778
6.678700
36.550760
92.641711
192.291737
415.277481
634.228587
968.506932
1015.913486
1015.913486
1015.913486
1015.913486
1015.913486
931.986570
571.574569
355.939865
180.494785
121.122003
102.823973
109.713674
131.943822
145.551562
148.790479
147.984624
129.415989
106.729865
84.871650
58.911443
46.075583
29.736757
23.493767
19.106865
17.811656
19.399524
18.783808
19.597411
19.092560
20.766854
19.903779
20.633936
21.857619
21.456480
21.791458
20.802617
21.264553
20.987988
21.071434
20.827651
20.932555
20.370483
21.043420
20.546913
20.250678
18.392801
17.456412
19.248724
18.956661
16.705990
16.645789
17.533898
17.659664
18.176436
18.419623
19.246936
17.568469
19.903779
19.935966
18.382668
19.523501
17.288923
16.705990
15.474558
13.986826
13.079643
12.152791
11.257529
10.704994
11.025667
9.702444
10.005832
9.300709
9.148717
9.662509
9.449720
9.667873
9.030700
9.287596
8.798838
8.638501
8.537769
9.287596
9.091496
8.319616
8.700490
8.824468
8.333921
8.901954
8.407831
9.253621
8.929968
9.110570
8.356571
8.783937
7.807612
8.369684
7.717609
8.914471
8.660555
##ZVALUE=260
1.279712
1.495481
1.613498
1.482964
1.633763
1.912713
2.093911
1.784563
2.019405
1.907945
2.257824
4.829764
15.985966
63.376427
139.032602
325.359702
544.505715
889.492035
1015.914679
1015.914679
1015.914679
1015.914679
1015.914679
1015.914679
774.361491
521.904826
286.103487
169.319510
101.445913
93.305707
114.429593
133.584738
149.242878
156.181455
153.212547
140.361786
112.050772
92.322826
65.999627
49.540997
34.474730
27.282834
23.398995
21.971464
23.172498
23.588538
24.710894
24.179816
23.797750
24.294853
24.230480
24.734735
25.720596
25.196671
24.673939
26.068687
24.764538
23.568869
23.368001
23.209453
22.120476
23.101568
21.430850
21.401644
21.648407
20.458698
20.228624
20.108819
20.327568
18.556714
19.574761
19.392967
19.387603
19.118786
20.066500
18.805861
17.703772
17.444491
15.283823
15.132427
13.620853
12.089610
12.485981
11.249781
10.726452
10.254979
10.029674
10.006428
9.331703
8.868575
8.430481
8.204579
8.293986
8.766651
8.146763
8.449554
8.137822
7.961988
8.358955
8.457899
7.641912
8.389950
7.962584
8.255839
8.345842
7.814765
8.092523
8.564591
8.380413
7.413626
7.336736
7.726550
7.739663
8.420944
7.310510
7.558465
##ZVALUE=265
1.424551
1.442432
1.173615
1.463890
1.178980
1.668930
1.060963
1.429915
1.510978
1.742840
2.379417
2.166629
2.100468
2.470613
7.835627
40.247440
99.723935
255.707502
453.109741
855.207443
1015.913486
1015.913486
1015.913486
1015.913486
1015.913486
1015.913486
992.081761
704.051852
382.630825
225.255489
117.186904
87.239742
95.482469
117.061734
145.833492
158.697963
165.860653
164.663792
142.138600
122.232437
94.200969
72.610974
51.846504
42.697787
33.636689
30.092001
29.374957
28.793812
29.933453
30.498505
31.188726
30.278563
29.899478
31.547546
30.873418
30.604601
31.327605
30.478835
29.088855
28.716922
26.154518
26.332736
25.808811
25.299788
23.480654
22.463799
22.663474
23.248792
21.379590
20.911694
21.411777
20.890832
21.123886
20.630956
20.124912
19.220710
17.973781
17.088652
15.631914
14.852881
13.713837
12.242794
12.283921
11.447668
11.001825
10.616779
9.680986
9.531975
10.195971
8.322597
9.165406
8.388758
8.532405
8.276701
7.868409
7.862449
7.867813
7.886887
7.646680
7.832646
8.111000
7.532835
7.929802
7.817745
7.076859
7.592440
7.615685
7.200837
7.547736
7.558465
7.407665
7.517934
7.117987
7.495880
7.544756
7.130504
##ZVALUE=270
1.198649
1.210570
1.344681
1.241565
0.876784
1.120567
1.418591
1.322627
1.317859
1.442432
1.836419
1.646876
1.790524
1.827478
2.365708
2.335906
3.917813
18.848777
56.582689
183.695555
359.289646
722.051859
1013.720632
1015.914679
1015.914679
1015.914679
1015.914679
1015.914679
1015.914679
972.710848
573.138595
346.831679
163.180828
93.722939
78.088641
95.195770
125.061870
147.893429
167.424679
173.378587
167.403817
154.365897
129.709840
105.127692
78.986883
63.852668
48.405528
42.290688
38.191676
36.388636
37.047863
37.068725
36.785603
35.004616
35.014749
36.574602
34.226775
34.634471
33.794641
32.353997
31.405687
32.288432
29.464960
29.127598
27.952790
27.669668
25.377870
25.471449
24.978518
24.838448
24.629831
23.931861
23.347735
21.868944
21.446943
20.637512
19.546747
17.887950
16.909838
15.322566
14.804602
13.783574
13.374686
12.072921
11.866689
11.042953
9.833574
10.282993
9.328723
9.119511
8.962750
8.337498
8.194447
8.372664
8.008480
7.684827
7.319450
7.944703
7.456541
7.645488
7.119775
7.408857
7.563829
7.516742
7.624626
7.326603
7.693768
7.395744
7.262826
7.033944
6.534457
7.267594
6.865859
6.552935
6.609559
6.772876
##ZVALUE=275
0.868440
0.984669
0.919700
1.105666
1.109838
1.097918
1.046658
1.132488
1.182556
0.901818
1.274943
1.392961
1.369715
1.492500
1.583695
1.955628
2.039671
2.424717
2.670884
8.095503
32.405853
93.761683
278.398395
526.957512
970.230699
1015.785933
1015.785933
1015.785933
1015.785933
1015.785933
1015.785933
1015.785933
854.002833
440.341830
245.506763
107.459426
72.329640
76.746941
98.292828
128.561854
151.114464
171.606541
174.697638
168.753862
156.485438
129.019618
109.731555
84.336996
70.004463
56.367517
47.470927
42.974949
40.758848
39.432645
39.276481
39.251447
39.078593
37.383437
37.736893
36.335588
35.714507
33.721924
33.380985
31.514764
30.047894
30.114651
28.361678
28.151870
27.569532
26.855469
25.347471
24.514794
24.400949
23.457408
23.042560
21.525621
20.291805
18.907785
18.202662
15.842915
15.046000
14.135838
13.747811
12.463927
11.859536
11.429787
10.981560
9.824634
9.434819
9.496808
8.878708
8.635521
8.490682
8.236766
8.551478
7.499456
7.650852
7.349849
7.348657
7.022619
7.326603
7.115602
7.016659
6.962419
7.005930
7.225871
6.843805
6.867647
7.328987
6.775856
7.030964
6.647706
6.726980
6.494522
6.320477
6.513596
##ZVALUE=280
0.998974
0.819564
0.926852
0.736713
0.852942
1.118779
1.144409
0.917912
1.011491
1.243949
1.116991
1.429915
1.204610
1.270771
1.455545
1.713634
1.834631
2.079606
1.875758
2.445579
2.642870
4.583597
18.690825
85.820556
195.726752
454.235673
736.292005
1015.913486
1015.913486
1015.913486
1015.913486
1015.913486
1015.913486
1015.913486
961.589813
631.112456
313.366652
162.390471
74.187517
61.409473
78.264475
99.367499
130.788684
152.117610
172.031522
177.005529
169.804692
157.118440
132.067800
110.564828
84.876418
68.499446
53.824782
47.222972
42.307973
38.829446
38.053989
37.114620
36.276579
35.901666
35.157800
34.052730
34.076571
31.217933
31.131506
30.561686
28.656721
28.028488
27.884841
26.852489
25.632977
25.090575
24.226904
23.235679
22.851825
21.406412
19.357800
18.778443
17.102957
17.270446
15.665889
15.005469
13.009906
12.656450
11.561513
11.389852
10.659695
10.075569
10.297894
9.293556
9.536743
8.899570
8.090734
8.212924
7.852912
7.598996
7.836819
7.833838
7.113814
6.779432
6.958842
6.820560
6.964803
7.037520
7.258654
6.832480
6.949902
6.801486
6.515980
6.533861
6.824732
6.541610
6.160736
6.398559
6.444454
6.088614
##ZVALUE=285
1.022816
0.801682
0.839829
1.090765
1.043677
1.065731
1.019835
0.948906
1.037717
0.855923
0.982881
1.051426
1.041889
1.315475
1.217723
1.355410
1.601577
1.451969
1.633763
1.659989
2.086759
2.200603
2.573729
3.119707
9.989738
35.574436
121.811628
259.173512
571.931005
902.177691
1015.913486
1015.913486
1015.913486
1015.913486
1015.913486
1015.913486
1015.913486
874.318480
453.145504
251.199603
104.878545
59.472919
54.524541
68.968534
96.322894
119.595528
146.839619
159.907937
169.129968
164.699554
148.495436
133.698583
104.209781
85.796714
64.319968
51.218867
40.773749
36.073923
33.347607
32.818913
30.789971
30.826926
29.332638
28.594732
28.594732
27.726889
26.845932
25.716424
25.312901
24.846792
23.224950
22.948980
22.659898
21.580458
20.489693
20.620823
18.715858
17.550588
16.099811
15.489459
14.493465
13.911724
12.971759
12.674928
11.540651
10.876656
10.092854
9.574890
9.436607
9.045601
8.999705
8.654594
8.040667
7.835627
7.653832
7.920861
7.415414
7.043481
6.859899
6.734729
7.326603
6.772876
7.033944
6.718636
6.706715
6.589890
6.729960
6.579757
6.279945
6.674528
6.178617
6.096959
6.349683
6.084442
5.918741
5.589724
##ZVALUE=290
0.856519
0.906587
0.835657
0.685453
0.795722
0.911951
0.894666
0.944734
1.003742
1.076460
0.847578
0.989437
0.944734
1.070499
0.976920
1.284480
1.205802
1.385808
1.549721
1.741648
1.623631
1.895428
2.019405
2.158880
2.586842
2.874732
3.929734
20.556450
64.234734
155.575871
386.822820
669.263601
1015.913486
1015.913486
1015.913486
1015.913486
1015.913486
1015.913486
1015.913486
1015.913486
739.287734
350.024700
174.601674
67.803860
41.293502
46.661496
62.360764
85.755587
109.813809
130.645633
151.333809
158.428550
154.954791
143.778920
120.634437
98.401904
73.709488
56.864619
41.634440
34.461617
27.532578
26.138425
23.766756
22.773743
22.473931
21.933913
21.385550
21.220446
20.413995
20.079613
19.892454
19.100904
18.476844
18.455982
17.844439
17.063618
15.910864
15.009642
13.831854
13.341904
12.201667
11.785626
11.312962
10.868907
9.964705
9.928942
9.372830
9.168983
8.810759
8.480549
8.454919
7.897615
7.577538
7.362962
7.544756
7.122755
6.906986
6.991625
6.714463
6.765723
6.820560
6.402731
6.484985
6.529689
6.450415
6.552935
6.479621
6.399751
6.520748
6.118417
5.892515
6.059408
5.934834
5.687475
5.668998
5.654693
##ZVALUE=295
0.696778
0.674725
0.602603
0.601411
0.987649
0.825524
0.840425
0.824928
0.842810
1.092553
0.887513
1.095533
1.122952
1.131892
1.054406
0.908971
0.971556
0.941753
1.311898
1.135468
1.238585
1.622438
1.590848
1.684427
1.985431
2.121925
2.391934
2.835989
3.148913
6.108880
34.010410
95.484853
272.391438
522.944927
982.719660
1015.913486
1015.913486
1015.913486
1015.913486
1015.913486
1015.913486
1015.913486
953.704715
486.861467
257.164836
89.895725
42.025447
30.234456
38.886666
51.960945
77.026486
97.997785
122.921467
137.074590
146.005750
142.939687
127.289891
110.569596
83.884001
67.206621
46.940446
35.179853
25.165677
20.131469
17.257929
16.262531
15.774965
15.025735
14.898777
14.532804
14.557838
14.070868
14.298558
14.750957
14.140606
13.505816
12.492537
11.982918
11.493564
10.831952
10.669827
10.024905
9.750724
9.651780
8.866787
8.591413
8.061528
7.853508
7.788539
7.606745
7.562637
7.394552
7.141829
6.500483
7.169843
6.653666
6.772876
6.296635
6.158948
6.142855
5.967617
6.432533
6.067753
6.287694
5.815625
6.089807
6.157756
5.868673
6.157756
6.160736
5.665421
6.045699
5.826950
5.430579
5.692840
5.728602
##ZVALUE=300
0.672936
0.654459
0.787973
0.605583
0.959635
0.799894
0.763535
0.711679
0.657439
0.911951
0.715852
0.764728
0.842810
0.816584
0.934601
0.909567
0.755787
0.831485
1.003742
1.257658
1.132488
1.280904
1.399517
1.438856
1.424551
1.712441
1.762509
1.950860
2.009869
2.192855
2.682805
3.339648
15.137792
56.847930
192.541480
374.718904
764.704943
1015.913486
1015.913486
1015.913486
1015.913486
1015.913486
1015.913486
1015.913486
1000.182033
679.194927
336.224437
172.317624
58.413744
27.183890
24.003983
31.196475
47.681928
62.536597
87.849498
107.311606
127.130747
133.237839
129.510760
120.501518
100.277662
80.809593
57.002902
42.937994
28.018951
20.674467
14.294982
12.267828
10.827780
10.699630
10.450482
10.374784
10.573864
10.600686
10.274649
10.133982
9.748936
9.441972
9.013414
8.651614
8.350611
7.991791
7.660985
7.558465
7.336736
7.274747
7.036924
6.886721
6.862879
6.405711
6.648898
6.235838
6.252527
6.180406
5.827546
6.453991
6.148815
6.082654
5.762577
5.848408
6.158948
6.159544
5.883574
6.039739
6.026626
5.611777
5.856752
5.543828
5.310774
5.599856
5.596876
5.414486
5.432963
5.325675
4.903674
5.234480
##ZVALUE=305
0.407696
0.369549
0.407696
0.493526
0.418425
0.554919
0.496507
0.510812
0.544786
0.524521
0.712872
0.661612
0.629425
0.598431
0.662804
0.626445
0.607967
0.870824
0.821948
0.864863
0.776649
0.709891
1.080632
1.051426
1.066923
1.211762
1.512766
1.316667
1.570582
1.630783
1.748800
2.013445
2.472997
2.734661
5.842447
39.288998
108.949542
310.108662
558.960438
985.924602
1015.771627
1015.771627
1015.771627
1015.771627
1015.771627
1015.771627
1015.771627
837.393403
444.690585
234.201550
81.141591
35.082698
17.052889
19.026995
28.924942
40.495992
61.705709
79.353452
102.272630
114.778876
123.504996
121.871829
110.279918
95.499754
73.395967
55.737495
37.188530
26.357770
15.988946
12.172461
9.635687
9.067655
8.672476
8.843541
8.198619
8.000731
7.877946
7.733703
6.864667
7.038713
6.867647
7.001758
6.692410
6.705523
6.610751
6.319880
6.072521
6.319880
5.849600
5.874634
5.935431
6.009936
5.674958
5.469918
5.416870
5.345941
5.610585
5.588531
5.452633
5.570650
5.457997
5.680919
5.257726
5.479455
5.320907
5.364418
5.308986
5.356669
5.523562
5.492568
5.154610
5.128980
5.269647
5.209446
4.892945
4.659891
##ZVALUE=310
0.508428
0.676513
0.472665
0.484586
0.572801
0.608563
0.479817
0.546575
0.458956
0.553727
0.664592
0.564456
0.759959
0.677705
0.785589
0.751615
0.580549
0.831485
0.771880
0.947714
0.861883
0.984669
0.831485
1.100898
1.110435
0.964999
1.249909
1.234412
1.366735
1.517534
1.705885
1.769662
1.879930
1.903772
2.242923
2.778769
3.801584
13.328791
70.963502
168.686509
416.480899
713.659525
1015.914679
1015.914679
1015.914679
1015.914679
1015.914679
1015.914679
1015.914679
1015.914679
637.632608
375.830531
151.253939
66.935420
20.149946
13.436675
17.281771
23.662448
37.351847
51.410794
72.943568
89.654922
107.544661
113.496780
114.741921
107.142925
89.287758
74.409842
51.536560
37.225485
23.501515
16.778708
12.198687
9.716749
8.092523
7.752776
7.169843
6.724000
6.465912
6.307960
6.319880
5.950928
6.097555
5.983710
5.742908
6.285906
5.921721
5.792975
5.725622
5.770922
5.432963
5.379915
5.569458
5.786419
5.275607
5.520582
5.423427
5.342960
5.210638
5.163550
5.101562
5.367994
5.554557
5.211830
5.673766
5.281568
5.337000
5.059838
5.502701
5.403757
5.123615
5.320907
5.238652
5.200505
5.116463
4.905462
##ZVALUE=315
0.504851
0.617504
0.527501
0.602603
0.464916
0.500679
0.572801
0.642538
0.696778
0.563860
0.540614
0.556707
0.502467
0.460744
0.442863
0.589490
0.808835
0.540614
0.768900
0.728965
0.813603
0.793934
0.903606
0.916719
1.026988
1.150966
1.072884
1.193881
1.200438
1.181960
1.421571
1.556873
1.520514
1.702905
1.927614
2.087951
2.112985
2.881885
3.075600
5.982518
37.115812
106.595755
307.365656
555.873513
992.715955
1015.914679
1015.914679
1015.914679
1015.914679
1015.914679
1015.914679
1015.914679
825.628042
509.641767
228.844881
102.800727
26.778579
12.688637
11.994839
14.703870
22.392869
31.651855
49.214959
64.287782
85.734725
97.545981
107.747912
108.319521
98.026991
85.506439
64.897537
50.287843
34.478903
24.793744
15.581846
11.161566
7.642508
6.867647
5.998611
6.150603
5.913973
5.606413
5.546808
5.185604
5.499721
5.341768
5.538464
5.391836
5.277991
5.389452
5.314946
5.352497
5.263686
5.231500
5.414486
5.141497
5.521774
5.641580
5.186796
5.064607
5.360842
4.985929
5.234480
5.364418
5.449653
5.537868
5.435944
5.547404
5.387664
5.165935
5.090833
5.288720
5.361438
4.842877
5.098581
4.808903
##ZVALUE=320
0.627637
0.507832
0.526905
0.437498
0.393987
0.405908
0.428557
0.565648
0.397563
0.597835
0.504851
0.417829
0.667572
0.538826
0.582933
0.694990
0.466704
0.807643
0.696778
0.855923
0.629425
0.784993
0.744462
0.975728
0.903606
0.949502
1.026988
0.889897
1.100898
1.083612
1.111627
1.260638
1.318455
1.361966
1.397729
1.768470
1.613498
1.800656
2.228618
2.192855
2.608895
3.358722
11.716485
69.855452
177.798867
463.520885
762.025714
1015.913486
1015.913486
1015.913486
1015.913486
1015.913486
1015.913486
1015.914083
996.052623
666.907430
301.678777
151.942968
49.668550
19.217730
10.127425
10.675788
13.740659
18.691421
30.807853
42.290688
60.939789
75.914860
93.600750
101.488829
102.033615
95.976591
81.709623
65.647960
47.804713
35.097599
21.475554
14.721751
9.437799
7.442832
6.082654
5.585551
5.452633
5.244613
5.129576
5.400777
5.093813
4.937649
5.213618
5.167723
5.101562
4.974604
4.913807
5.162954
5.056858
5.072951
5.332828
5.216599
5.357862
5.175471
5.020499
5.248785
5.273819
4.965663
5.424619
5.537868
5.206466
5.257726
5.307794
5.278587
5.292892
5.311966
5.400777
5.290508
4.826784
5.002618
##ZVALUE=325
0.434518
0.417829
0.406504
0.369549
0.404716
0.587702
0.463724
0.362992
0.465512
0.585914
0.505447
0.475645
0.467896
0.474453
0.442863
0.516772
0.479817
0.510812
0.651479
0.676513
0.789762
0.699759
0.736713
0.986457
0.750422
0.823736
0.935793
0.981688
0.881553
1.106858
1.046658
1.108646
1.176000
1.222491
1.381636
1.392961
1.476407
1.481771
1.833439
1.854897
2.147555
2.172589
2.598763
2.925396
8.504987
34.492612
134.426951
289.203525
640.535951
979.349017
1015.913486
1015.913486
1015.913486
1015.913486
1015.913486
1015.913486
1015.913486
821.942687
426.130891
230.266452
80.275536
28.831959
10.652542
9.193420
10.136962
12.234449
19.168854
27.457476
43.521523
58.651567
76.614618
87.270737
95.642805
95.249414
87.597966
76.718926
58.668852
44.285655
28.121471
19.766688
11.987686
9.161830
6.625652
5.944967
5.150437
5.265474
4.785657
5.036592
4.976988
4.858971
4.673600
4.665852
4.955530
5.030632
5.209446
5.283952
5.076528
5.047917
5.247593
5.171895
5.189776
5.027652
4.976988
5.297661
5.351901
5.375743
5.415678
5.386472
5.290508
5.450845
5.539656
5.271435
5.442500
5.069971
5.251765
4.563928
##ZVALUE=330
0.346899
0.456572
0.543594
0.350475
0.434518
0.363588
0.571609
0.328422
0.434518
0.430942
0.411868
0.515580
0.384450
0.509620
0.521541
0.665784
0.569820
0.604987
0.452995
0.534654
0.554919
0.602603
0.765920
0.740886
0.610948
0.694990
0.743866
0.859499
0.712872
0.968575
1.021624
0.925660
1.014471
0.990629
0.938773
1.110435
1.018643
1.173615
1.303554
1.424551
1.440644
1.681447
1.688600
2.173781
2.523661
2.657771
4.342794
14.960766
74.757934
188.490748
463.950634
770.688653
1015.913486
1015.913486
1015.913486
1015.913486
1015.913486
1015.913486
1015.913486
989.387035
555.797815
309.889913
118.596554
48.411489
13.647676
8.780956
8.400679
8.762479
12.358427
17.557740
28.783679
38.935542
55.732727
68.401694
82.459450
88.947415
88.236928
82.682967
67.724586
55.793524
38.769841
28.819442
18.647909
13.496876
8.436441
6.482601
5.552769
5.012751
4.995465
4.948974
4.822612
4.704595
4.963875
4.904866
4.871488
5.003810
4.866719
4.808903
5.008578
5.027652
5.156994
5.051494
4.982948
5.064607
5.364418
5.550981
5.412698
5.388856
5.626678
5.437732
5.605817
5.284548
5.334616
5.193949
5.141497
5.134940
##ZVALUE=335
0.407696
0.343919
0.324845
0.398755
0.353456
0.445843
0.304580
0.425577
0.555515
0.427961
0.551939
0.544786
0.479817
0.540614
0.433922
0.525713
0.423789
0.321865
0.466704
0.515580
0.555515
0.757575
0.740886
0.611544
0.840425
0.666976
0.799894
0.685453
0.702739
0.816584
0.703931
0.745654
0.904799
0.763535
1.031756
1.019835
1.079440
1.148582
1.160502
1.135468
1.313686
1.564622
1.581907
1.627803
1.840591
1.902580
2.188683
2.648830
3.229976
6.756783
42.143464
115.877986
321.672559
576.936603
998.606682
1015.913486
1015.913486
1015.913486
1015.913486
1015.913486
1015.913486
1015.913486
712.314844
423.544645
177.119970
74.767470
20.163655
9.790659
7.977486
7.856488
9.593964
11.567473
17.287731
24.695992
38.200617
49.442649
65.773726
76.535940
82.888603
82.916617
75.422525
66.915751
52.703619
41.765571
28.139949
20.092726
12.548566
8.975863
6.649494
5.668998
4.945993
4.844666
4.783869
5.120635
4.811883
4.921556
4.846454
5.061626
4.884601
4.804730
5.164742
4.962683
5.026460
5.274415
5.155802
5.419850
5.565882
5.331635
5.737543
5.521774
5.564690
5.249977
5.356669
5.116463
5.082488
5.068779
##ZVALUE=340
0.280738
0.356436
0.279546
0.402927
0.490546
0.177622
0.471473
0.338554
0.288486
0.317693
0.398755
0.471473
0.491738
0.460744
0.638962
0.503659
0.458956
0.536442
0.483990
0.408888
0.559688
0.574589
0.565648
0.599623
0.573993
0.578761
0.392795
0.620484
0.680685
0.710487
0.715852
0.814795
0.829697
0.942945
0.796914
0.946522
0.953674
1.024604
0.966787
1.163483
1.195669
1.259446
1.265407
1.461506
1.512766
1.515746
1.520514
1.973510
2.114773
2.218485
2.705455
3.837943
20.751953
68.464875
219.380856
434.447527
889.167786
1015.914679
1015.914679
1015.914679
1015.914679
1015.914679
1015.914679
1015.914679
901.369452
554.066896
245.095491
110.128522
26.978850
10.973811
8.097887
7.898808
8.094907
8.473992
11.182427
14.913678
23.643970
33.616424
48.660636
60.123801
71.966648
76.570511
76.895952
71.698427
61.773658
52.048564
38.099885
27.849674
18.670559
13.414621
8.898973
6.932616
5.762577
5.268455
5.022883
5.091429
4.793406
5.058646
4.674792
5.079508
4.825592
4.847646
5.130768
5.097985
5.263686
5.313754
5.610585
5.488992
5.723834
5.638599
5.653501
5.644560
5.586743
5.376935
5.429983
5.316734
##ZVALUE=345
0.339746
0.330806
0.236630
0.367761
0.332594
0.311732
0.248551
0.417829
0.356436
0.443459
0.406504
0.406504
0.434518
0.464916
0.495911
0.288486
0.376701
0.489950
0.389814
0.511408
0.523925
0.515580
0.684857
0.562668
0.615716
0.494719
0.510812
0.435710
0.614524
0.698566
0.658631
0.772476
0.735521
0.737906
0.735521
0.853539
0.826716
0.856519
0.953674
0.851750
0.903606
0.986457
1.044869
1.146793
1.355410
1.387596
1.425743
1.387596
1.580715
1.794696
2.020597
2.083778
2.495646
2.780557
8.687973
34.952760
147.359967
301.768780
638.404489
969.627500
1015.913486
1015.913486
1015.913486
1015.913486
1015.913486
1015.913486
1015.913486
742.085576
331.341624
154.948831
43.707490
16.477704
8.718967
7.774830
7.174611
7.165670
7.555485
9.162426
13.987422
20.613670
31.911731
41.635633
54.486990
62.367916
70.306659
71.299672
67.053437
59.988499
48.546791
39.199591
27.423501
20.212531
13.314486
9.535551
6.983876
6.025434
5.256534
5.205870
4.856586
4.958510
4.788637
5.029440
4.915595
5.318522
5.274415
5.436540
5.222559
5.362630
5.444884
5.472898
5.349517
5.357862
5.293489
5.309582
5.288720
5.076528
##ZVALUE=350
0.272989
0.331998
0.266433
0.484586
0.420809
0.293851
0.307560
0.429749
0.427961
0.350475
0.421405
0.424981
0.429749
0.272989
0.281930
0.246763
0.417829
0.480413
0.487566
0.573993
0.455976
0.698566
0.573993
0.613928
0.478625
0.692606
0.663996
0.681877
0.588894
0.772476
0.568628
0.703931
0.654459
0.483990
0.599623
0.629425
0.774860
0.802875
0.820756
0.759959
0.859499
0.860691
0.994802
1.033545
0.993609
1.225471
1.136661
1.211762
1.265407
1.461506
1.581907
1.686811
1.735687
2.044439
2.171993
2.685785
4.679561
18.184781
83.633661
192.988515
466.786623
788.098574
1015.913486
1015.913486
1015.913486
1015.913486
1015.913486
1015.913486
1015.914083
859.545469
432.010889
231.299400
81.517696
27.114749
9.146929
7.371902
6.423593
6.145835
5.887747
6.357431
9.134412
12.028813
19.350648
26.114583
37.777424
46.380758
57.913661
62.981844
65.602660
63.130856
55.828691
47.272444
35.774708
27.675629
18.726587
13.679862
9.558797
7.511973
5.987883
5.284548
5.123615
5.292892
4.793406
5.260706
5.036592
5.153418
5.179644
5.454421
5.591512
5.548596
5.399585
5.104542
5.094409
5.058646
5.038977
4.816651
##ZVALUE=355
0.404716
0.409484
0.451803
0.360608
0.440478
0.321865
0.429749
0.540614
0.401735
0.403523
0.405908
0.230670
0.310540
0.548959
0.446439
0.337958
0.449419
0.474453
0.435710
0.533462
0.516772
0.475645
0.479817
0.421405
0.601411
0.464916
0.494719
0.500679
0.578761
0.563860
0.673532
0.797510
0.669956
0.608563
0.654459
0.658631
0.678897
0.747442
0.896454
0.895858
0.694990
0.805855
0.929832
0.883937
0.896454
0.926852
0.996590
1.087785
1.098514
1.226664
1.306534
1.488924
1.685619
1.656413
1.671910
1.855493
2.220869
2.456903
3.142953
7.311702
46.166778
124.624372
334.589481
594.811440
1015.638709
1015.914679
1015.914679
1015.914679
1015.914679
1015.914679
1015.914679
956.736803
504.978895
276.436806
111.281872
44.050813
11.457801
6.985664
6.129742
5.725622
5.485415
5.525947
6.039739
7.495880
11.395812
15.654564
23.672581
31.716824
43.508410
50.434470
57.443976
59.537888
58.151484
52.183867
44.027567
35.937428
26.306510
19.992590
14.085770
10.676980
7.383823
6.363988
5.251765
5.155802
5.102754
5.070567
5.027652
5.025864
5.170703
4.976988
4.921556
4.928708
4.754663
4.902482
4.772544
4.683733
##ZVALUE=360
0.429749
0.276566
0.432730
0.384450
0.405908
0.234842
0.123978
0.399947
0.393987
0.411868
0.312924
0.441670
0.477433
0.342727
0.509620
0.460744
0.398755
0.448823
0.422597
0.537634
0.634789
0.620484
0.494719
0.461936
0.602603
0.588894
0.449419
0.595450
0.786781
0.650883
0.598431
0.696778
0.609756
0.764728
0.727773
0.602603
0.854731
0.889897
0.724792
0.770688
0.915527
0.856519
0.914931
0.968575
0.933409
0.850558
1.010895
1.035929
1.042485
1.068711
1.292825
1.238585
1.431704
1.524687
1.584888
1.619458
1.837611
1.940727
2.153516
2.249479
2.813935
4.120469
22.060871
68.771839
216.105580
414.396524
820.747018
1015.913486
1015.913486
1015.913486
1015.913486
1015.913486
1015.913486
1015.913486
637.815595
365.654826
140.031576
55.934787
14.389753
7.433891
6.160736
5.767941
5.574822
5.423427
5.091429
5.124807
6.691813
8.429885
13.373494
18.613935
27.975440
35.330653
44.746995
50.929785
54.597855
54.391623
50.044656
44.468641
35.122633
28.314590
20.135641
15.169978
10.979772
8.313656
6.316900
5.776882
5.379915
5.079508
5.200505
5.093813
4.931688
4.806519
4.528761
4.551411
4.530549
4.319549
##ZVALUE=365
0.426769
0.427961
0.266433
0.355840
0.291467
0.299811
0.357628
0.372529
0.406504
0.396967
0.410676
0.347495
0.510812
0.306964
0.575781
0.532866
0.513792
0.424981
0.696778
0.612736
0.310540
0.615716
0.470877
0.628829
0.468493
0.595450
0.611544
0.539422
0.401735
0.615716
0.536442
0.672936
0.560880
0.661612
0.556707
0.633597
0.728965
0.644922
0.806451
1.006722
0.697970
0.801682
0.702739
0.969768
0.870824
0.912547
0.945926
0.901818
1.001954
1.042485
1.216531
1.110435
1.158714
1.258850
1.322627
1.399517
1.575947
1.518726
1.810789
1.962781
2.119541
2.228618
2.557635
2.957582
8.944869
34.660697
134.260058
289.727449
651.910901
985.167623
1015.914679
1015.914679
1015.914679
1015.914679
1015.914679
1015.914679
817.350745
489.174724
205.659866
91.902614
24.229884
9.633899
6.410480
5.798936
5.262494
4.827976
4.635453
4.580617
4.897714
5.741715
8.132458
11.089444
16.633868
22.887588
31.617880
38.782954
45.773983
49.044490
50.514936
47.976971
42.365789
36.867857
28.454661
22.434592
15.775561
11.595488
8.221865
6.364584
5.746484
5.290508
4.937649
4.892945
4.292727
4.462600
4.360676
3.948808
##ZVALUE=370
0.309944
0.229478
0.438690
0.417829
0.197887
0.319481
0.438690
0.140667
0.382662
0.335574
0.239611
0.493526
0.356436
0.518560
0.477433
0.420809
0.423789
0.330806
0.307560
0.417829
0.559688
0.389814
0.364780
0.546575
0.463724
0.546575
0.545979
0.547767
0.624657
0.592470
0.609756
0.472665
0.455976
0.681877
0.631809
0.753999
0.623465
0.724792
0.786781
0.589490
0.539422
0.659823
0.651479
0.727773
0.878572
0.819564
0.796914
0.760555
1.005530
0.885725
0.990629
0.977516
1.049638
1.131892
1.196861
1.217723
1.049638
1.293421
1.308918
1.452565
1.697540
1.751781
1.821518
2.090931
2.329946
2.569556
4.557967
18.115640
94.972849
221.595764
492.885709
809.555650
1015.913486
1015.913486
1015.913486
1015.913486
1015.913486
1015.913486
952.988863
608.180761
276.992917
136.741996
45.727491
16.437769
6.288886
5.421638
5.050898
4.845858
4.581809
4.541874
4.581809
4.739761
5.662441
7.224679
10.658503
14.215708
20.329952
26.398897
33.797622
39.519668
45.067668
46.895742
45.235753
42.185783
35.053492
29.193759
21.802783
15.498996
12.127757
9.459853
7.021427
5.670786
4.721880
4.453659
4.136562
4.162788
##ZVALUE=375
0.216961
0.351667
0.241995
0.346899
0.358820
0.329614
0.403523
0.472665
0.316501
0.275970
0.310540
0.398755
0.443459
0.420809
0.304580
0.337958
0.299811
0.378489
0.568628
0.395775
0.341535
0.465512
0.448823
0.315905
0.299811
0.438690
0.393987
0.419617
0.478625
0.677705
0.670552
0.678897
0.650883
0.631809
0.586510
0.560880
0.604987
0.533462
0.663996
0.820756
0.737906
0.543594
0.570416
0.683665
0.650883
0.598431
0.776649
0.672936
0.883937
0.760555
0.784993
0.779629
0.903606
0.924468
0.954866
0.965595
0.911951
1.006722
0.913739
0.981688
1.081824
1.216531
1.231432
1.388788
1.497865
1.742840
2.135634
2.294779
3.345609
9.599924
56.098700
140.600801
356.167555
630.207658
1015.914679
1015.914679
1015.914679
1015.914679
1015.914679
1015.914679
1015.914679
780.912638
423.941016
233.809948
85.392594
32.687783
8.837581
5.920529
5.135536
4.839897
4.794598
4.625916
4.890561
4.682541
4.830956
5.119443
6.498694
8.027554
12.100935
16.504526
23.787618
29.846430
36.940575
41.504502
44.947863
44.881701
41.757822
35.530925
30.983686
24.269819
18.877983
13.379455
10.246634
7.072687
5.759597
4.521608
##ZVALUE=380
0.303984
0.298619
0.303984
0.207424
0.134706
0.389814
0.291467
0.315905
0.377893
0.250936
0.207424
0.237823
0.241995
0.334978
0.277758
0.259876
0.458956
0.409484
0.315905
0.331998
0.324845
0.396967
0.337958
0.480413
0.420809
0.417829
0.539422
0.487566
0.495911
0.573993
0.542998
0.680685
0.709891
0.694990
0.544786
0.650883
0.582933
0.643730
0.665784
0.599623
0.547767
0.600815
0.521541
0.695586
0.759959
0.496507
0.720620
0.705719
0.701547
0.712872
0.708699
0.803471
0.787973
0.870824
0.833869
0.843406
0.794530
0.894666
1.047850
1.064539
1.013875
1.100898
1.130700
1.124740
1.252890
1.523495
1.763701
1.893640
2.122521
2.405643
2.898574
5.092621
29.762983
93.290806
275.709629
503.957868
931.260586
1015.913486
1015.913486
1015.913486
1015.913486
1015.913486
1015.913486
965.163112
557.362437
324.636698
128.988624
55.123568
13.645887
6.340742
5.563498
5.229712
5.171895
4.896522
4.819632
4.596710
4.544854
4.732609
4.777908
5.516410
7.765889
10.131598
15.135407
20.651817
27.598739
33.710599
39.323568
42.011738
42.620897
40.841699
37.194490
30.456781
25.225878
18.575788
13.857484
9.816885
##ZVALUE=385
0.276566
0.157952
0.324845
0.231862
0.224710
0.330806
0.388622
0.281930
0.311732
0.255704
0.393987
0.183582
0.234842
0.344515
0.358820
0.393987
0.455976
0.230670
0.303984
0.276566
0.314713
0.387430
0.304580
0.498891
0.533462
0.527501
0.585914
0.494719
0.576973
0.694990
0.617504
0.659823
0.710487
0.610948
0.783801
0.703931
0.626445
0.698566
0.713468
0.832677
0.759959
0.799894
0.658631
0.858903
0.811815
0.634789
1.003742
0.591874
0.686646
0.704527
0.845790
0.856519
0.774860
0.850558
0.808835
0.865459
0.996590
0.797510
0.960827
0.962615
0.884533
0.927448
0.964999
0.998974
1.194477
1.300573
1.490712
1.610518
1.666546
1.858473
2.045631
2.288818
2.631545
3.190637
12.265444
47.663450
181.667805
376.805663
773.152709
1015.914679
1015.914679
1015.914679
1015.914679
1015.914679
1015.914679
1015.914679
744.920969
470.166802
208.883882
96.035600
25.359988
9.231567
5.658865
5.338788
5.196929
5.075932
4.856586
4.814863
4.134774
4.251599
4.206896
4.263520
4.985929
6.305575
8.888841
12.286901
17.819405
24.272799
28.998852
34.337640
37.735701
39.322972
38.416982
35.141706
30.601621
24.863482
##ZVALUE=390
0.331998
0.198483
0.601411
0.450611
0.376701
0.260472
0.323653
0.179410
0.188947
0.326633
0.392795
0.348687
0.279546
0.245571
0.329614
0.413656
0.181794
0.346899
0.206828
0.330806
0.235438
0.348687
0.318885
0.429749
0.425577
0.500679
0.333786
0.558496
0.520945
0.640750
0.739694
0.624657
0.709891
0.758767
0.843406
0.861883
0.828505
0.734925
0.820756
0.862479
0.745654
0.608563
0.739694
0.917912
0.818968
0.813603
0.783801
0.766516
0.805855
0.753999
0.833869
0.854731
0.780821
0.907779
0.941753
0.878572
0.865459
0.833869
0.932813
0.940561
0.867844
1.013875
1.069903
1.048446
1.001954
1.416802
1.383424
1.535416
1.552701
1.935959
1.880527
2.096891
2.111793
2.179742
2.436638
2.627969
4.856586
30.600429
96.377730
290.220976
539.915562
977.873802
1015.913486
1015.913486
1015.913486
1015.913486
1015.913486
1015.913486
1011.936665
615.748763
353.305936
141.631961
63.080788
17.180443
7.180572
5.409718
5.201697
4.947782
4.839897
4.598498
4.451871
4.299879
4.264712
3.989935
4.249811
4.686713
5.644560
7.568598
10.146499
15.063882
19.097924
25.202632
29.619932
34.487844
36.585927
36.125779
##ZVALUE=395
0.355840
0.268817
0.333786
0.167489
0.413656
0.213981
0.362992
0.224710
0.358820
0.111461
0.229478
0.300407
0.277758
0.264645
0.315905
0.187755
0.254512
0.278950
0.354648
0.407696
0.356436
0.253916
0.474453
0.432730
0.482798
0.454783
0.471473
0.555515
0.638962
0.643730
0.661612
0.727773
0.744462
0.640750
0.706911
0.827909
0.892878
0.958443
0.724792
0.741482
0.976920
0.976920
0.870824
0.874996
0.942945
0.765920
0.821948
1.004934
0.918508
0.950694
0.910759
0.745654
0.944734
0.955462
0.663996
0.833869
0.879765
0.942945
0.971556
0.890493
1.055598
1.056790
0.969768
0.899434
1.068711
1.324415
0.928640
1.284480
1.367927
1.558661
1.676679
1.815557
1.806617
2.040863
2.038479
1.965761
2.291799
2.477765
3.483891
12.900829
69.108605
175.375342
427.896976
708.889961
1015.914679
1015.914679
1015.914679
1015.914679
1015.914679
1015.914679
1015.914679
792.384744
410.856605
220.937729
85.474849
34.655929
9.469986
5.661845
5.141497
4.980564
4.886985
4.722476
4.755855
4.495978
4.418492
4.162788
4.129410
4.227757
4.274845
5.079508
6.268620
8.436441
11.235476
16.608834
20.924807
27.328730
##ZVALUE=400
0.376701
0.366569
0.328422
0.183582
0.315905
0.323653
0.232458
0.303984
0.307560
0.211596
0.309944
0.308752
0.160933
0.176430
0.310540
0.072718
0.315905
0.204444
0.214577
0.325441
0.262856
0.172853
0.287890
0.395775
0.330806
0.495911
0.543594
0.513792
0.565648
0.666976
0.644922
0.662804
0.684857
0.821948
0.863671
0.801682
0.839829
1.068711
0.753999
0.746846
0.813603
0.925660
0.891685
0.912547
0.949502
0.784993
0.915527
0.940561
0.932813
0.943542
0.860691
1.051426
0.982881
0.816584
0.884533
0.959635
1.028776
0.886917
0.969768
0.914931
1.019835
1.040697
0.901818
0.848770
1.124740
1.250505
1.078844
1.349449
1.533628
1.512766
1.632571
1.750588
1.607537
1.769662
1.690984
1.633763
1.788735
1.889467
1.907945
2.061725
2.687573
6.336570
36.570430
103.313923
293.421745
531.683564
964.132547
1015.914679
1015.914679
1015.914679
1015.914679
1015.914679
1015.914679
961.254835
543.918610
322.563648
135.769844
61.769485
18.570423
7.426739
5.260706
4.893541
4.929900
5.065799
4.785657
4.647970
4.672408
4.494786
4.300475
4.055500
3.989935
3.925562
4.365444
4.856586
7.393956
10.744929
##END
