##TITLE=2-2
##FORMAT=SPECTACLE-ASCII V-1.2
##DATA TYPE=ULTRAVIOLET SPECTRUM
##SECOND TYPE=ULTRAVIOLET SPECTRUM
##DATE=04/04/18
##TIME=14:51:27
##SPECTROMETER/DATA SYSTEM=SPECTACLE
##XUNITS=NM EM
##YUNITS=ENERGY
##YFACTOR=1
##FIRSTX=220
##LASTX=450
##NPOINTS=116
##3DDATA=Equidistant
##ZUNITS=NM EX
##FIRSTZ=210
##LASTZ=400
##ZPOINTS=39
##XYDATA=(Y..Y)
##ZVALUE=210
34.217834
30.015707
23.371577
15.950799
12.666583
13.025999
11.526942
10.341406
8.648634
8.608699
6.632805
6.448627
5.512834
5.140901
5.594492
6.885529
7.173419
6.670952
7.486939
7.731915
8.933544
9.865761
9.054542
11.138916
11.662841
13.087988
14.230609
16.110539
16.442537
18.186569
18.996596
19.439459
21.066666
19.733906
22.609830
20.568967
21.868944
20.843744
22.778511
21.031499
22.473931
23.252964
22.545457
22.274852
24.444461
22.137761
23.030639
23.447871
23.821592
25.412440
22.898912
25.422573
24.895668
25.233626
24.886727
26.443601
25.347471
24.151802
27.612448
24.173856
24.633408
25.250912
25.119781
25.611520
26.551485
26.292801
27.088523
31.516552
35.798550
41.319728
48.162937
55.056810
62.638521
70.923567
73.602796
83.513856
82.237720
84.672570
84.170699
79.843998
78.806877
68.441629
58.527589
49.458742
42.841434
32.314658
29.009581
23.356676
25.222898
28.040409
33.932924
45.160651
55.428743
64.071417
78.112483
96.856952
110.827684
123.651624
137.335658
141.822696
146.795511
148.369670
143.375993
139.303803
132.964849
122.186542
112.688541
98.440647
91.007948
72.772503
59.406757
45.717955
37.800670
27.767420
24.973750
25.458932
##ZVALUE=215
111.531615
108.828545
79.668760
62.404871
42.997599
27.323961
20.264983
19.145608
16.549826
15.149713
15.800595
12.282729
10.305643
8.950830
8.240938
6.762743
7.009506
6.602407
7.582903
7.731915
8.361936
9.143949
9.889603
10.540485
11.951923
12.755990
15.341640
13.956428
18.680692
17.428994
18.927455
21.038651
18.328428
20.293593
20.851493
21.268725
23.117661
22.348762
22.165775
22.659898
22.879839
23.671985
22.762418
22.581816
22.944808
24.704933
22.778511
25.283694
25.088787
24.490952
25.432706
26.032925
26.329756
27.826428
26.268959
26.531816
27.955770
26.773810
26.200414
26.414990
25.231838
25.430918
25.694966
25.980473
26.609898
27.454495
27.335882
27.884841
30.399561
38.478971
41.586757
46.544671
53.609610
60.377717
67.716837
67.855716
70.582628
69.848895
70.736408
63.409805
63.113570
57.081580
49.483776
42.376518
36.846995
31.632781
25.795698
22.135973
21.977425
17.700791
20.078421
18.335581
20.137429
23.509860
28.477907
38.264990
45.642853
65.799952
78.696609
103.970766
119.835734
147.361755
170.091987
188.737512
201.065540
212.188959
216.411948
217.834711
204.923749
190.421939
178.932548
155.984759
143.692493
111.276507
94.941854
70.160627
##ZVALUE=220
228.027701
226.081610
217.826962
194.354653
159.510970
112.468600
82.103610
51.058531
36.619902
27.713776
28.131604
24.356842
22.436976
20.214915
17.474890
13.691783
10.903478
8.841753
6.620884
7.596612
8.832812
8.620620
9.162426
9.385943
11.101961
11.889935
13.488531
13.857484
14.095902
14.933944
15.235543
18.542409
17.735958
19.208789
19.482970
20.469427
21.301508
24.222732
20.336509
22.616982
24.131536
23.789406
26.776791
24.832487
25.178790
24.852753
25.865436
27.073622
27.416945
28.119683
28.898716
30.946732
29.854774
29.684901
30.991435
30.239820
30.854940
29.533505
30.894876
30.068755
29.743910
28.007627
29.007792
27.639866
28.316975
27.974844
26.142597
30.358434
29.834509
34.253597
36.365986
41.479468
47.712922
50.892830
53.628683
56.079626
59.135556
56.876540
54.280758
53.535700
51.504970
45.960546
41.074753
36.184788
31.387806
25.594831
21.433830
20.668507
20.113587
20.007491
17.939806
16.285777
16.599894
16.346574
16.184449
15.236735
14.920831
18.112659
20.005703
24.939775
33.910871
53.239465
67.972541
96.927881
121.168494
159.873962
191.387534
218.210816
245.296955
277.645588
291.973948
297.324657
302.716494
297.377706
280.432701
248.261690
##ZVALUE=225
282.932520
294.241905
352.514982
383.812785
385.644436
345.985889
285.998583
203.158855
139.020681
84.253550
60.482621
46.512485
41.756630
41.993856
39.960742
36.792755
32.789707
22.523999
18.540621
13.059974
10.914803
9.249449
10.019541
9.705424
9.978414
11.467934
11.137724
13.175607
13.255477
12.816787
14.750957
15.984774
17.390847
16.708970
18.887520
20.418763
20.861626
21.266937
23.132563
24.521947
24.820566
27.178526
26.995540
29.323697
29.126406
30.034781
30.645728
32.004714
32.416582
35.130978
32.848716
33.425689
34.947991
32.187700
33.729672
33.992529
34.441948
35.963655
33.699870
34.165978
31.862855
33.099651
32.538772
33.082962
31.318665
30.066967
32.282472
31.404495
33.549666
36.298633
40.032864
45.985579
47.079921
46.185851
47.727823
48.355460
48.606992
48.802495
43.114424
40.818453
35.273433
34.149885
29.494762
26.636720
26.971698
23.539662
20.280480
17.461777
19.346476
17.169714
16.913414
16.519427
16.004443
15.952587
15.390515
16.165972
16.293526
15.793443
15.699863
15.356541
15.818477
15.179515
18.167496
22.330880
32.892823
45.489669
69.797635
103.873610
134.665966
176.458955
223.431587
272.349715
319.409966
370.363593
404.138565
440.155864
##ZVALUE=230
192.859769
205.918550
310.832858
454.576612
561.016798
643.571615
664.400458
619.311929
523.919463
415.363908
264.431834
174.559951
100.311637
74.171424
66.692829
65.873861
66.421628
62.205791
53.964853
44.917464
34.391880
25.274754
17.717481
13.954639
11.928678
12.272000
11.111498
12.336969
12.779832
13.642907
14.636517
15.927553
15.899539
16.505718
18.779635
21.223426
22.871494
22.796988
23.845434
27.623773
27.025938
29.065609
29.197931
31.536818
31.863451
32.398701
33.745766
35.251975
33.937693
36.301613
38.278699
37.922859
40.863752
38.119555
37.667751
38.417578
37.630796
36.472678
38.426518
39.214492
35.855770
37.231445
37.778616
34.818649
36.806464
35.326481
37.399530
37.508607
39.201975
40.620565
43.177605
49.208999
50.094724
52.351952
56.885481
54.091811
52.476525
48.576593
43.888688
41.006804
38.397908
34.208894
32.260418
28.610826
27.291775
26.279688
23.390651
21.615624
20.573735
21.472573
19.032955
19.509792
18.744469
19.170642
17.046928
17.230511
17.850995
16.554594
17.362833
17.644763
18.306971
16.637444
17.489791
17.472506
15.325546
17.378926
16.553998
19.914508
24.603605
38.365722
56.893826
95.993876
128.972530
197.230577
251.526833
340.852737
##ZVALUE=235
49.827695
55.314898
139.167905
248.218775
413.066745
646.348596
834.447742
1012.884974
1015.913486
1011.204720
896.669030
660.364032
483.932495
283.981562
189.674497
113.030672
93.863606
94.607472
96.018910
91.018677
88.298917
70.840716
57.067871
41.558743
30.373931
21.718740
19.584894
15.682578
14.432669
14.702678
15.186667
14.857650
16.478896
17.389655
19.140840
19.110441
21.001697
23.284554
25.628805
26.394725
29.656887
29.201508
30.480623
32.041669
33.562779
33.674836
32.320619
33.941865
35.168529
36.256909
36.927462
38.904548
38.091540
36.257505
39.812922
38.822889
37.456751
37.110448
37.784576
38.667917
36.609769
35.314560
35.004616
35.287738
36.391616
36.842823
36.593676
35.760999
37.688613
40.674806
47.239661
48.625469
52.633882
53.436756
55.436492
53.656697
50.229430
47.525764
45.054555
41.487813
35.483837
34.401417
32.517910
30.968785
26.697516
24.666786
21.989942
22.554994
22.425652
22.727847
20.824671
20.081997
20.930767
19.601583
18.138885
19.077659
18.695593
18.743873
17.173886
18.025637
20.088553
18.811822
18.184781
18.596649
17.465949
19.014478
18.206835
17.204881
18.330812
16.706586
18.923879
16.865730
17.418861
26.942492
41.460991
73.892474
##ZVALUE=240
4.765987
4.673600
19.094944
52.741766
121.139884
275.184512
470.834970
803.765655
1015.913486
1015.913486
1015.913486
1015.913486
1015.913486
1001.054049
792.371035
488.835573
322.892666
186.773539
133.572817
116.680861
122.298598
123.133659
123.749971
105.552673
90.604424
66.664815
55.844784
37.204623
27.918816
22.632480
17.311573
16.492605
17.320514
18.625855
19.121766
19.124746
21.243691
20.866990
21.056533
23.521781
24.187565
25.565624
27.131438
26.458502
28.368831
29.078722
29.540658
30.586720
31.256676
32.971501
30.928850
33.287406
32.449961
33.036470
31.668544
31.343699
32.424927
32.677650
31.615496
32.656789
32.098889
31.453967
30.927658
30.489564
30.529499
30.429959
31.896830
31.106472
35.316944
36.190748
39.055943
40.849447
46.001673
44.699907
48.623681
47.075748
45.629740
45.246482
41.742921
37.797689
33.603907
30.011535
28.303862
26.271939
24.454594
23.046732
20.786524
20.559430
20.625591
18.724799
19.799471
19.475818
19.539595
18.705726
19.166470
17.112494
18.721819
17.165542
18.632412
17.717481
18.259883
17.030835
18.308759
17.107725
17.602444
17.235875
17.232895
17.459989
17.324686
17.865896
16.558766
18.269420
17.806888
16.643405
16.324520
17.267466
##ZVALUE=245
2.672672
2.328753
2.745986
2.689958
6.969571
35.279989
92.522502
247.953534
446.880460
783.649683
1015.914679
1015.914679
1015.914679
1015.914679
1015.914679
1015.914679
1015.914679
746.440887
507.311821
278.840661
176.956654
117.606521
121.790767
135.746598
138.856769
128.260851
116.183758
101.621747
75.486898
59.800744
41.530728
32.376647
23.745894
19.095540
17.510653
19.026995
18.940568
20.124912
22.057891
22.740960
21.611452
22.255778
23.465753
23.749471
23.982525
23.756623
24.286509
25.220513
25.952458
26.679635
24.994612
26.906729
27.543902
26.144981
24.343729
26.466846
24.391413
25.301576
26.642680
24.370551
24.880767
24.511814
23.779869
25.100708
23.244619
23.839474
23.356676
24.565458
27.571917
28.641820
28.926730
33.394694
34.594536
34.325719
37.145615
36.660433
37.651658
33.232570
31.863451
28.923750
26.128888
24.554729
22.075772
20.953417
19.158721
18.022656
18.195510
17.015934
16.315579
16.220808
17.253757
16.161799
16.802549
15.533566
15.278459
15.393496
15.852451
16.685724
16.153455
14.053583
14.709830
15.210509
15.369654
16.220808
15.716553
14.939904
15.074611
13.512969
15.414953
14.904737
16.101599
14.050603
14.491677
14.589429
14.114976
15.196800
##ZVALUE=250
2.004504
2.434850
2.020597
2.565980
2.927780
3.602505
4.063845
23.145676
67.193508
186.916590
367.684960
730.209947
1015.914679
1015.914679
1015.914679
1015.914679
1015.914679
1015.914679
1015.914679
976.890922
686.994791
369.664431
211.781859
124.756694
115.343928
128.999949
141.796470
145.979524
140.185952
126.620531
105.820894
87.036490
61.791539
46.608448
32.451749
23.910999
19.702911
18.613935
19.325614
18.806458
21.057725
20.773411
21.242499
21.446943
22.003651
21.573901
22.929907
22.634864
22.725463
23.851991
23.296475
24.417639
23.826957
24.413466
23.822784
23.764968
24.122596
23.970604
22.762418
22.585988
21.308661
23.331642
21.753907
22.190809
21.941662
21.569729
21.548867
23.090839
23.818612
24.906993
27.257800
28.995872
30.438900
30.726790
31.313896
30.734539
29.521585
28.640628
26.693940
24.515986
22.829771
21.192431
18.300414
18.439889
15.453696
15.949607
15.024543
14.924407
14.597774
14.470816
14.528632
13.715625
12.784600
13.139844
12.977719
12.830496
12.583733
12.712479
12.221932
12.533665
14.030933
12.490749
12.260675
12.799501
11.954904
12.514591
12.665987
12.690425
12.571812
12.161732
12.322664
12.327433
11.978745
11.970997
12.144446
13.113618
##ZVALUE=255
2.058744
2.075434
2.347827
2.330542
2.216697
2.625585
2.947450
3.400445
3.957748
12.134910
40.710568
145.024657
297.731757
623.595715
945.284963
1015.913486
1015.913486
1015.913486
1015.913486
1015.913486
1015.913486
1015.913486
909.692645
487.475991
278.673768
139.837861
111.106634
110.999942
134.313703
149.781704
154.505968
150.857568
135.514736
116.271973
88.756680
67.795515
45.499802
34.118891
24.786592
21.966696
21.114945
21.125674
22.453666
22.169948
23.868680
22.822618
24.123788
23.141503
24.213791
24.528503
25.440454
25.924444
25.334954
25.336742
24.098754
24.283528
23.861527
24.235845
24.951696
23.446679
24.001598
22.449493
22.653937
21.869540
21.297932
21.424890
21.505952
21.363497
22.498965
22.195578
24.585724
25.141835
26.224852
27.166605
27.540922
26.549697
25.304556
25.060773
23.127794
20.962954
19.343495
18.054843
15.288591
15.453696
14.206767
14.464855
12.891889
12.071729
12.135506
12.342930
12.184978
11.557937
11.127591
11.674762
11.314750
10.803938
11.129975
11.215806
11.465549
11.026859
10.980964
11.702776
10.679960
10.363460
10.708570
10.878444
11.180639
11.409521
12.491941
10.804534
9.996891
11.232495
10.555983
11.001825
10.545850
10.195971
##ZVALUE=260
1.826882
1.832843
1.583695
2.005696
1.669526
2.323985
2.517700
2.394915
2.758503
2.505779
3.123879
6.303787
25.018454
99.854469
209.416747
484.765768
801.658034
1015.913486
1015.913486
1015.913486
1015.913486
1015.913486
1015.913486
1015.913486
1015.913486
737.676620
390.456915
217.791796
112.333894
98.848939
119.619966
135.643482
156.335831
163.721442
155.106783
143.388510
118.804574
96.732974
67.690611
52.886605
37.419796
30.798912
25.622845
24.236441
25.626421
25.479794
25.535822
26.964545
27.810931
27.513504
29.227734
28.895736
28.375983
28.183460
27.400851
28.121471
28.047562
26.567578
27.346611
26.745796
25.975704
26.029944
25.376678
23.929477
23.870468
23.242831
22.461414
23.101568
22.666454
22.507906
23.430586
24.654865
26.733875
24.455786
24.641752
24.721622
23.455620
22.561550
20.141602
19.451976
17.321706
16.277432
15.154481
13.804436
13.131499
12.670755
11.564493
11.438727
11.680722
10.692477
10.686517
11.187792
10.079741
10.537505
10.005832
10.275841
9.982586
10.392666
10.818839
9.891987
9.540915
9.861588
10.187626
10.017753
10.445714
9.985566
10.322928
9.615421
10.031462
10.190606
9.873509
9.594560
8.989573
9.651780
9.315610
9.108782
##ZVALUE=265
1.438856
1.667738
1.702905
1.838803
1.687407
1.742840
2.008677
2.230406
2.380610
2.424717
2.337694
3.026724
3.142953
3.898740
10.908842
59.287548
144.742727
360.471606
630.058646
1015.976667
1015.976667
1015.976667
1015.976667
1015.976667
1015.976667
1015.976667
1015.976667
970.027447
528.671741
292.720795
164.264441
94.574690
96.113682
123.348832
145.421624
163.838863
168.362856
161.387920
147.386789
121.184587
101.066828
73.123574
58.062673
44.200420
35.794973
32.433867
31.888485
31.823516
32.740831
33.547878
33.460855
34.107566
35.572648
33.252835
33.435822
32.723546
33.322573
31.987429
31.812787
30.631423
30.438900
29.643774
28.611422
28.327703
27.016997
26.730895
25.887489
24.993420
25.482774
25.779605
25.826693
26.393533
25.918484
25.031567
25.070906
23.741722
23.149848
21.513700
20.483732
18.207431
17.410517
16.113520
14.970899
13.166666
13.151765
13.014674
11.965632
12.078881
11.105537
10.578632
10.383725
10.207891
10.284781
9.871721
9.037852
9.328723
9.487867
10.251999
9.205937
8.857846
9.543896
8.826852
9.213686
9.557605
9.251833
8.791685
9.452701
8.733869
8.658767
9.206533
9.354949
8.575916
8.615851
8.756518
8.340478
8.172989
##ZVALUE=270
1.459718
1.155734
1.618862
1.411438
1.445413
1.549721
1.497865
1.698732
1.769662
2.128482
2.021790
2.062917
2.208948
2.489686
3.064871
3.450513
5.230904
25.402904
77.378750
248.472691
473.729968
950.103998
1015.914679
1015.914679
1015.914679
1015.914679
1015.914679
1015.914679
1015.914679
1015.914679
787.371993
473.870635
218.876600
114.856958
81.965923
96.728802
128.253698
149.792433
170.804858
176.943541
168.489814
155.433416
130.959749
109.860897
81.413984
65.455437
51.621795
45.013428
40.005445
38.445592
39.251447
39.531589
38.555861
38.227439
39.141774
37.621856
37.450790
36.513805
35.830736
35.867691
34.298897
33.435822
32.878518
31.758547
30.702949
29.689670
28.964877
28.477907
26.746988
27.448535
27.092695
26.519895
27.270913
26.087761
24.972558
24.700761
22.899508
20.814538
19.397736
18.598437
17.059445
16.214848
14.571548
14.373660
13.477802
12.951493
11.804700
11.658669
11.184812
11.040568
10.271668
9.917617
9.851456
9.074807
9.316802
9.584427
9.043813
8.714795
9.327531
8.615851
8.695722
8.199811
8.321404
8.129478
8.432865
8.200407
8.712411
8.777976
8.475780
7.624626
7.918477
8.058548
8.385777
8.103848
7.933974
7.345676
##ZVALUE=275
1.229644
1.356602
1.270771
1.454949
1.775622
1.217723
1.740456
1.775622
1.458526
1.807809
1.576543
1.921654
1.834631
1.985431
2.168417
2.384782
2.492666
3.173947
3.545880
10.787845
43.051839
165.110826
358.545780
795.354843
1015.913486
1015.913486
1015.913486
1015.913486
1015.913486
1015.913486
1015.913486
1015.913486
1008.408666
651.226044
290.528536
154.173970
78.862906
77.692866
104.922652
127.506852
156.301856
172.592998
181.249976
175.339580
158.229470
139.153600
111.508965
91.463923
69.630742
58.633685
49.775839
44.333935
42.819977
43.565631
41.349530
40.117502
41.198730
40.403605
39.525628
37.703514
36.946535
36.680698
35.456419
34.695864
33.868551
32.384992
30.329823
29.780865
28.975606
28.659701
28.346777
28.073788
27.224422
26.146770
26.564598
24.474859
22.705793
22.178888
20.443797
19.317865
17.264485
16.095638
14.199615
14.237761
13.160706
12.065768
11.270642
11.340976
10.697842
10.365844
10.416508
9.502769
9.149909
9.378791
9.328723
9.331703
8.405447
8.094907
8.220673
8.402467
8.319616
8.355975
8.211732
7.710457
8.236766
8.064508
8.298755
7.997751
8.050799
8.321404
7.645488
7.871985
8.253455
7.138848
7.522702
7.546544
##ZVALUE=280
1.168847
0.961423
1.322627
1.297593
1.262426
1.243949
1.300573
1.288652
1.444817
1.449585
1.567602
1.523495
1.409650
1.524687
1.836419
1.919866
2.070665
2.327561
2.722740
3.007650
3.406405
6.123781
25.573969
119.898915
273.172855
626.158714
978.933573
1015.913486
1015.913486
1015.913486
1015.913486
1015.913486
1015.913486
1015.913486
1015.913486
847.953558
415.526628
211.087465
90.110898
66.920519
77.208877
105.448961
129.036903
158.456564
173.182487
180.455446
175.330639
157.763958
140.591860
118.707418
90.593696
73.800683
57.353973
49.756765
43.478608
42.304993
39.661527
39.043427
39.382577
39.799809
38.439631
37.528872
35.902858
35.392642
33.560991
32.395720
32.422543
30.785799
29.010773
28.924942
27.813911
27.419925
27.463436
26.894808
25.883913
24.864674
23.801923
21.520853
20.248890
18.511415
17.335415
16.326904
15.160441
14.574528
13.111830
12.527704
11.520982
11.370778
11.030436
10.341406
10.181665
10.439754
9.421706
8.762479
9.026527
9.297729
8.754730
8.262992
8.114576
8.054972
7.927418
7.798672
7.774830
7.591844
7.579923
6.799698
7.764697
7.813573
7.502437
7.281899
6.956458
7.210970
7.345676
6.727576
7.220507
6.791949
##ZVALUE=285
0.966787
1.158714
0.963807
1.142621
1.127720
1.067519
1.184940
1.283884
1.429915
1.226664
1.314878
1.275539
1.477599
1.455545
1.575947
1.530647
1.923442
1.849532
2.037883
2.241731
2.356768
2.669692
3.168583
4.260540
11.042953
63.395500
158.112645
329.562426
732.555985
1015.913486
1015.913486
1015.913486
1015.913486
1015.913486
1015.913486
1015.913486
1015.913486
1015.913486
586.891770
330.036879
133.120418
71.924925
57.740808
70.389509
98.859668
120.633841
148.706436
163.249969
172.113776
169.829726
152.749419
136.967897
109.016895
89.234710
65.234900
53.911805
42.531490
38.659573
36.253929
33.823848
32.262802
32.267570
31.149983
31.436682
30.017495
30.125976
28.686523
27.693510
27.511716
26.253462
25.534630
25.608540
24.998784
24.655461
23.509860
22.797585
20.417571
19.196868
18.169880
16.965866
16.210675
15.290976
14.429688
13.655424
12.700558
12.371540
11.066794
11.118650
10.347962
10.354519
9.564757
9.369850
9.138584
8.778572
8.597970
8.177757
7.977486
7.983446
7.824898
7.907748
7.774830
7.196665
7.825494
7.498860
7.366538
6.918907
7.507801
7.379651
7.276535
7.372499
6.945729
6.526709
6.505847
6.522536
6.590486
6.391406
##ZVALUE=290
0.912547
0.923872
1.020432
1.036525
0.877976
0.856519
1.042485
1.012683
1.107454
1.397729
1.326799
1.362562
1.296997
1.320839
1.417994
1.622438
1.458526
1.657605
1.786947
1.925826
2.082586
2.448559
2.143979
2.809763
3.038645
3.653765
4.942417
27.991533
88.849664
219.389796
537.374616
913.650990
1015.914679
1015.914679
1015.914679
1015.914679
1015.914679
1015.914679
1015.914679
1015.914679
941.512585
452.323556
229.722857
83.287954
45.290589
50.528646
65.018535
85.483789
110.845566
132.716894
153.827667
161.860585
159.603953
148.221850
122.925639
101.560950
77.276826
59.423447
44.284463
36.666989
29.786825
27.538538
25.362968
24.276972
24.791956
23.611784
23.651719
22.602677
22.982955
22.286773
21.798611
21.164417
20.877719
20.736456
19.663572
18.388629
17.334819
16.659498
15.670657
15.072823
14.030933
12.775660
12.173653
12.030602
11.392832
11.024475
10.571480
10.199547
9.908676
9.302497
8.886456
8.981824
8.810759
8.278489
8.136630
7.806420
8.072853
7.529855
7.500648
7.130504
7.396936
7.250905
7.070899
6.892681
7.024407
6.811619
6.828904
7.177591
6.924868
6.476641
6.978512
6.709695
6.410480
6.269813
5.983710
6.417632
##ZVALUE=295
0.925660
0.974536
1.014471
0.815988
1.066923
1.032948
0.908971
0.869632
1.056790
1.203418
1.206994
1.154542
1.080632
1.233816
1.077652
1.270771
1.337528
1.318455
1.351833
1.629591
1.636744
1.877546
1.949668
2.219677
2.404451
2.674460
2.685785
3.057718
3.723502
6.981492
46.926737
134.646893
382.520556
726.885796
1015.914679
1015.914679
1015.914679
1015.914679
1015.914679
1015.914679
1015.914679
1015.914679
1015.914679
683.812499
298.928618
139.271617
49.245954
33.179522
42.659640
57.447553
81.846714
99.834800
124.865770
139.955878
149.344802
145.681500
129.893422
113.806725
88.683963
70.999861
49.240589
36.772490
26.731491
21.831989
18.681884
17.709732
16.963482
17.051697
17.035604
16.671419
16.325712
17.018914
16.456842
16.149879
15.935898
14.767647
14.457703
13.325810
12.768507
11.851788
11.762977
11.054873
10.784864
10.041595
9.958744
9.974837
8.907914
8.936524
8.989573
8.255839
7.961988
8.148551
7.572770
7.401705
7.716417
7.567406
7.122755
6.734729
7.031560
6.776452
7.149577
7.178783
6.812811
6.608963
6.806850
6.320477
6.662607
6.797910
6.539822
6.669760
6.860495
6.206632
6.057620
5.941987
6.148815
5.719662
##ZVALUE=300
0.681877
0.824928
0.829697
0.727773
0.714660
1.146793
0.891685
0.900626
1.000762
0.939965
1.060963
1.002550
0.951886
1.163483
1.079440
1.185536
1.257658
1.378655
1.391768
1.455545
1.406670
1.646876
1.696944
1.677871
1.930594
2.266765
2.198815
2.499819
3.005862
3.186464
3.609657
4.725456
22.243857
79.433918
274.905562
532.146692
1009.123921
1015.914679
1015.914679
1015.914679
1015.914679
1015.914679
1015.914679
1015.914679
1015.914679
914.178491
447.721481
229.347944
80.096722
33.352971
26.525855
33.073425
49.508810
66.545606
89.774728
109.411478
128.921866
134.012699
131.975412
123.579502
103.638768
85.421801
61.035752
46.128631
29.576421
22.398829
16.098619
13.669729
12.431741
12.436509
12.494922
12.847781
12.249947
12.244582
12.144446
12.096763
10.987520
10.623932
10.486841
10.080934
9.423494
9.195805
8.705854
8.716583
8.362532
8.151531
7.640719
8.028746
7.531643
7.387996
7.193685
7.271767
7.122755
7.191896
6.463528
6.749630
6.724596
6.746650
6.523728
6.495714
6.360412
6.657839
6.314516
6.171465
6.523728
6.425977
6.429553
6.643534
6.573796
6.390810
6.192923
6.049871
6.027818
5.947948
5.896688
5.889535
##ZVALUE=305
0.640750
0.659823
0.920892
0.741482
0.804663
0.669956
0.739694
0.712872
0.820756
0.895858
0.859499
0.973940
1.122952
1.056790
1.015663
1.038909
1.176596
1.161695
0.980496
1.165867
1.236796
1.167655
1.396537
1.563430
1.626611
1.612902
1.910925
2.042651
2.200603
2.523661
2.646446
2.990961
3.311634
3.934503
10.657907
43.751001
178.806782
390.829444
865.980983
1015.913486
1015.913486
1015.913486
1015.913486
1015.913486
1015.913486
1015.913486
1015.913486
1015.913486
610.106587
330.280662
119.850636
47.450662
20.107627
21.606684
31.586885
42.339563
65.107942
81.788898
103.922486
116.372705
126.580000
125.662684
113.008618
98.190904
75.854659
59.533715
38.584471
27.993917
17.702579
13.742447
11.183619
10.605454
10.866523
10.503531
10.274649
10.192990
9.093881
8.974671
8.758903
8.468628
8.512735
7.805824
7.949471
7.607937
7.516742
7.557869
7.324815
7.092953
7.018447
6.947517
6.567836
6.804466
6.517768
6.611943
6.480813
6.549954
6.183982
6.018877
6.377697
6.415844
6.196499
5.868673
6.139874
6.502867
6.228685
6.025434
6.444454
5.892515
6.141663
6.488562
6.055832
6.092787
5.896688
5.843639
5.854964
6.077886
##ZVALUE=310
0.734925
0.702739
0.666976
0.744462
0.677705
0.716448
0.692606
0.748634
0.856519
0.800490
0.916719
0.925660
0.844598
0.778437
0.836849
0.865459
0.906587
0.843406
1.168847
1.257658
1.129508
1.189709
1.275539
1.423955
1.488924
1.345873
1.589656
1.573563
1.814961
2.170801
2.067685
2.366900
2.368689
2.731681
3.159642
3.383756
4.468560
22.837520
80.454946
268.396735
529.074669
1000.365615
1015.913486
1015.913486
1015.913486
1015.913486
1015.913486
1015.913486
1015.913486
1015.913486
964.823961
478.212833
241.825581
77.126622
28.082728
15.413761
18.325448
26.258826
37.046671
55.103898
71.819425
93.814731
107.350945
116.415620
117.147565
108.843446
94.579458
74.559450
55.985451
37.503839
27.526617
18.432736
14.153719
10.709763
9.618998
9.075999
8.176565
7.943511
7.917881
7.659793
7.260442
7.059574
7.270575
6.869435
6.960630
6.840825
6.953478
7.012486
6.796718
6.469488
6.538630
6.418824
6.528497
6.163716
6.248951
6.096959
6.031990
6.004572
5.887747
5.792975
6.168485
6.152987
6.613731
6.162524
6.590486
6.098747
6.044507
6.252527
6.360412
6.125569
5.906820
5.871654
5.922914
5.636811
5.940795
5.826950
##ZVALUE=315
0.612736
0.616908
0.777841
0.716448
0.760555
0.716448
0.755787
0.621676
0.717640
0.732541
0.759959
0.799894
0.806451
0.791550
0.913739
0.806451
0.879765
0.914931
1.086593
0.838637
1.129508
1.264811
1.259446
1.126528
1.304746
1.333952
1.474619
1.325607
1.750588
1.603961
1.678467
1.915693
1.962781
2.218485
2.257824
2.791882
2.840757
3.513694
3.824830
9.675622
39.597750
169.643760
371.933579
832.340717
1015.932560
1015.932560
1015.932560
1015.932560
1015.932560
1015.932560
1015.932560
1015.932560
1015.932560
656.367540
346.462727
117.397904
42.557716
15.139580
13.364553
17.233491
22.929907
35.336614
48.460960
68.310499
86.094737
103.785992
110.193491
110.313892
103.358626
86.075664
71.870685
52.037835
38.978457
24.620891
17.605424
11.462569
9.774566
8.174777
7.499456
7.194877
6.770492
6.607771
6.536841
6.704926
6.437898
6.499887
6.175637
6.326437
6.536841
6.150603
6.180406
6.217957
6.292462
6.226897
6.017685
5.982518
5.892515
6.030798
5.779862
6.058812
6.028414
6.090999
6.073713
5.955696
5.836487
6.020665
6.096959
5.963445
5.801916
6.137490
5.927682
6.263852
5.704761
5.608797
5.764961
5.831718
##ZVALUE=320
0.643730
0.494719
0.637770
0.581741
0.542998
0.716448
0.710487
0.621676
0.560880
0.746846
0.688434
0.927448
0.845790
0.809431
0.738502
0.651479
0.646710
0.819564
0.716448
0.786781
0.744462
1.019835
1.106858
0.903606
1.034737
1.087785
1.387596
1.304746
1.412630
1.429915
1.502633
1.559854
1.751781
1.716614
2.081990
2.109408
2.456903
2.531409
2.820492
2.960563
3.556609
4.356503
20.722747
75.192451
268.298984
539.214611
1010.057926
1015.914679
1015.914679
1015.914679
1015.914679
1015.914679
1015.914679
1015.914679
1015.914679
945.720673
432.670712
217.270851
69.309473
25.367737
12.246966
12.032986
15.440583
20.145774
30.716658
42.584538
62.519908
76.738596
94.571710
102.476478
104.015470
97.721815
84.544420
69.823861
50.230622
36.872625
23.128986
16.052723
10.347962
7.908940
6.990433
6.284714
6.007552
6.314516
6.275773
5.749464
5.841851
5.840659
6.280541
5.943775
5.875826
6.023645
6.255507
5.960464
5.863905
6.024837
5.706549
5.911589
5.998611
5.964637
5.847812
6.071925
6.084442
5.850792
6.054640
6.088614
6.025434
5.815625
6.104708
5.713701
6.010532
6.011724
5.716681
5.926490
5.548596
5.615950
##ZVALUE=325
0.622869
0.621676
0.648499
0.668764
0.660419
0.530481
0.582933
0.695586
0.578761
0.754595
0.625849
0.505447
0.639558
0.732541
0.629425
0.560880
0.772476
0.711679
0.858903
0.806451
0.866652
0.987649
0.923872
0.925660
1.204610
0.986457
1.263618
1.161695
1.224875
1.211762
1.316667
1.455545
1.485944
1.631975
1.566410
1.629591
1.910925
2.035499
2.182722
2.351999
2.780557
2.603531
3.298521
3.731847
10.874867
45.389533
181.506872
387.552977
856.810808
1015.913486
1015.913486
1015.913486
1015.913486
1015.913486
1015.913486
1015.913486
1015.914083
1015.913486
591.385961
316.931605
108.795762
38.464665
12.247562
10.778904
11.161566
13.512969
19.373894
27.415752
44.195652
59.652925
79.391003
89.591742
98.823905
98.580718
89.622736
79.560876
62.065721
47.682524
31.241775
21.023750
13.264418
9.480715
7.663965
6.483793
6.016493
5.868673
5.511642
5.516410
5.551577
5.585551
5.658865
5.543828
5.657673
5.652905
5.609989
6.073713
5.815625
5.878806
5.704761
5.659461
5.727410
5.723834
5.954504
5.802512
5.999804
6.107688
6.057620
6.019473
6.117821
5.945563
5.884767
5.797744
5.764961
5.937815
5.881786
5.636811
##ZVALUE=330
0.520945
0.494719
0.621676
0.612736
0.453591
0.636578
0.516772
0.638962
0.730753
0.580549
0.536442
0.585914
0.605583
0.517964
0.666976
0.713468
0.767708
0.699759
0.782609
0.659823
0.728965
0.762939
0.699759
0.787973
0.835657
1.079440
1.025796
0.988841
1.132488
1.197457
1.051426
1.172423
1.201630
1.311898
1.691580
1.536608
1.523495
1.562834
1.784563
1.883507
2.089739
2.100468
2.167821
2.850890
3.164411
3.554821
5.444884
19.865632
107.293725
258.197784
620.034933
982.980728
1015.914679
1015.914679
1015.914679
1015.914679
1015.914679
1015.914679
1015.914679
1015.914679
783.997774
431.945920
161.365867
65.039992
17.195940
10.315776
9.256601
10.123849
13.190508
19.327998
29.377937
40.381551
56.643486
70.278645
84.200501
90.531707
90.494752
83.863735
69.045424
57.563782
41.150451
30.330420
20.201802
14.374852
9.330511
7.425547
6.311536
5.498528
5.426407
5.533695
5.375743
5.212426
5.602837
5.600452
5.851984
5.494952
5.573630
5.298853
5.734563
5.766749
5.633831
5.867481
5.971789
5.976558
5.810857
6.022453
5.980730
6.274581
6.008744
6.297827
5.726814
5.886555
5.752444
5.812645
5.600452
5.428791
##ZVALUE=335
0.528693
0.476837
0.360608
0.417829
0.351667
0.560880
0.404716
0.532866
0.593662
0.656843
0.430942
0.529885
0.615716
0.592470
0.782609
0.607967
0.533462
0.502467
0.686646
0.710487
0.703931
0.707507
0.824928
0.680685
0.754595
0.784993
0.961423
0.893474
0.977516
0.770688
0.947714
1.205802
1.029968
1.094937
1.400709
1.249909
1.329780
1.148582
1.567602
1.654625
1.686811
1.778603
2.015829
2.132654
2.489686
2.424717
2.947450
3.257990
3.962517
8.916855
55.477619
157.963634
438.388586
776.998997
1015.914679
1015.914679
1015.914679
1015.914679
1015.914679
1015.914679
1015.914679
1015.914679
949.591398
576.272607
241.658688
102.453828
25.781989
11.537671
9.453893
9.008646
10.345578
12.230873
17.671585
25.315881
37.748814
49.144626
65.986514
76.550841
84.211826
84.759593
77.506900
68.517923
54.314733
42.372942
29.344559
21.215677
13.405681
10.443926
7.530451
6.126761
5.626678
5.611777
5.623698
5.185604
5.715489
5.307794
5.547404
5.440712
5.378723
5.401969
5.576611
5.877614
5.512834
5.922914
5.686879
5.823970
5.910993
6.094575
6.097555
5.940795
5.824566
6.015897
5.844831
5.633831
5.590916
5.562901
##ZVALUE=340
0.399947
0.416636
0.526905
0.500679
0.427961
0.538826
0.501871
0.605583
0.532866
0.486970
0.367761
0.661612
0.465512
0.433922
0.423789
0.722408
0.422597
0.647902
0.583529
0.597835
0.676513
0.654459
0.688434
0.588894
0.650883
0.748634
0.714660
0.748634
1.005530
0.944734
0.796914
1.002550
0.861883
1.060963
0.890493
1.129508
1.162887
1.232624
1.316667
1.359582
1.370907
1.376867
1.578927
1.671910
1.890659
2.145767
2.208948
2.397895
2.591610
3.117919
3.789663
4.762411
27.726889
95.003843
307.129025
607.234836
1015.913486
1015.913486
1015.913486
1015.913486
1015.913486
1015.913486
1015.913486
1015.913486
1015.913486
734.083652
329.065919
150.287747
36.555529
13.320446
9.636879
8.964539
8.781552
9.418726
11.921525
15.550852
24.855733
34.567714
49.393773
60.862899
72.363615
77.605844
78.028440
73.162913
63.480735
53.448677
39.394498
30.042529
19.353628
14.166832
9.134412
7.405877
6.417632
5.948544
5.740523
5.367994
5.296469
5.242825
5.136728
5.443692
5.551577
5.648732
5.594492
5.685687
5.956888
5.743504
5.798936
6.285906
5.895495
5.971789
5.985498
6.056428
5.905628
5.747676
5.896688
5.705953
##ZVALUE=345
0.475645
0.481606
0.434518
0.372529
0.671744
0.355840
0.467896
0.524521
0.598431
0.466704
0.498891
0.505447
0.537634
0.670552
0.604987
0.403523
0.476837
0.697970
0.611544
0.644922
0.695586
0.619888
0.641942
0.699759
0.566840
0.499487
0.610948
0.685453
0.677705
0.752807
0.800490
0.887513
0.919700
0.885725
1.114607
1.191497
1.004934
1.073480
0.982881
1.203418
1.264811
1.254678
1.278520
1.692772
1.587868
1.615882
1.761913
2.100468
2.143979
2.221465
2.446771
2.899766
3.196001
3.682971
11.337996
47.748685
197.358727
422.852635
917.330980
1015.913486
1015.913486
1015.913486
1015.913486
1015.913486
1015.913486
1015.913486
1015.913486
926.627517
416.121483
201.767683
64.978004
22.731423
10.320544
9.314418
8.529425
8.066893
8.693933
10.092854
14.908910
20.893812
32.422543
43.150783
54.886937
63.487887
70.958734
72.859526
69.440603
62.155724
49.766898
40.532947
28.873682
21.219850
14.062524
10.260940
7.748604
6.471872
5.777478
5.633831
5.361438
5.292892
5.159974
5.362630
5.492568
5.629659
5.747676
5.684495
5.956888
5.987883
6.161928
6.128550
5.962849
5.995631
5.907416
6.018877
5.853772
5.636811
##ZVALUE=350
0.540614
0.539422
0.449419
0.515580
0.545979
0.453591
0.542998
0.560880
0.434518
0.411868
0.429749
0.508428
0.479817
0.661612
0.451803
0.466704
0.560880
0.547767
0.563860
0.623465
0.747442
1.013875
0.611544
0.673532
0.628829
0.824928
0.610948
0.677705
0.860691
0.814795
0.770688
0.751615
0.930429
0.746846
1.133680
0.841618
0.969768
0.914931
0.951886
1.086593
1.176596
1.133680
1.274943
1.267791
1.491904
1.435876
1.496673
1.596808
1.813769
1.913905
1.896620
2.308488
2.293587
2.478957
3.018975
3.266931
6.101727
23.811460
117.144585
277.974010
672.719479
1015.913486
1015.913486
1015.913486
1015.913486
1015.913486
1015.913486
1015.913486
1015.914083
986.504555
512.508750
107.203722
96.672773
27.940869
11.882782
8.630753
7.728934
7.065535
6.819963
7.375479
8.973479
13.421774
18.808842
29.183626
37.487745
50.227642
57.116747
64.345598
66.880584
63.639879
58.660507
47.539473
39.088726
28.431416
20.905733
14.362931
10.701418
7.692575
6.561875
6.064773
5.540848
5.704761
5.656481
5.800724
6.051660
5.789995
5.978942
6.039739
6.168485
5.935431
6.043911
5.957484
5.444884
5.793571
5.571842
5.433559
##ZVALUE=355
0.620484
0.463724
0.402927
0.431538
0.706911
0.527501
0.476837
0.583529
0.545979
0.538826
0.644922
0.528693
0.575781
0.521541
0.566840
0.573993
0.577569
0.667572
0.661612
0.498891
0.655651
0.577569
0.662804
0.663996
0.811815
0.805855
0.612736
0.840425
0.782609
0.844598
0.736713
0.994802
0.900626
0.796914
1.051426
0.938773
0.984669
0.828505
0.921488
1.159906
1.239777
1.070499
1.327991
1.313686
1.521707
1.335740
1.457930
1.493692
1.359582
1.577735
1.630783
1.757741
2.175570
2.140999
2.561808
2.616644
2.965927
3.307462
4.026890
10.083914
65.655708
180.633664
491.060615
863.159895
1015.914679
1015.914679
1015.914679
1015.914679
1015.914679
1015.914679
1015.914679
1015.914679
672.100782
368.034840
145.969987
56.247711
13.962984
8.511543
7.625818
6.900430
6.378889
6.165504
6.912947
8.166432
11.540651
15.807748
24.832487
32.150745
43.875575
51.721931
58.563948
60.953498
59.267879
55.243969
45.628548
37.627816
28.301477
21.720529
15.246868
11.539459
8.340478
7.110834
6.391406
6.021857
6.129742
6.074905
5.803704
6.037951
5.868673
5.866885
5.832911
5.807877
5.640984
5.558729
5.473495
5.463958
##ZVALUE=360
0.539422
0.456572
0.613928
0.640750
0.517964
0.538826
0.527501
0.490546
0.474453
0.592470
0.485778
0.675917
0.593662
0.656843
0.627637
0.670552
0.575781
0.696778
0.639558
0.733733
0.627637
0.593662
0.762939
0.807643
0.696778
0.668764
0.882745
0.700951
0.833869
0.882745
0.820756
0.917912
0.853539
0.837445
1.004934
1.088977
1.008511
0.983477
0.986457
0.944734
0.891685
1.153946
1.215935
1.171827
1.365542
1.261830
1.365542
1.446605
1.374483
1.464486
1.555681
1.799464
1.907945
2.017617
1.988411
2.178550
2.492666
2.565980
2.929568
3.353953
3.841519
5.213618
28.517842
96.223354
319.977999
614.090562
1015.914679
1015.914679
1015.914679
1015.914679
1015.914679
1015.914679
1015.914679
1015.914679
901.165009
532.871485
216.700435
89.108944
21.086931
9.589791
7.374883
6.933808
6.473660
6.069541
5.928874
6.169677
7.557869
9.179711
14.360547
19.414425
28.451681
36.075711
46.301484
52.035451
56.165457
55.368543
51.580667
46.787858
37.701726
31.137466
22.187829
16.861558
11.349916
9.059906
7.217526
6.372929
6.411672
6.242990
5.967617
6.035566
5.786419
5.585551
5.283952
5.373955
5.384684
5.019903
##ZVALUE=365
0.461936
0.532866
0.501871
0.457764
0.359416
0.675917
0.577569
0.641942
0.591874
0.661612
0.576973
0.487566
0.612736
0.689626
0.616908
0.610948
0.742674
0.631809
0.606775
0.576973
0.667572
0.610948
0.453591
0.797510
0.861883
0.793934
0.824928
0.675917
0.849962
0.811815
0.743866
0.833869
0.811815
0.837445
0.758767
0.864863
0.881553
0.970960
1.035929
1.126528
1.170635
1.298785
0.996590
1.181960
1.170635
1.139641
1.233816
1.273751
1.310706
1.429915
1.474619
1.525879
1.733899
1.681447
1.800656
1.917481
2.159476
2.143979
2.355576
2.614856
2.906919
3.186464
3.868937
4.440546
12.290478
47.314763
193.709731
420.297980
942.764878
1015.914679
1015.914679
1015.914679
1015.914679
1015.914679
1015.914679
1015.914679
1015.914679
672.983527
285.735726
128.088593
32.734871
12.031794
7.537603
6.797910
6.072521
5.853772
5.746484
5.474687
5.805492
6.481409
8.595586
11.859536
17.953515
23.651719
32.448769
39.497614
46.101809
49.954653
51.137805
49.211979
44.090748
38.065910
29.917955
23.852587
16.918778
12.568831
9.279847
7.560849
6.459951
6.040931
5.823970
5.262494
5.353689
4.864931
4.919767
4.738569
##ZVALUE=370
0.492930
0.562668
0.590682
0.467896
0.258684
0.568628
0.508428
0.311732
0.371933
0.394583
0.422597
0.653863
0.466704
0.601411
0.574589
0.543594
0.568628
0.621676
0.608563
0.628829
0.582933
0.605583
0.665784
0.580549
0.654459
0.707507
0.604987
0.809431
0.722408
0.669956
0.621676
0.791550
0.797510
0.785589
0.744462
0.962615
0.799894
0.925660
0.923872
0.999570
1.015663
0.964999
1.085997
0.968575
0.927448
1.160502
1.174808
1.180768
1.199841
1.205802
1.258850
1.339912
1.254678
1.377463
1.494884
1.526475
1.686811
1.678467
1.755953
1.808405
1.979470
2.461672
2.724528
2.843738
3.085732
3.796816
6.298423
24.304986
132.722855
325.065851
767.560601
1015.914679
1015.914679
1015.914679
1015.914679
1015.914679
1015.914679
1015.914679
1015.914679
820.260644
391.495824
190.184712
59.636831
20.792484
7.648468
6.294847
6.114841
5.812645
5.603433
5.440712
5.448461
5.811453
6.592870
8.157492
11.293888
15.038848
21.670461
27.514696
35.819411
41.399598
46.835542
48.697591
46.592951
43.694973
36.769509
30.401945
23.237467
16.757846
13.317466
9.729862
8.248687
6.412864
5.724430
5.048513
4.840493
4.382730
##ZVALUE=375
0.428557
0.428557
0.472665
0.438690
0.554919
0.509620
0.369549
0.453591
0.450611
0.622869
0.568628
0.612736
0.614524
0.487566
0.481606
0.279546
0.539422
0.589490
0.533462
0.526905
0.652671
0.579953
0.713468
0.551939
0.501871
0.625849
0.783801
0.662804
0.709891
0.839829
0.733733
0.819564
0.853539
0.888705
0.630617
0.793934
0.746846
0.712872
0.787973
0.825524
0.759959
0.897646
1.012683
0.922680
1.055598
1.037717
0.912547
0.979900
0.906587
0.991821
0.925660
1.078844
1.174808
1.199841
1.169443
1.134872
1.423955
1.305938
1.432896
1.503825
1.594424
1.553893
1.921654
1.745820
2.208948
2.453923
2.598763
3.272891
4.364848
11.771917
65.799952
185.744762
526.023507
928.732753
1015.914679
1015.914679
1015.914679
1015.914679
1015.914679
1015.914679
1015.914679
1011.039019
576.820970
313.922763
113.695860
42.995811
10.991693
7.180572
6.027818
6.102920
5.696416
5.879998
5.755424
5.982518
5.739927
6.277561
7.105470
8.799434
12.403727
16.051531
23.789406
29.918551
37.994981
42.749643
45.613647
46.004653
43.038726
37.405491
32.495856
26.380420
19.564629
15.098453
10.601878
8.445978
6.179810
5.232692
##ZVALUE=380
0.363588
0.485778
0.444651
0.405908
0.410676
0.321865
0.338554
0.449419
0.327826
0.497699
0.335574
0.443459
0.498891
0.493526
0.410676
0.587702
0.429749
0.509620
0.496507
0.765920
0.418425
0.470877
0.511408
0.580549
0.522733
0.480413
0.619888
0.610948
0.569820
0.711679
0.832677
0.628829
0.746846
0.873804
0.851750
0.885725
0.887513
0.773668
0.783801
0.920892
0.861883
0.821948
0.997782
1.000762
0.850558
0.724792
0.836849
0.855923
1.042485
0.884533
1.146793
1.082420
1.098514
1.116991
1.169443
1.190901
1.069903
1.097918
1.039505
1.361966
1.361966
1.451969
1.513958
1.600981
1.736879
2.008677
2.160668
2.436638
2.922416
3.281832
4.076958
6.574988
36.207438
116.700530
368.551016
702.371001
1015.913486
1015.913486
1015.913486
1015.913486
1015.913486
1015.913486
1015.913486
1015.913486
757.408738
432.783961
169.832706
72.343946
18.046498
7.970929
6.808639
6.322861
6.422997
6.231666
6.123781
6.060600
5.610585
5.613565
5.506873
6.217957
8.033514
10.609627
15.680790
20.605922
28.470755
36.028624
40.404797
44.031739
44.135451
41.831732
38.258433
31.823516
26.643872
19.334555
14.819503
10.498762
##ZVALUE=385
0.424981
0.348687
0.330806
0.411868
0.479817
0.458956
0.332594
0.256896
0.362992
0.297427
0.319481
0.371933
0.421405
0.444651
0.525713
0.372529
0.443459
0.488758
0.335574
0.434518
0.332594
0.364780
0.508428
0.344515
0.587702
0.658631
0.658631
0.666976
0.705719
0.734925
0.723600
0.718832
0.823736
0.673532
1.035929
0.838637
0.804663
0.899434
0.865459
0.867844
0.976920
0.907779
0.791550
0.813603
0.854731
0.914931
0.874996
1.018643
0.967979
1.176000
1.044869
0.880957
1.076460
0.828505
0.995994
1.154542
1.091957
1.017451
1.039505
1.091957
1.262426
1.229644
1.305938
1.482964
1.538992
1.745820
1.854897
2.025962
2.444983
2.558827
3.040433
3.280640
3.609657
4.133582
14.539957
53.879619
216.239691
472.368598
979.007483
1015.914679
1015.914679
1015.914679
1015.914679
1015.914679
1015.914679
1015.914679
989.320874
643.361807
281.865001
130.312443
38.528442
13.095737
6.980896
6.622672
6.200671
6.288886
5.783439
5.419850
5.123615
4.928708
4.838705
4.929900
5.745888
6.951690
9.934902
13.237000
18.558502
23.326874
29.785633
34.880638
38.927794
40.128827
39.499998
37.029982
31.008720
24.926662
##ZVALUE=390
0.274777
0.343919
0.371933
0.412464
0.376701
0.339746
0.314713
0.344515
0.323653
0.367761
0.337958
0.358820
0.351667
0.301600
0.329614
0.395775
0.418425
0.426769
0.477433
0.422597
0.436902
0.514984
0.459552
0.431538
0.498891
0.553727
0.567436
0.721812
0.800490
0.709891
0.803471
0.805855
0.849962
0.882745
0.890493
0.934601
0.903606
0.891685
1.116991
1.043677
0.954866
1.028776
1.001954
0.892878
1.163483
1.074672
0.991821
0.955462
0.924468
0.968575
1.021624
1.080632
1.062751
1.120567
0.994802
1.237988
1.116991
1.077652
1.122952
1.256466
1.099706
1.237988
1.439452
1.186728
1.414418
1.618862
1.578927
1.786947
2.179742
2.354980
2.599955
2.784729
3.059506
2.940893
3.179908
3.392696
6.052852
37.895441
123.276711
386.867523
738.797784
1015.914679
1015.914679
1015.914679
1015.914679
1015.914679
1015.914679
1015.914679
1015.914679
866.573453
494.031906
192.917585
81.304908
19.389987
8.283854
6.303787
6.267428
5.827546
5.477667
5.393624
5.036592
4.865527
4.684925
4.731417
4.957914
5.519986
6.517768
8.313656
10.874867
15.569925
19.913912
25.632977
30.190945
35.527945
37.327409
37.697554
##ZVALUE=395
0.261664
0.462532
0.373721
0.241995
0.478625
0.286698
0.481606
0.437498
0.265837
0.379682
0.405908
0.423789
0.377893
0.359416
0.450611
0.255704
0.392795
0.290871
0.270605
0.381470
0.479817
0.487566
0.405908
0.433922
0.535846
0.612736
0.636578
0.667572
0.648499
0.687838
0.737906
0.817776
0.823736
0.838637
0.943542
0.899434
0.972748
1.092553
1.009703
1.036525
1.142621
1.127720
1.063943
1.193881
1.030564
1.100898
0.974536
1.109838
1.090765
1.064539
1.064539
1.201630
1.142621
1.114607
1.154542
1.040697
1.169443
1.241565
1.232624
1.137853
1.246929
1.294613
1.248717
1.328588
1.408458
1.490712
1.656413
1.719594
2.110600
2.236962
2.487898
2.444983
2.549887
2.525449
2.559423
2.681613
2.927780
3.044605
4.560947
15.598536
93.896985
233.493447
565.479994
951.658487
1015.913486
1015.913486
1015.913486
1015.913486
1015.913486
1015.913486
1015.913486
1015.913486
608.821511
320.223570
112.828612
44.183731
11.566877
7.061958
5.956888
5.778670
5.711913
5.611777
5.171895
5.396605
5.425811
5.248785
5.063415
5.035996
5.241632
5.460978
7.271767
8.970499
12.817979
16.721487
22.669435
28.605461
##ZVALUE=400
0.472665
0.454783
0.317693
0.335574
0.237823
0.375509
0.262856
0.375509
0.304580
0.286698
0.369549
0.319481
0.352859
0.197887
0.315905
0.439882
0.319481
0.426769
0.351667
0.420809
0.337958
0.425577
0.572801
0.316501
0.573993
0.634789
0.526905
0.656843
0.658631
0.655651
0.799894
0.607967
0.888705
0.845790
0.991821
1.034737
0.890493
0.934601
0.849962
0.990629
1.132488
1.137853
1.085997
0.965595
1.097918
1.187921
1.045465
1.139641
1.165867
1.200438
1.129508
1.079440
1.204610
1.056790
1.218915
1.011491
1.111627
0.915527
1.030564
1.109838
1.171827
1.174808
1.344681
1.278520
1.299977
1.518726
1.572967
1.793504
1.903772
2.012849
1.998544
2.170801
2.042651
2.233982
2.083778
2.286434
2.411604
2.369881
2.859831
2.987981
3.595948
7.723570
43.997765
130.882859
382.810831
708.048940
1015.914679
1015.914679
1015.914679
1015.914679
1015.914679
1015.914679
1015.914679
1015.914679
778.386593
457.383990
192.757845
84.416866
20.661950
8.264780
6.034970
5.694628
5.869865
5.649924
5.530715
5.828738
5.579591
5.483627
5.282760
4.834533
4.743934
4.761815
4.941821
6.007552
7.517934
10.991693
##END
