##TITLE=2-3
##FORMAT=SPECTACLE-ASCII V-1.2
##DATA TYPE=ULTRAVIOLET SPECTRUM
##SECOND TYPE=ULTRAVIOLET SPECTRUM
##DATE=04/04/18
##TIME=14:55:12
##SPECTROMETER/DATA SYSTEM=SPECTACLE
##XUNITS=NM EM
##YUNITS=ENERGY
##YFACTOR=1
##FIRSTX=220
##LASTX=450
##NPOINTS=116
##3DDATA=Equidistant
##ZUNITS=NM EX
##FIRSTZ=210
##LASTZ=400
##ZPOINTS=39
##XYDATA=(Y..Y)
##ZVALUE=210
30.511618
30.207634
20.839572
15.845895
14.281869
11.739731
10.550618
9.036660
7.208586
8.176565
5.817413
5.455613
6.311536
4.777908
4.570484
5.050898
5.722642
6.423593
6.449819
6.967783
7.427931
8.587837
8.577704
8.585453
12.000799
11.997819
13.453960
13.092756
15.768409
15.761852
16.706586
16.039610
16.635656
17.387867
18.685460
18.523932
19.180775
19.755960
19.752979
20.289421
21.967888
19.926429
20.143986
20.152926
20.527840
20.904541
20.835996
20.197630
21.733642
21.314621
22.387505
22.527575
20.433664
22.679567
23.110509
22.972822
22.790432
22.521615
22.594929
23.444891
22.188425
22.089481
23.219585
21.408796
23.298860
22.739768
24.781823
27.618408
29.325485
34.811497
41.106939
46.290755
53.905845
58.819652
63.512921
64.356923
68.694949
67.471862
63.667893
61.179996
55.260658
50.649643
44.846535
38.133860
29.954910
27.062893
23.001432
20.210743
24.174452
24.807453
29.855967
39.455891
49.666762
59.074759
74.734688
87.660551
105.082989
112.587810
121.675730
129.024982
131.628513
133.404732
127.179623
127.254725
118.933916
112.169981
102.988482
95.358491
86.232424
67.751408
54.199696
45.822859
36.487579
28.874874
25.038719
25.642514
##ZVALUE=215
106.466413
103.091598
77.113509
58.908463
44.897795
27.307868
20.983815
18.331409
16.971827
15.509725
14.355779
11.555552
9.728670
8.217692
6.247759
7.648468
6.203651
5.402565
6.677508
7.668734
7.240772
7.894635
8.510947
9.135604
10.759830
12.694597
13.227463
13.719797
14.780760
16.174912
17.471910
16.065836
17.568469
17.675757
19.097924
19.746423
18.588901
18.375516
21.257997
20.254850
21.711588
21.331906
20.539761
23.155808
20.761490
23.550987
21.958947
21.502972
22.436976
21.133423
23.728609
24.424791
23.792982
26.630759
23.324490
22.513866
24.375916
25.280714
23.895502
23.813844
23.858547
24.672747
22.998452
25.241971
22.612810
24.423599
24.968982
23.871660
28.028488
31.492710
35.209656
39.661527
45.466423
50.119758
53.574443
58.343410
56.885481
52.565932
53.249002
50.451756
44.676661
41.774511
38.812757
34.789443
29.382706
25.075674
21.003485
17.528534
16.724467
16.546845
16.791821
15.992522
17.305613
19.493699
25.051832
34.586787
41.136742
57.218671
73.508620
93.180537
112.180710
131.889582
151.014924
163.453817
179.297924
188.962817
185.656548
187.080503
177.191496
173.339844
163.054466
144.266486
129.743814
109.639764
92.527866
68.022609
##ZVALUE=220
222.465992
218.333602
210.577846
186.719894
154.774785
106.524825
75.073838
47.546625
37.227869
30.169487
25.189519
25.311708
24.349689
20.099878
17.104745
12.448430
11.160970
8.533597
6.958842
8.029938
8.012652
7.309914
8.074641
9.260774
10.393858
11.073947
12.451410
11.622906
12.410879
13.342500
15.815496
16.606450
16.926527
15.416741
17.018914
20.627975
20.317435
21.234751
22.119880
21.431446
24.514794
24.550557
23.283958
23.402572
25.853515
24.363995
25.568604
27.641654
29.383898
26.222467
31.035542
28.233528
29.536486
29.415488
30.123591
29.106736
28.465986
28.691888
28.504729
29.131770
26.855469
26.277900
25.931001
26.936531
26.875734
26.753545
27.896762
26.539564
31.146407
31.405687
34.170747
39.008856
43.932796
47.160983
48.751831
51.776767
49.747825
51.125884
48.630834
45.232773
43.105483
38.182735
35.589933
31.927824
27.222633
23.117661
20.587444
19.071698
16.837716
17.400980
15.834570
14.893413
15.609860
15.093684
14.573932
15.248656
15.878677
16.913414
18.441677
22.411942
34.478903
46.540499
65.999627
88.130832
120.406747
145.859718
179.468989
217.144489
233.460665
259.389877
276.515484
285.201669
290.930867
272.600651
266.079903
238.200426
##ZVALUE=225
261.555910
273.144841
317.245722
358.475447
367.720723
321.824551
276.107788
194.794536
143.664479
101.269484
62.541962
46.372414
43.561459
41.962862
40.734410
38.374662
29.699802
23.345947
17.381907
12.869835
11.076927
9.144545
9.470582
8.763671
9.528995
10.783672
10.573864
11.626482
12.408495
13.387799
15.273690
14.805794
17.117858
16.860962
17.812848
21.152496
20.560622
22.565722
24.319887
24.360418
25.961995
25.108457
28.650761
27.791858
27.993917
28.618574
30.338764
30.707717
32.109618
31.953454
31.981468
33.922791
35.022497
33.799410
34.519434
35.332441
33.974648
32.052994
33.907890
33.493638
33.941865
32.526851
31.389594
31.073689
31.102896
31.912923
31.476617
33.044815
33.286810
33.553839
38.344860
38.283467
43.012500
44.786930
44.810772
45.871735
45.920610
45.375824
42.305589
40.983558
37.183762
36.691427
29.679537
26.960969
24.659634
20.886660
19.990802
19.324422
18.620491
15.801787
17.150640
15.437603
16.489625
15.332699
15.152693
16.068816
15.512705
14.583468
14.064908
15.809536
14.498830
15.532970
16.726851
21.103621
27.773976
43.488741
61.317682
91.840625
115.795732
164.771676
196.269751
253.578424
291.344523
345.330834
375.355482
410.766602
##ZVALUE=230
167.104602
173.560977
280.310512
390.499830
485.460758
576.424003
590.675473
548.876524
474.501848
353.782773
263.284445
154.849887
107.408762
75.194836
64.118505
64.911842
65.339804
61.996579
52.738786
43.093562
33.201575
24.847984
17.810464
15.089512
11.636615
10.700822
10.961890
10.903478
13.203621
12.852550
14.469624
13.692975
14.446974
15.942454
16.859770
18.285513
20.291805
22.383928
23.327470
26.648641
25.945902
26.711822
28.121471
31.325817
31.085610
33.895969
34.333467
33.346415
36.054850
34.621954
38.287640
34.427643
37.618876
36.784410
35.863519
36.826730
36.356449
38.909912
37.282705
34.416914
38.586855
35.946965
34.312606
35.246611
34.871697
34.742951
33.115745
32.260418
34.668446
39.358735
40.838718
43.665767
45.872927
48.793554
47.397614
50.919652
49.134493
47.678947
41.825771
39.442778
37.520528
31.728745
29.889941
26.105642
24.093986
22.528768
21.808743
21.888614
20.419955
19.364953
20.753741
19.415617
18.721819
17.906427
17.123818
18.951893
17.435551
17.103553
16.522408
16.972423
17.059445
16.258955
16.805530
16.496778
16.502738
18.501878
16.374588
18.046498
23.426414
34.802556
48.145652
82.115531
111.254454
170.836449
217.629671
292.312503
##ZVALUE=235
47.164559
50.313473
125.142932
220.365524
359.008908
573.164821
733.387470
904.628634
970.946550
935.851932
849.133730
662.356615
512.607694
333.310962
238.958597
145.377517
108.014941
89.864731
93.673468
91.648698
85.966587
75.471997
57.186484
45.650601
31.243563
23.366809
16.847849
15.280843
14.461875
14.307499
14.546514
15.854836
16.669631
17.837882
18.130541
21.172762
20.717978
23.310781
24.038553
25.748610
26.816726
29.441714
30.783415
32.028556
31.514764
34.195781
36.890507
34.633875
36.507845
36.579967
34.612417
36.481619
35.498738
36.675930
37.817955
38.283467
39.407611
37.704706
37.577748
38.335919
33.988953
36.340952
33.327937
34.777522
33.751726
33.373833
34.442544
36.222935
36.995411
38.585663
39.618611
44.284463
48.616529
51.291585
48.977733
48.414469
48.249960
45.588613
42.973757
38.096905
37.938952
34.539700
32.941699
30.043721
24.430752
25.283694
23.097992
21.610856
22.524595
21.186471
20.641685
20.712614
19.117594
18.449426
19.875765
18.558502
20.147562
20.442605
18.146634
18.229485
18.344522
18.969774
17.314553
18.262863
19.023418
17.964840
17.642975
18.249750
17.573833
17.445683
19.842982
17.069578
19.195676
26.405454
37.757754
64.150691
##ZVALUE=240
3.674626
4.346967
16.174912
44.827461
124.711990
232.949853
461.765528
701.547861
1007.729769
1015.913486
1015.913486
1015.913486
1015.913486
1001.808643
783.607960
497.821569
329.524875
191.354752
134.148598
114.638805
116.958618
128.410459
119.335651
109.907985
86.269975
71.061850
50.497651
40.305853
27.190447
20.822883
16.650558
17.808676
16.479492
18.270612
17.511845
19.584894
20.941496
23.661852
22.981763
24.871826
22.964478
26.469827
27.952790
27.002692
27.108788
29.609799
29.576421
29.454827
32.201409
31.302571
32.775998
30.943751
32.938719
32.213926
31.426549
31.279922
32.383800
31.467676
31.408668
31.657815
30.494928
30.834675
31.396747
28.228760
30.612946
28.016567
29.766560
30.943751
32.530427
34.429431
37.272573
41.413903
45.019984
44.498444
46.926737
46.322942
41.705966
42.758584
40.274858
36.308765
32.969713
29.050708
29.268861
27.797818
25.430918
23.221970
22.335649
21.611452
19.030571
19.330978
18.712878
20.277500
18.151999
18.875599
19.649863
17.846823
17.745495
18.188953
17.766953
17.183423
16.334653
17.281771
17.087460
17.158985
17.577410
17.476678
18.858910
17.512441
15.872717
16.879439
17.537475
17.673969
18.342733
17.032623
16.145706
15.855432
##ZVALUE=245
2.577901
3.390908
3.600717
3.878474
7.397532
33.689737
85.566640
232.792497
411.658883
725.127459
1002.992988
1015.913486
1015.913486
1015.913486
1015.913486
1015.914083
1002.816558
678.363442
442.417860
237.153769
151.712894
119.370818
116.956830
133.092999
135.805607
134.294629
119.153857
100.854635
78.954697
60.276985
42.445660
30.069947
20.489693
18.570423
17.755628
18.345714
18.099546
17.203689
20.117760
18.803477
20.469427
21.293759
22.062659
22.582412
23.146868
24.124980
23.479462
23.083687
24.670959
24.455786
23.836493
24.557710
23.558736
25.473833
25.089979
25.671721
24.475455
24.699569
25.266409
24.844408
25.655627
24.251938
23.602843
23.614764
24.982691
22.080541
24.750829
26.062727
24.761558
28.107762
31.842589
32.430887
34.745932
36.324859
36.266446
36.987662
35.105944
35.983920
32.184720
29.148459
28.257966
25.801659
23.163557
19.745827
19.218922
17.454624
17.244816
16.017556
16.742945
16.567707
16.334653
15.084743
16.325712
15.534759
16.019940
16.078949
14.627576
16.185641
15.223622
15.253425
15.290976
15.402436
14.402866
15.260577
15.236735
13.961792
13.760924
15.369654
14.682412
15.371442
13.802648
14.671683
14.270544
13.894439
13.994575
14.049411
##ZVALUE=250
2.508759
2.393723
2.398491
2.337694
2.830625
2.918839
4.699826
22.151470
64.069629
180.269480
348.457694
687.790513
983.617902
1015.913486
1015.913486
1015.913486
1015.913486
1015.913486
1015.913486
941.726565
649.060011
347.293615
202.586651
130.821466
113.479495
124.214888
139.661431
143.276453
139.051676
126.552582
104.742646
88.041425
59.817433
44.470429
29.650927
25.704503
20.407438
18.626451
19.470453
20.240545
19.545555
19.639730
21.553636
21.364689
21.509528
22.503734
22.886992
22.446513
24.107695
22.705793
23.550987
24.449825
23.141503
24.574995
22.218823
23.475885
21.916628
22.465587
20.830631
22.359490
22.303462
22.625923
23.118854
21.508932
20.238757
19.752979
20.234585
21.235943
22.355914
22.704601
27.675629
26.033521
29.419661
30.834675
31.314492
31.387806
28.500557
26.087761
25.299788
23.392439
22.819638
18.798709
18.682480
18.610954
16.496778
15.307665
14.345646
14.028549
13.600588
13.318658
13.295412
12.999773
12.937784
11.887550
13.663769
12.301803
12.239814
12.324452
11.946559
12.332797
12.560487
12.055635
12.648702
13.540983
13.596416
13.120770
13.322830
13.225675
11.777878
12.319684
11.822581
12.724996
11.860728
12.167692
11.725426
13.019443
##ZVALUE=255
2.014637
2.017617
2.160668
2.196431
2.304912
2.631545
2.743602
2.670884
3.453493
11.192560
37.058592
134.329796
279.327631
589.004755
897.235870
1015.914679
1015.914679
1015.914679
1015.914679
1015.914679
1015.914679
1015.914679
850.359797
458.728671
260.668993
135.172606
110.470653
111.985803
131.374002
147.965550
153.482556
152.920485
134.890676
113.190413
87.500811
68.026781
46.522617
34.385920
26.422739
22.964478
21.133423
20.181537
21.401644
21.313429
22.688508
22.880435
23.353696
24.044514
23.714900
22.723675
24.562478
24.736524
23.327470
24.166703
24.534464
25.293827
23.323894
25.607944
23.798943
23.098588
23.695827
23.183823
21.566749
22.122860
22.151470
21.299720
20.811558
21.242499
22.347569
22.823811
23.179650
24.831891
25.715828
25.566816
27.199984
26.455522
26.500821
23.263693
21.841526
19.315481
19.010901
17.064810
16.617775
15.443563
13.979673
13.541579
12.915730
12.295842
11.836886
11.598468
11.720657
11.698604
11.604428
11.266470
10.578632
10.826588
10.674000
10.504723
11.272430
10.086894
10.456443
11.425614
11.015534
10.629892
10.838509
10.877848
10.771751
11.678934
11.130571
10.496974
11.113882
10.521412
10.521412
10.614991
10.894537
10.891557
##ZVALUE=260
1.725554
1.693964
1.825690
2.082586
2.002716
2.223849
2.270937
2.151728
2.565980
2.669692
3.098845
5.579591
19.166470
85.501671
187.975764
448.674560
729.249716
1015.913486
1015.913486
1015.913486
1015.913486
1015.913486
1015.913486
1015.913486
1015.914083
649.678707
407.720804
241.285563
122.558475
98.382831
113.568902
135.787725
153.626800
164.495707
157.161951
142.484903
120.226741
98.387599
68.990588
53.818822
39.019585
30.646920
27.145743
25.108457
25.482774
25.067925
25.938749
26.472807
26.178956
27.442575
28.308630
28.233528
27.960539
29.020905
27.900934
28.349757
27.668476
27.976632
26.499629
28.111935
25.904775
26.003718
24.572611
23.930669
23.807883
24.601817
23.018718
23.041964
22.532940
22.803545
24.910569
24.554729
24.496913
24.837852
24.783611
22.859573
22.764802
20.716786
20.682812
19.524693
17.066598
16.186833
14.759898
14.471412
12.565851
12.549758
11.529922
11.242628
11.819601
10.194778
10.794997
10.394454
10.551810
9.886622
9.835958
10.001659
10.327697
9.308457
9.416938
9.283423
10.057688
10.020733
10.189414
9.942651
9.871721
9.948611
10.679960
9.423494
9.682775
9.416938
9.498596
9.278655
9.460449
8.730888
9.077787
9.567738
##ZVALUE=265
1.451969
1.300573
1.602769
1.811981
1.948476
1.716614
1.669526
1.915693
2.320409
2.268553
2.273917
2.978444
3.213882
4.273653
10.074973
52.412748
131.317973
347.452760
610.509515
1015.913486
1015.913486
1015.913486
1015.913486
1015.913486
1015.913486
1015.913486
1015.914083
989.582539
560.013652
321.054459
149.526596
96.973777
95.826983
118.489861
148.136616
161.970854
168.741941
164.379478
145.911574
126.483440
99.585652
79.622865
57.101846
46.139956
36.912560
33.440590
31.260848
31.888485
32.131672
32.839775
32.845736
33.458471
32.793880
32.404661
33.745766
34.004450
33.375621
31.228662
32.696724
31.465888
30.697584
29.943585
29.440522
28.642416
27.719736
26.737452
25.598407
25.370717
25.079846
24.702549
25.957823
25.751591
25.596619
26.003718
25.917888
23.783445
22.511482
21.417737
19.948483
18.380880
16.477704
15.478730
14.978647
13.625622
13.543963
13.063550
11.846423
11.223555
11.487603
10.360479
10.816455
10.486841
10.586977
9.943843
9.175539
9.195805
9.332895
9.492636
8.596778
9.333491
9.430647
9.026527
9.393692
9.184480
9.240508
8.710623
9.353757
8.698702
9.268522
9.332895
8.955598
9.203553
8.899570
8.074641
8.309484
8.309484
##ZVALUE=270
1.093745
1.762509
1.601577
1.767874
1.462698
1.664758
1.707673
1.672506
2.021790
2.029538
2.159476
1.944900
2.524853
2.811551
2.882481
3.395677
4.583001
24.186969
76.857805
248.365998
480.283499
947.012901
1015.914679
1015.914679
1015.914679
1015.914679
1015.914679
1015.914679
1015.914679
1015.914679
792.056918
475.120544
216.639638
115.174651
82.083941
96.670985
126.149654
150.029659
169.886947
175.457001
171.958804
157.038569
133.838654
112.195611
84.700584
68.947673
52.125454
45.519471
39.880872
39.426684
38.488507
39.602518
38.979650
39.583445
39.754510
37.828684
38.439631
38.281679
37.885904
36.714673
34.653544
34.788847
34.770966
32.694936
31.599998
30.884743
28.907657
29.151440
27.970672
27.798414
26.851892
26.849508
27.334690
26.494861
26.037693
24.893880
23.359656
21.856427
20.686984
18.065572
17.022491
16.466975
14.963746
14.308691
13.833642
13.193488
12.295842
12.178421
11.644959
10.266900
11.039972
10.363460
9.579659
10.184646
9.408593
9.220839
9.074807
8.878708
8.521676
8.475780
8.791685
9.197593
8.849502
8.767843
8.495450
8.620620
8.966923
8.655787
8.995533
8.356571
8.066893
8.455515
8.120537
8.271933
8.347631
7.859468
##ZVALUE=275
1.228452
1.275539
1.410842
1.488924
1.598597
1.317859
1.356602
1.463890
1.545548
1.917481
1.749992
2.026558
1.758933
2.162457
2.201796
2.441406
2.479553
3.188848
3.691912
10.737777
43.965578
164.721608
357.584953
800.581574
1015.914679
1015.914679
1015.914679
1015.914679
1015.914679
1015.914679
1015.914679
1015.914679
1015.914679
678.357482
310.505629
162.628889
81.467628
78.967810
105.303526
126.826763
155.979991
173.966885
182.389617
177.677870
159.166455
140.120983
113.693476
92.836618
72.610974
60.662627
50.652623
45.783520
43.535829
43.401718
42.370558
42.264462
41.450858
40.924549
40.399432
39.233565
38.371682
36.801696
36.865473
35.927892
34.291744
34.235716
33.098459
31.050444
30.567646
29.499531
29.573441
28.918982
28.075576
28.554797
26.300550
26.300550
24.536848
22.433996
21.154881
18.987656
18.061996
16.722679
16.090870
14.892817
14.960766
13.207793
12.681484
11.996627
11.097789
11.323690
10.418892
10.216832
10.298491
9.705424
9.552836
9.309649
9.069443
8.818507
8.496642
8.637905
8.680820
8.316636
7.787943
8.501410
8.338690
8.510947
8.303523
8.288622
8.459687
7.977486
8.201599
8.098483
7.896423
7.768869
7.626414
7.392764
##ZVALUE=280
1.379848
1.112819
0.968575
1.027584
1.110435
1.276731
1.157522
1.373887
1.476407
1.343489
1.736879
1.580715
1.648664
1.746416
1.962781
1.996756
2.043843
2.489686
2.653599
3.054738
3.204942
6.127954
24.595857
118.223429
270.981789
626.213551
980.731845
1015.913486
1015.913486
1015.913486
1015.913486
1015.913486
1015.913486
1015.913486
1015.913486
892.665982
442.067981
228.126645
94.760656
67.592859
79.806447
101.109743
132.151842
152.012706
173.770785
181.761980
174.507499
161.437988
138.044953
117.954612
90.807676
72.705746
58.459640
49.945712
45.609474
43.402910
40.526986
40.345788
39.264560
39.104819
37.742853
38.235784
36.735535
35.795569
35.014749
33.528805
32.372475
32.359958
30.551553
30.043721
29.354692
29.107928
28.591752
27.572513
26.268959
25.777817
23.020506
21.805763
19.971728
19.580722
17.688870
16.894937
16.057491
15.178919
14.551878
13.335943
12.819767
12.304783
11.574626
11.416674
10.855794
10.018945
9.804964
9.514689
9.224415
9.251833
9.334683
8.726716
8.604527
8.904934
8.646846
8.867979
8.363724
8.317828
8.162856
7.884502
7.927418
8.134842
7.767677
8.101463
7.629991
7.986426
7.378459
7.478595
7.234812
7.130504
##ZVALUE=285
1.202822
1.062751
0.951886
1.280904
1.219511
1.077652
1.098514
1.003742
1.329780
1.283884
1.431704
1.270771
1.313686
1.570582
1.621842
1.915693
1.969934
1.832843
2.090931
2.209544
2.863407
2.714992
3.032684
3.581643
12.566447
47.343969
167.669058
356.607437
781.845450
1015.913486
1015.913486
1015.913486
1015.913486
1015.913486
1015.913486
1015.913486
1015.914083
1015.913486
641.883016
365.612507
151.463747
75.872540
57.189465
70.616603
98.031759
121.849775
146.561861
163.128972
172.645450
170.302987
153.332949
135.350823
109.128952
90.598464
67.676902
55.768490
43.537617
39.765835
35.757422
35.804510
33.786893
33.174753
33.089519
31.738877
30.784607
29.700994
30.212998
28.895736
27.509928
26.896000
27.114749
26.184916
25.278926
25.744438
24.306774
23.133755
21.848679
20.404458
19.684434
18.439889
16.660690
16.027689
14.775991
14.315844
13.537407
13.501644
12.029409
11.864901
11.143684
10.405779
10.290742
10.318756
9.597540
9.319782
9.665489
8.898973
8.884668
8.987784
8.204579
8.269548
8.276701
7.771850
7.953644
8.017421
7.760525
8.081794
7.977486
7.811785
7.601976
7.964969
7.358789
7.662773
7.591844
6.895661
6.958842
6.930828
##ZVALUE=290
1.036525
0.860691
1.100898
1.140833
0.929832
0.996590
1.093745
1.170635
1.197457
1.139641
1.319647
1.247525
1.348853
1.402497
1.502633
1.660585
1.642704
1.893640
1.907945
1.932979
2.143979
1.916885
2.540946
2.612472
3.029704
3.150702
5.444884
19.805431
98.739862
230.129361
448.609591
944.383740
1015.914679
1015.914679
1015.914679
1015.914679
1015.914679
1015.914679
1015.914679
1015.914679
951.916575
468.119979
238.796473
86.813569
46.856999
49.641728
65.502524
87.396502
109.514594
135.728717
152.236819
160.915852
161.100626
145.158768
127.637982
100.282431
79.918504
59.624910
46.713948
36.347508
30.607581
27.752519
26.690960
25.863647
25.129914
24.540424
23.502707
23.819804
23.486614
22.705793
23.215413
22.053719
21.624565
21.384954
20.467639
20.219684
18.468499
17.369986
16.249418
15.187860
15.177727
14.234781
13.980865
12.454987
12.800694
11.549592
11.391640
10.875463
10.073781
10.268688
10.005832
9.441972
9.265542
9.143949
8.454919
8.755922
8.081794
7.898808
7.825494
7.967949
8.113980
7.946491
7.838607
7.440448
7.724762
7.792711
7.965565
7.965565
7.102489
7.529855
7.463694
7.027984
7.065535
6.400943
6.662607
6.360412
##ZVALUE=295
1.104474
0.906587
0.946522
0.981688
0.933409
1.083612
0.900626
0.986457
1.052618
1.121759
1.045465
1.059771
1.242757
1.242757
1.457930
1.334548
1.484752
1.657605
1.532435
1.528859
1.794696
2.068877
2.206564
2.056956
2.689958
2.411604
2.582669
3.500581
7.190704
8.644462
94.850659
135.428309
699.114799
829.647779
1015.913486
1015.913486
1015.913486
1015.913486
1015.913486
1015.913486
1015.913486
1015.913486
725.345612
673.511624
312.322974
144.244432
49.600601
33.065677
41.319728
56.084991
79.701543
99.644661
124.199986
139.033794
149.862766
146.772861
130.676627
115.027428
90.912580
71.678758
50.484538
37.705898
27.169585
23.055673
19.512773
18.188953
17.783642
17.764568
17.776489
17.227530
17.161965
17.585754
17.630458
17.026663
16.700625
16.052723
15.457869
14.524460
13.440847
12.849569
12.386441
11.932850
11.678934
10.888577
10.938644
10.212660
10.274649
9.997487
9.637475
9.443760
9.051561
8.674860
8.428693
8.757710
8.242726
8.379817
7.820725
7.802844
7.863641
7.680655
7.837415
7.634759
7.472634
7.070899
7.459521
7.453561
7.572770
7.366538
7.065535
7.312894
7.318854
6.998777
6.840825
6.964803
6.456971
6.430745
##ZVALUE=300
0.871420
0.916719
0.833869
0.709891
0.861883
1.090765
0.942945
0.989437
1.013875
1.001954
0.992417
1.135468
1.061559
1.044869
1.256466
1.082420
1.145601
1.226664
1.208782
1.399517
1.332760
1.810789
1.610518
1.699924
2.069473
2.117753
2.150536
2.722740
2.881885
2.955794
3.551841
4.369617
18.612742
73.002577
256.589651
507.333875
991.628766
1015.913486
1015.913486
1015.913486
1015.913486
1015.913486
1015.913486
1015.913486
1015.914083
947.241783
470.744967
236.432552
77.559948
32.979846
26.218891
33.609867
49.785972
66.346526
90.817809
110.153556
130.028725
136.133432
133.554935
124.554634
104.838610
86.287856
62.018633
46.899915
31.078458
23.180842
16.890764
14.329553
12.957454
13.159513
13.188720
13.114810
13.813972
13.552904
13.089776
12.626648
12.209415
11.572838
10.879636
10.479689
10.567904
10.160804
9.588599
9.451509
8.928776
9.357929
8.971691
8.749962
8.360744
8.091927
8.036494
8.416772
7.815957
7.928610
7.823706
7.608533
7.321835
7.509589
7.120967
7.180572
7.298589
7.131696
7.177591
7.167459
7.446408
7.147789
7.195473
7.140636
6.580949
7.460713
7.236600
6.681681
6.924868
6.666780
6.805658
6.756783
##ZVALUE=305
0.737906
0.624657
0.710487
0.667572
0.622869
0.745654
0.881553
0.725985
0.817776
0.973940
0.956655
0.725985
0.891685
1.092553
1.036525
1.062751
1.008511
1.235604
1.038909
1.145601
1.274943
1.332760
1.281500
1.695752
1.578927
1.655817
1.859665
2.155900
2.117753
2.404451
2.249479
2.915859
3.300905
4.023910
7.642508
50.700903
147.835612
422.390699
768.387914
1015.867591
1015.867591
1015.867591
1015.867591
1015.867591
1015.867591
1015.867591
1015.867591
1015.867591
697.133541
304.611921
140.255690
42.745471
21.449924
22.204518
29.453635
45.120716
61.300993
84.107518
102.187991
118.537545
125.530958
124.687552
114.915967
96.294880
79.139471
55.565834
41.675568
27.462840
19.771457
14.316440
12.657642
11.832714
11.632442
11.227727
11.093616
10.365844
10.264516
9.700656
9.335876
9.626746
9.103417
8.730888
8.755922
8.598566
8.459687
8.283854
8.508563
7.768869
7.683635
7.748604
7.831454
7.387996
7.212758
7.512569
7.292628
7.335544
7.068515
7.005930
7.199645
6.912947
6.824732
7.295609
6.976724
6.941557
6.825924
7.077456
6.807446
6.954670
6.983876
6.807446
6.821752
6.776452
6.720424
6.498694
6.525517
6.586909
##ZVALUE=310
0.654459
0.817776
0.785589
0.725985
0.807643
0.755787
0.712872
0.696778
0.892878
0.780821
0.786781
0.891685
0.830889
0.806451
0.887513
0.932813
1.025796
1.094937
1.010895
1.139641
1.229644
1.344681
1.455545
1.440644
1.713634
1.601577
1.507998
1.670718
1.785755
1.988411
1.994967
2.315640
2.551675
2.738833
3.367662
3.585815
4.789829
15.990734
91.359615
225.500464
560.993552
956.233740
1015.914679
1015.914679
1015.914679
1015.914679
1015.914679
1015.914679
1015.914679
1015.914679
900.691748
522.588491
209.679008
88.952780
25.911927
15.578866
19.086599
25.515556
38.134456
51.684976
74.356794
90.469718
108.980536
116.436481
118.968487
111.236572
93.453526
77.380538
54.930449
41.065812
26.473999
19.439459
14.436841
11.916757
10.530949
9.701848
9.206533
8.948445
8.495450
8.320808
7.879734
7.594824
7.546544
7.980466
7.454753
7.178783
7.340908
7.872581
7.463694
7.451773
7.154942
7.162690
6.710887
6.914735
7.249713
6.797910
6.682873
6.896853
6.737709
6.885529
6.979704
6.995797
6.810427
6.790757
6.842613
6.828904
6.672740
6.653666
7.154942
6.967783
6.860495
6.520748
6.551743
6.236434
6.474853
6.241798
##ZVALUE=315
0.593662
0.675917
0.682473
0.639558
0.630617
0.695586
0.694990
0.856519
0.730753
0.836849
0.787973
0.681877
0.877976
0.715852
0.687838
0.973940
0.958443
0.954866
1.148582
0.859499
0.976920
1.063943
1.167655
1.318455
1.402497
1.102686
1.535416
1.554489
1.583695
1.666546
1.858473
2.089739
1.964569
2.439618
2.658963
2.687573
3.105998
3.402829
3.767610
7.401705
46.071410
137.316585
402.196050
746.605992
1015.914679
1015.914679
1015.914679
1015.914679
1015.914679
1015.914679
1015.914679
1015.914679
1015.914679
701.025724
313.782692
139.215589
35.712719
15.961528
14.017820
16.384721
23.853779
33.774972
51.292777
65.207481
87.207556
100.139976
111.751556
111.915469
103.022456
89.559555
69.327950
55.025816
38.359761
27.818680
18.183589
13.959408
10.109544
8.681417
7.967949
7.734895
7.344484
7.193685
7.415414
6.982684
7.123947
6.711483
6.628633
6.940961
7.157922
6.404519
6.812811
6.862879
6.681681
6.358624
6.820560
6.923676
6.917715
6.596446
6.585717
6.639957
6.565452
6.715655
6.560683
6.647706
6.714463
6.708503
6.768703
6.724596
6.953478
6.612539
6.675720
6.461740
6.598830
6.388426
6.460547
6.476641
##ZVALUE=320
0.795722
0.619888
0.707507
0.807643
0.689626
0.613928
0.687838
0.565648
0.687838
0.543594
0.548959
0.786781
0.810623
0.690818
0.908971
0.893474
0.836849
0.870824
0.851750
0.728965
0.850558
1.143813
1.110435
1.084805
1.135468
1.326799
1.393557
1.236796
1.281500
1.096725
1.335740
1.608729
1.763701
1.846552
2.102852
2.112985
2.448559
2.518892
2.824664
3.265738
3.596544
4.577637
20.622611
73.105693
261.206627
531.316996
1002.227664
1015.914679
1015.914679
1015.914679
1015.914679
1015.914679
1015.914679
1015.914679
1015.914679
926.368833
417.290926
208.402872
67.860484
25.438666
12.388825
12.571812
15.465617
19.681454
30.809641
43.191910
61.808825
77.517629
94.575882
103.865862
104.182959
98.474622
85.949898
71.097612
51.657557
37.978888
23.731589
16.709566
10.731816
8.957982
7.533431
6.782413
6.810427
6.535649
6.774664
6.288886
6.410480
6.611943
6.298423
6.320477
6.097555
6.400943
6.411672
6.479621
6.566644
6.515980
6.183982
6.389618
6.414652
6.533861
6.454587
6.695986
6.106496
6.259680
6.519556
6.751418
6.837845
6.843805
6.934404
6.655455
6.658435
6.855726
6.591678
6.805658
6.353855
6.375909
##ZVALUE=325
0.643730
0.573993
0.487566
0.537634
0.550747
0.597835
0.646710
0.471473
0.734925
0.711679
0.715852
0.718832
0.591874
0.684857
0.831485
0.576973
0.660419
0.902414
0.807643
0.735521
0.958443
0.923872
0.992417
0.929832
0.929832
1.133680
1.128912
1.208782
1.240969
1.132488
1.431704
1.393557
1.552701
1.636744
1.679659
1.591444
1.736879
2.103448
2.302527
2.533793
2.721548
2.828836
3.364682
3.924966
8.310676
56.883693
155.336857
412.532091
764.334798
1015.914679
1015.914679
1015.914679
1015.914679
1015.914679
1015.914679
1015.914679
1015.914679
1015.914679
562.905669
300.888419
104.583502
37.763715
13.122559
10.741949
11.637807
13.507605
19.980669
28.475523
45.192838
58.991909
77.351928
89.503527
98.177791
98.483562
91.006756
79.898834
63.092709
47.884583
31.613708
22.078753
13.906956
9.928942
7.702708
7.006526
6.318688
6.005764
6.114841
5.953908
5.955696
6.002784
6.042719
5.921721
6.187558
6.081462
6.085634
6.165504
6.237626
6.212592
6.273985
6.335974
6.173849
6.141663
6.458759
6.594658
6.317496
6.571412
6.554723
6.527901
6.730556
6.698966
6.439686
6.535649
6.634593
6.168485
6.473660
6.310940
##ZVALUE=330
0.469685
0.403523
0.529885
0.611544
0.494719
0.656843
0.692606
0.456572
0.568628
0.743866
0.670552
0.565648
0.640750
0.749826
0.526905
0.658631
0.763535
0.733733
0.698566
0.704527
0.718832
0.795722
0.691414
0.885725
0.888705
0.917912
1.018643
1.086593
1.117587
1.143813
1.014471
1.386404
1.251698
1.291633
1.432896
1.366735
1.679659
1.724958
1.788735
1.721978
2.018809
2.196431
2.331734
2.921820
3.181696
3.424883
5.291700
19.301772
101.253986
244.188905
601.228476
979.048014
1015.914679
1015.914679
1015.914679
1015.914679
1015.914679
1015.914679
1015.914679
1015.914679
763.677955
418.113470
155.731440
64.897537
17.321706
10.613799
10.010600
10.335445
13.394952
18.021464
29.364824
40.184855
56.541562
69.932938
83.804727
89.860559
90.735555
84.549785
70.753694
58.788657
42.309761
31.537414
20.383000
14.856458
10.116696
7.629991
6.495714
5.925894
5.942583
5.472898
5.669594
5.685687
5.782843
6.047487
5.619526
5.926490
6.357431
6.166697
5.940795
5.974770
6.127954
6.050467
6.008744
6.351471
6.846786
6.580949
6.486773
6.631613
6.540418
6.516576
6.296635
6.469488
6.656647
6.448627
6.332994
6.216764
##ZVALUE=335
0.533462
0.547767
0.531673
0.472665
0.432730
0.442863
0.622869
0.576973
0.318885
0.305772
0.676513
0.564456
0.372529
0.647902
0.457764
0.655651
0.777841
0.665784
0.723600
0.676513
0.748634
0.720620
0.708699
0.718832
0.827909
0.907779
0.974536
0.857711
0.835657
1.064539
1.087785
1.017451
1.069903
1.217723
1.379848
1.361966
1.467466
1.436472
1.584888
1.665950
1.597404
1.850724
1.904964
2.076626
2.205968
2.737641
2.796650
3.135800
3.716946
7.138848
45.790672
137.820840
403.724909
749.105811
1015.914679
1015.914679
1015.914679
1015.914679
1015.914679
1015.914679
1015.914679
1015.914679
957.823992
574.436784
233.565569
100.371838
26.954412
11.577606
9.748936
9.383559
10.142922
12.120605
18.868446
25.565624
37.906766
49.733520
65.432787
76.114535
84.532499
84.258914
77.856779
69.253445
54.444671
43.598413
30.066967
21.682978
14.127493
10.458827
7.580519
6.533861
6.158948
5.590916
5.895495
5.924702
5.919933
5.895495
5.928874
5.931854
5.928874
5.963445
5.703568
6.196499
6.197691
6.208420
6.302595
6.281734
6.788969
6.538630
6.583929
6.633997
6.500483
6.746650
6.523728
6.195903
6.251931
6.085634
##ZVALUE=340
0.392795
0.432730
0.504851
0.500679
0.380874
0.461936
0.552535
0.548959
0.307560
0.549555
0.448823
0.459552
0.654459
0.674725
0.548959
0.544786
0.520945
0.631809
0.646710
0.605583
0.694990
0.752807
0.623465
0.651479
0.669956
0.872612
0.900626
0.714660
0.804663
0.880957
0.832677
0.907779
0.986457
0.982881
1.140833
1.382828
1.340508
1.323819
1.361966
1.449585
1.416802
1.590848
1.573563
1.718998
1.972914
2.037883
2.411604
2.433658
2.571940
3.034472
3.463626
5.328655
19.425750
102.447867
255.264640
641.997457
1008.790731
1015.913486
1015.913486
1015.913486
1015.913486
1015.913486
1015.913486
1015.913486
1015.913486
631.617904
342.004895
129.154921
46.427846
12.811422
9.636879
9.191632
8.738637
9.981990
11.764765
17.296672
23.441911
35.714507
46.639442
62.188506
72.037578
78.957677
78.113675
72.809458
65.543652
52.244663
41.559935
29.082894
21.519661
14.085770
10.502934
7.648468
6.457567
6.247759
6.129742
5.901456
5.818605
5.721450
5.786419
5.705953
5.772710
5.956888
5.970597
6.066561
6.101727
6.458759
6.537437
6.354451
6.635785
6.643534
6.620884
6.660819
6.582737
6.365776
6.601810
6.250739
##ZVALUE=345
0.546575
0.478625
0.488758
0.428557
0.457764
0.415444
0.532866
0.480413
0.433922
0.483990
0.481606
0.657439
0.423789
0.592470
0.707507
0.455976
0.566840
0.689626
0.685453
0.770688
0.588894
0.793934
0.718832
0.863671
0.694990
0.758767
0.696778
0.879765
0.726581
0.587702
0.901818
0.785589
0.896454
0.902414
0.898838
0.951886
0.953674
1.152754
1.084805
1.079440
1.349449
1.356602
1.313686
1.608729
1.481771
1.709461
1.786947
1.907945
2.033710
2.205968
2.681613
2.673864
3.066659
3.491640
10.402799
44.839978
189.246535
393.364429
841.513872
1015.913486
1015.913486
1015.913486
1015.913486
1015.913486
1015.913486
1015.913486
1015.914083
929.388404
418.653488
195.411444
57.826638
21.522641
10.659695
9.454489
8.557439
8.010864
8.700490
10.191798
15.414953
21.282434
32.418966
42.233467
54.927468
63.893795
71.105957
73.482990
70.094466
62.375665
51.215887
40.275455
28.110743
21.432638
14.087558
10.422468
8.227825
6.969571
6.174445
6.011724
5.749464
5.754828
5.393624
6.103516
6.169677
6.237626
6.144643
6.356835
6.480813
6.603599
6.577969
6.592870
6.618500
6.489754
6.448627
6.207824
6.069541
6.081462
##ZVALUE=350
0.462532
0.489950
0.485778
0.460744
0.490546
0.570416
0.541806
0.374913
0.524521
0.451803
0.365973
0.576973
0.622869
0.633597
0.648499
0.629425
0.604987
0.523925
0.521541
0.540614
0.535846
0.563860
0.614524
0.630617
0.647902
0.764728
0.770688
0.659823
0.719428
0.921488
0.831485
0.858903
0.956655
0.741482
0.949502
0.901818
0.999570
1.142621
0.896454
1.047850
1.166463
1.194477
1.283884
1.188517
1.338720
1.321435
1.590848
1.458526
1.639724
1.858473
2.031922
2.105832
2.131462
2.544522
2.941489
3.179908
5.877614
22.257566
106.965899
252.118707
618.894696
994.570851
1015.913486
1015.913486
1015.913486
1015.913486
1015.913486
1015.913486
1015.913486
992.285609
516.902804
274.581909
98.587871
33.703446
11.132956
8.750558
7.514954
7.168651
6.740689
7.310510
9.700656
12.745857
19.350648
26.208758
38.404465
47.077537
58.295727
63.469410
66.435933
63.752532
57.442784
49.761534
38.323998
29.848814
20.266771
15.508533
10.499954
8.502603
6.807446
6.377697
5.833507
5.889535
5.870461
6.214976
6.381869
6.321669
6.431937
6.515980
6.516576
6.514788
6.477833
6.321669
6.247759
6.080866
5.810857
5.900860
##ZVALUE=355
0.597835
0.488758
0.490546
0.672936
0.539422
0.574589
0.549555
0.459552
0.654459
0.597835
0.627637
0.616908
0.629425
0.524521
0.552535
0.599623
0.488758
0.578761
0.683665
0.728965
0.866652
0.742674
0.694990
0.628829
0.657439
0.710487
0.683665
0.774860
0.782609
0.687838
0.708699
0.807643
0.861883
0.932813
0.949502
0.986457
0.987649
0.986457
0.969768
0.984669
1.068711
1.311898
1.291633
1.225471
1.394749
1.349449
1.276731
1.424551
1.544952
1.561642
1.692772
1.964569
1.842976
2.010465
2.122521
2.611876
2.855659
3.034472
3.842711
9.274483
58.409572
168.723464
460.949540
802.080035
1015.914679
1015.914679
1015.914679
1015.914679
1015.914679
1015.914679
1015.914679
1015.914679
692.971945
372.587442
132.501721
50.117970
12.431741
8.742809
7.624626
7.000566
6.577969
6.474853
7.149577
7.999539
11.343956
16.002655
24.428964
32.178760
43.681860
51.077604
58.369637
61.200857
59.229732
55.044889
46.626925
38.947463
28.951764
22.163987
15.250444
11.454821
8.628964
7.364750
6.489754
6.600618
6.287694
6.281734
6.383657
6.812811
6.600618
6.270409
6.377697
6.192923
6.110668
5.979538
5.870461
5.652905
##ZVALUE=360
0.499487
0.408888
0.322461
0.521541
0.382662
0.522733
0.559688
0.440478
0.463724
0.591874
0.463724
0.522733
0.634789
0.504851
0.599623
0.539422
0.612736
0.615716
0.588894
0.712872
0.679493
0.585914
0.630617
0.659823
0.735521
0.733733
0.842810
0.643730
0.785589
0.754595
0.817776
0.669956
0.894666
0.817776
0.802875
0.961423
0.994802
0.937581
1.073480
1.063943
1.249909
1.037717
1.179576
1.201630
1.227856
1.167655
1.156926
1.252890
1.459718
1.467466
1.657605
1.717806
1.844764
1.768470
1.982450
2.167821
2.388954
2.485514
2.886653
3.166795
3.830791
5.210638
27.555823
86.779594
281.381607
548.608899
1015.914679
1015.914679
1015.914679
1015.914679
1015.914679
1015.914679
1015.914679
1015.914679
895.878673
518.906713
197.182894
79.008937
19.114614
9.329915
7.413626
6.922483
6.312728
6.254911
5.982518
6.281734
7.442832
9.391904
13.947487
19.787550
29.349923
36.725998
46.855807
52.060485
56.257844
55.671930
51.956773
46.810508
37.759542
30.635595
21.568537
16.662478
12.020469
9.484887
7.733703
6.825924
6.435513
6.505847
6.514788
6.215572
6.217957
5.996823
5.752444
5.872846
5.619526
5.526543
##ZVALUE=365
0.627637
0.433922
0.569820
0.570416
0.480413
0.598431
0.508428
0.562668
0.574589
0.590682
0.423789
0.635982
0.587702
0.501871
0.683665
0.624657
0.616908
0.587702
0.736713
0.665784
0.655651
0.708699
0.731945
0.512600
0.759959
0.658631
0.777841
0.735521
0.779629
0.818968
0.708699
0.754595
0.901818
0.856519
0.770688
0.891685
0.809431
0.979900
0.981688
1.021624
1.055598
1.131892
1.077652
1.084805
1.030564
1.362562
1.228452
1.242757
1.251698
1.420975
1.343489
1.451969
1.731515
1.497865
1.749992
1.744628
1.892447
2.118945
2.306700
2.475977
2.672672
3.197789
3.488660
4.004836
11.102557
41.481853
169.360638
370.522738
850.712657
1015.913486
1015.913486
1015.913486
1015.913486
1015.913486
1015.913486
1015.913486
1015.913486
672.954917
285.579562
127.484798
32.494664
11.884570
7.092953
6.916523
6.345510
5.761981
5.554557
5.424619
5.827546
6.424785
8.626580
11.687875
17.610788
23.445487
33.064485
39.689541
46.032667
50.198436
51.448941
50.135851
43.645501
38.266778
30.512810
24.286509
17.126799
13.364553
9.669662
7.732511
6.893873
6.136894
5.824566
5.672574
5.491972
5.235672
4.730821
4.732609
##ZVALUE=370
0.593662
0.559688
0.545979
0.560880
0.548959
0.551939
0.567436
0.548959
0.520945
0.457764
0.576973
0.583529
0.477433
0.536442
0.548959
0.494719
0.676513
0.510812
0.522733
0.636578
0.587702
0.546575
0.700951
0.519753
0.516772
0.713468
0.636578
0.662804
0.784993
0.567436
0.586510
0.638962
0.853539
0.837445
0.691414
0.728965
0.762939
0.881553
0.807643
0.740886
0.865459
0.807643
0.943542
1.000762
0.908971
1.094937
1.085997
1.197457
1.081824
1.165867
1.181960
1.051426
1.370907
1.431704
1.543760
1.530647
1.483560
1.601577
1.776814
1.788735
2.129674
2.240539
2.460480
2.559423
3.015995
3.294945
5.586743
21.714568
117.201805
284.098983
671.155453
1011.448503
1015.914679
1015.914679
1015.914679
1015.914679
1015.914679
1015.914679
1015.914679
813.952684
391.865969
191.513896
59.738755
21.379590
7.555485
6.476641
5.989671
5.643964
5.350709
5.236864
5.368590
5.410910
6.597638
8.236766
11.446476
14.598966
21.488667
27.483702
35.774708
41.018724
47.021508
48.532486
47.260523
44.119954
37.318468
31.557679
23.726821
17.505884
13.723969
9.943843
8.261800
6.684661
5.915761
5.392432
4.984736
4.907846
##ZVALUE=375
0.374913
0.440478
0.481606
0.413656
0.400543
0.510812
0.407696
0.446439
0.435710
0.535846
0.501871
0.508428
0.475645
0.471473
0.345707
0.499487
0.433922
0.320673
0.303984
0.482798
0.608563
0.410676
0.605583
0.652671
0.624657
0.684857
0.600815
0.662804
0.604987
0.693798
0.638962
0.842810
0.687838
0.743866
0.836849
0.819564
0.839829
0.818968
0.634789
0.669956
1.000762
1.027584
0.779629
1.025796
0.875592
0.934601
0.939965
1.065731
0.953674
1.004934
1.140833
0.924468
1.186728
1.106858
1.150966
1.201630
1.142621
1.251698
1.343489
1.277924
1.618862
1.603961
1.882911
2.164841
2.030730
2.402663
2.809763
3.191829
3.999472
11.161566
65.315962
170.756578
445.930958
803.033710
1015.914679
1015.914679
1015.914679
1015.914679
1015.914679
1015.914679
1015.914679
999.981761
569.499731
314.094424
114.016533
43.773651
11.079907
6.769896
6.156564
5.834699
5.586743
5.630851
6.065965
6.015897
6.050467
6.361604
7.366538
9.139776
12.930632
17.044544
24.560690
30.310750
37.788749
42.691827
46.710968
46.202540
43.733716
37.761927
32.689571
25.949478
20.892620
14.963746
11.581779
8.201599
6.713867
5.521774
##ZVALUE=380
0.354648
0.603795
0.576973
0.364780
0.353456
0.413656
0.428557
0.365973
0.346899
0.502467
0.419617
0.396967
0.545979
0.547767
0.459552
0.635982
0.432730
0.391603
0.490546
0.295639
0.459552
0.415444
0.462532
0.336766
0.574589
0.519753
0.636578
0.717640
0.746846
0.736713
0.619888
0.743866
0.713468
0.821948
0.702739
0.760555
0.810623
0.833869
0.863671
0.889897
0.825524
0.792742
0.866652
1.041889
0.821948
0.927448
0.787973
0.996590
0.963807
1.030564
0.829697
0.957847
1.011491
1.123548
1.035929
0.985861
1.200438
1.099706
1.180768
1.427531
1.338720
1.385808
1.485944
1.579523
1.724958
1.860857
2.237558
2.538562
2.698898
3.280640
3.885627
6.881952
26.332736
131.250620
307.309628
726.428628
1015.932560
1015.932560
1015.932560
1015.932560
1015.932560
1015.932560
1015.932560
1015.932560
834.957957
398.224592
197.566748
62.732697
21.919608
7.750988
6.681681
6.531477
6.434917
6.262660
6.255507
6.091595
6.069541
5.890727
5.945563
6.380677
7.869601
11.347532
15.409589
22.293925
28.105974
35.380721
39.774776
43.644905
44.338703
42.163730
38.856864
32.226443
26.701689
19.435883
15.427470
10.907650
##ZVALUE=385
0.236630
0.295639
0.264645
0.474453
0.487566
0.406504
0.413656
0.473857
0.403523
0.299811
0.326633
0.315905
0.294447
0.327826
0.332594
0.440478
0.449419
0.478625
0.540614
0.384450
0.371933
0.392795
0.343919
0.519753
0.558496
0.512600
0.618696
0.646710
0.697970
0.692606
0.770688
0.988841
0.726581
0.713468
0.916719
0.683665
0.861883
0.749826
0.838637
0.997782
0.940561
0.900626
0.906587
0.772476
0.841618
0.796914
0.842810
1.064539
0.950694
0.959635
0.902414
0.963807
1.104474
1.012683
1.042485
0.980496
0.966787
1.059771
1.245737
1.348853
1.299977
1.407862
1.472831
1.386404
1.338720
1.662970
1.838803
1.918674
2.321601
2.480745
2.717972
3.124475
3.296733
3.804564
14.455914
53.429604
202.749968
441.690683
946.314931
1015.913486
1015.913486
1015.913486
1015.913486
1015.913486
1015.913486
1015.913486
983.626842
642.111897
284.219980
136.172771
40.876865
13.828874
6.912947
6.690621
6.432533
6.152987
5.861521
5.664825
5.218983
5.082488
4.870892
5.095601
5.438924
6.874800
9.486675
12.649894
18.589497
24.696589
29.961467
35.184622
38.557649
40.471554
39.904714
36.213994
32.187700
25.803447
##ZVALUE=390
0.284910
0.322461
0.226498
0.203848
0.210404
0.363588
0.302792
0.424981
0.278950
0.303984
0.378489
0.258684
0.404716
0.379682
0.345707
0.343919
0.395775
0.305772
0.403523
0.286698
0.491738
0.597835
0.341535
0.354648
0.420809
0.567436
0.464916
0.633597
0.711679
0.767708
0.701547
0.900626
0.786781
0.898838
0.888705
1.111627
1.033545
0.969768
0.964999
1.168847
0.983477
1.005530
0.949502
0.917912
1.072884
0.966787
1.199841
1.043677
0.968575
0.950694
1.113415
1.146793
1.049638
1.000762
1.229644
1.090765
1.108646
1.262426
1.180768
1.097918
1.279712
1.215935
1.265407
1.259446
1.329780
1.530647
1.627803
1.801848
2.076626
2.367496
2.554655
2.833605
2.786517
2.974868
3.264546
3.163815
6.539822
29.957891
144.155622
332.902670
773.670673
1015.914679
1015.914679
1015.914679
1015.914679
1015.914679
1015.914679
1015.914679
1015.914679
889.123678
444.324613
223.666430
72.263479
24.193525
7.902980
6.686449
6.368756
5.941987
5.768538
5.517602
5.323887
5.055666
4.869699
4.742742
5.015731
5.443692
6.518960
8.712411
11.161566
15.180707
19.701719
25.405884
29.854774
35.338998
37.728548
37.541986
##ZVALUE=395
0.367761
0.281930
0.199676
0.316501
0.302792
0.279546
0.325441
0.358820
0.334978
0.445843
0.284910
0.212789
0.394583
0.399947
0.348687
0.454783
0.467896
0.336766
0.430942
0.475645
0.439882
0.502467
0.468493
0.411868
0.545979
0.531673
0.580549
0.747442
0.653863
0.699759
0.667572
0.778437
1.011491
0.874996
0.843406
0.870824
0.901818
0.934601
0.913739
0.946522
1.126528
1.095533
0.990629
1.134872
1.043677
1.046658
1.323819
1.113415
1.113415
1.122952
1.057982
1.226664
1.177788
1.178980
1.139641
1.087785
1.203418
1.180768
0.986457
1.161695
1.140833
1.298785
1.290441
1.360774
1.425743
1.470447
1.608729
1.787543
2.000928
2.137423
2.282858
2.366900
2.309680
2.480745
2.441406
2.645850
2.675653
2.988577
4.650950
16.128421
88.358521
222.652555
550.753474
931.106806
1015.913486
1015.913486
1015.913486
1015.913486
1015.913486
1015.913486
1015.913486
1015.913486
607.734919
320.003629
112.673640
45.363903
11.903644
7.061958
6.101727
5.943775
5.759597
5.514622
5.605817
5.594492
5.823970
5.529523
5.411506
5.222559
5.422831
6.075501
7.073879
9.462833
12.264848
17.654896
22.117496
27.649999
##ZVALUE=400
0.369549
0.492930
0.401735
0.376701
0.403523
0.395775
0.354648
0.372529
0.281930
0.266433
0.364780
0.367761
0.407696
0.421405
0.386834
0.521541
0.330806
0.245571
0.257492
0.472665
0.286698
0.335574
0.418425
0.554919
0.498891
0.766516
0.633597
0.635982
0.682473
0.684857
0.873804
0.792742
0.735521
0.865459
0.848770
0.801682
1.020432
1.004934
1.111627
0.903606
1.163483
1.130700
0.955462
1.035929
1.027584
1.035929
1.096725
1.139641
1.297593
1.141429
0.955462
1.062751
1.087785
1.042485
1.035929
0.962615
0.963807
1.104474
1.032948
1.144409
1.234412
1.203418
1.370907
1.235604
1.259446
1.505613
1.455545
1.734495
1.791716
2.033710
2.052784
2.164841
2.132654
2.157688
2.055764
1.940727
2.240539
2.421737
2.662539
2.858639
3.550649
7.524490
45.040846
132.383704
381.445885
698.767900
1015.914679
1015.914679
1015.914679
1015.914679
1015.914679
1015.914679
1015.914679
1015.914679
798.285604
476.088524
200.626850
86.767673
21.888614
8.512735
6.234646
5.914569
5.798936
6.027818
6.106496
6.326437
5.732775
5.796552
5.434752
5.212426
5.212426
4.739761
5.162954
6.102920
7.692575
10.733604
##END
