##TITLE=4-1
##FORMAT=SPECTACLE-ASCII V-1.2
##DATA TYPE=ULTRAVIOLET SPECTRUM
##SECOND TYPE=ULTRAVIOLET SPECTRUM
##DATE=04/04/18
##TIME=14:07:26
##SPECTROMETER/DATA SYSTEM=SPECTACLE
##XUNITS=NM EM
##YUNITS=ENERGY
##YFACTOR=1
##FIRSTX=220
##LASTX=450
##NPOINTS=116
##3DDATA=Equidistant
##ZUNITS=NM EX
##FIRSTZ=210
##LASTZ=400
##ZPOINTS=39
##XYDATA=(Y..Y)
##ZVALUE=210
25.407672
22.890568
18.123984
14.614463
14.624000
9.848475
11.095405
9.330511
7.545948
6.403923
5.428791
4.579425
4.456639
4.759431
3.876686
4.560947
4.938841
5.633831
4.794598
4.513860
5.612969
6.780624
6.949902
8.019805
8.916855
8.764863
9.570718
10.667443
12.901425
12.303591
13.645887
15.175939
14.806986
14.667511
15.974641
15.850663
14.291406
15.514493
14.685988
15.739799
15.580654
15.276670
14.743805
14.731884
14.769435
14.703870
14.316440
13.849735
15.194416
13.667941
13.899803
14.945865
14.600754
13.430715
14.848709
15.367866
14.396906
13.796687
14.614463
13.520718
15.037656
14.724731
12.957454
13.272762
14.020801
13.523698
14.449954
15.442967
17.348528
19.920468
22.707582
23.893714
29.082894
32.009482
33.684969
33.823848
34.108758
36.515594
35.258532
32.256842
27.462840
25.574565
25.166869
20.031929
16.595721
15.400648
13.963580
12.879968
12.796521
13.842583
18.491745
21.628737
29.762983
37.424564
48.775673
55.218935
65.987706
70.295930
81.106424
85.727572
94.295740
93.705654
93.138814
91.362000
88.030696
82.149506
76.828599
69.049001
58.375001
53.635836
37.994981
32.224655
25.853515
21.373630
17.376542
16.321540
##ZVALUE=215
74.172616
71.409941
54.218769
42.613745
34.539700
23.711920
19.660592
17.821789
17.881989
15.009642
13.113618
11.052489
7.898808
7.280707
6.043911
5.102754
5.611777
5.265474
6.389618
5.373955
6.111860
6.535649
7.128716
8.208752
9.341836
9.822845
11.665821
11.645555
12.256503
14.379621
15.163422
14.509559
15.431643
16.237497
17.016530
17.186999
17.061830
17.028451
17.152429
17.230511
17.226934
16.977787
16.372800
16.102791
16.727448
17.533898
17.282963
16.451478
16.964674
16.511679
17.505884
18.053651
15.820861
16.338825
16.667843
15.748739
15.004873
16.104579
15.431643
15.568733
15.253425
14.167428
14.015436
14.903545
14.043450
15.242696
16.523600
17.077923
18.947721
19.748807
22.202730
24.942756
26.444793
31.786561
31.222701
33.223629
33.705831
30.902624
31.305552
28.628707
27.162433
22.955537
20.172000
18.215775
18.745661
14.894605
12.856722
12.436509
11.290908
9.571910
10.355711
11.134744
11.217594
12.668967
16.726851
19.821525
26.578903
35.159588
52.810907
65.770745
79.709888
92.603564
116.904974
122.074485
127.868652
140.619874
145.219564
144.031644
141.371489
130.265951
128.191710
116.097927
104.955435
89.040995
77.177882
54.547787
##ZVALUE=220
163.402557
161.557794
159.216523
150.317550
121.683478
92.711449
65.368414
44.766665
32.739639
26.645660
26.434660
24.972558
23.005605
19.055605
16.387701
11.713505
10.201931
6.963611
6.100535
6.314516
5.905628
6.788969
6.753802
7.500648
8.334517
8.850694
11.458993
11.629462
12.260675
12.755990
13.448000
13.116598
14.707446
16.202927
16.030669
17.599463
17.653704
17.218590
17.876625
17.564893
18.417835
18.363595
19.216537
18.535852
19.994974
19.469857
19.668937
18.630624
19.811988
21.124482
19.912720
19.710660
19.252896
20.819902
20.007491
19.803643
19.187927
20.093918
16.898513
17.838478
18.687844
18.661618
19.272566
16.013980
16.418695
18.386841
15.869737
17.124414
18.879771
19.755960
22.763610
26.191473
28.448701
29.760599
32.346845
31.940937
33.464432
32.515526
32.483935
29.693842
28.854609
25.712848
22.440553
20.105839
17.599463
14.710426
13.637543
11.802912
13.239980
10.561943
10.757446
9.864569
10.135770
10.928512
10.520816
10.645986
10.846853
11.629462
13.740659
17.035604
26.459694
36.928654
50.386786
63.762665
87.911487
102.264881
134.053826
157.327652
173.571706
196.165442
208.559632
222.375989
225.832462
226.728916
222.150683
201.393962
##ZVALUE=225
201.341510
208.280683
254.661441
279.327631
279.189944
260.001421
226.115584
165.261626
118.328929
78.317523
57.010651
44.204593
40.664673
39.848685
37.881732
34.131408
28.989911
22.641420
17.811656
11.638999
10.702610
8.213520
8.132458
9.308457
8.608699
8.120537
8.835793
9.642839
11.386871
11.712909
12.496710
12.192726
13.511777
14.142990
14.294982
16.410947
17.399788
17.173886
17.459989
19.601583
20.163655
20.543933
20.301938
19.188523
20.639896
23.772717
22.360682
22.604465
23.212433
22.376776
22.039413
22.554994
20.940900
21.344423
23.001432
20.303726
20.521879
20.727515
21.213889
20.137429
20.853877
19.475818
19.147992
19.599795
16.884804
18.171668
18.691421
19.304752
20.378828
21.824837
24.316907
26.253462
26.580691
30.054450
30.360818
30.729771
28.258562
30.658841
29.286742
26.058555
23.552775
22.218823
21.352768
17.934442
17.411709
15.609860
13.619661
13.265610
13.085604
12.106895
10.469556
12.204647
11.236668
10.587573
11.711717
11.577606
10.296702
10.515451
11.298656
10.773540
11.730790
10.891557
11.530519
16.087890
21.283627
33.793449
47.552586
74.000955
95.669627
129.727721
159.431696
201.588869
234.213471
273.960829
304.636955
337.512493
##ZVALUE=230
134.144425
143.541694
230.594873
307.933688
388.852954
477.733612
483.223796
465.337634
397.146940
301.179886
216.689706
127.365589
96.280575
63.682795
60.189962
62.953830
62.236786
60.313940
49.578547
41.673779
31.460524
27.140975
16.102791
12.052655
10.055900
9.180903
10.642409
10.629892
10.308623
12.016892
11.352897
13.069510
13.196468
11.643767
14.559627
15.263557
17.903447
18.174648
17.994642
18.572807
19.661784
21.371841
21.723509
22.369623
22.920966
21.917820
24.394989
25.089979
22.448897
22.841692
23.302436
23.609996
22.990704
23.121834
21.518469
21.944642
25.002956
23.335814
21.883845
23.397803
21.728873
22.250414
20.338893
22.100806
19.733906
20.938516
20.543933
20.693541
22.457838
23.688674
26.555657
27.277470
28.259754
30.825734
31.727552
31.494498
28.853416
29.938817
26.736856
24.103522
22.270679
21.380782
20.403862
18.294454
17.803907
16.033649
14.345646
14.425516
13.138652
13.074875
14.688969
11.588931
12.561679
12.926459
11.816621
10.607839
11.463761
12.209415
11.419654
11.487603
11.802912
10.827780
12.366772
10.283589
11.609793
10.676980
11.496544
13.453960
15.160441
25.169849
38.096905
62.107444
88.610649
138.465762
176.885724
239.676833
##ZVALUE=235
37.141442
39.239526
96.977949
176.498890
291.703939
459.468961
592.066646
733.446479
797.712803
760.219693
685.389638
517.497659
384.354591
232.325792
160.466433
102.166533
85.276961
89.479685
90.870857
92.577934
86.008906
71.827769
58.059692
37.903786
27.395487
18.810630
14.171600
11.455417
12.045503
11.142492
11.556745
12.016892
11.702776
12.623668
13.949871
14.509559
17.079711
16.295910
17.717481
18.399954
19.924641
20.860434
21.666884
21.435618
21.919608
23.501515
23.753643
24.048686
21.187663
24.228692
23.894906
23.761988
24.264455
24.117827
23.375750
21.764636
22.270679
23.268461
22.236705
22.933483
21.165609
20.780563
20.891428
20.352602
19.642711
18.715858
21.481514
18.761754
22.946000
22.168756
25.734901
26.272535
28.128624
29.506683
30.290484
29.016733
28.633475
27.661920
25.169849
23.649931
22.320747
19.817948
18.735528
17.840862
15.992522
15.713573
14.898777
14.922619
13.515949
13.824701
13.465881
13.071895
13.328791
13.240576
12.065768
12.020469
13.084412
10.965466
11.543632
12.895465
11.677742
12.261868
10.978580
12.374520
12.310743
12.580752
11.917949
12.401938
11.600852
12.710690
11.780858
11.106730
12.653470
17.520785
29.086471
49.963593
##ZVALUE=240
4.258752
4.212856
14.449954
41.302443
90.139508
210.510492
358.063579
607.731938
808.139443
1004.868746
1016.001701
1016.001701
1014.813781
796.331763
612.661839
376.873016
250.927806
152.482986
122.798681
110.947490
118.626952
122.679472
120.925903
102.862716
86.280704
65.807700
51.824450
39.272904
25.072694
19.466877
14.644861
15.245676
14.523864
15.088916
15.451908
17.306805
17.178655
19.095540
18.835664
19.569993
22.207499
20.019412
21.009445
21.986961
23.337603
24.697781
22.556782
23.934841
24.084449
24.003983
24.477839
25.924444
24.649501
25.253892
22.842884
25.246739
22.507906
25.299788
23.997426
23.019910
22.429824
22.555590
20.944476
20.333529
21.290779
20.898581
22.729635
22.538900
23.092628
24.198890
26.339889
24.987459
30.509830
29.218793
29.781461
30.317903
29.426813
29.399991
25.046468
24.447441
22.598505
20.914674
19.360781
19.630790
15.909672
16.494989
15.467405
14.771819
14.231801
14.449954
14.146566
14.919639
14.041662
14.184713
13.978481
13.299584
12.251735
13.320446
13.102889
11.951923
12.384653
13.562441
12.742877
13.188720
12.538433
13.524890
13.987422
13.133883
12.347698
13.002753
12.750626
12.123585
12.827516
11.878610
12.917519
12.713671
##ZVALUE=245
2.848506
2.572536
3.150702
3.910661
6.996989
27.944446
72.513819
195.588470
351.564884
620.636940
865.291953
1016.001701
1016.001701
1016.001701
1016.001701
1016.001701
895.735025
575.158596
385.204554
204.396844
138.707757
112.897754
117.439628
125.746727
137.147903
132.692456
117.581487
100.637674
77.063441
58.958530
39.926767
30.219555
21.205544
18.130541
15.707612
14.337897
16.562939
16.795993
17.124414
18.871427
18.034577
19.381642
18.098950
19.461513
21.777749
21.658540
20.329952
21.266937
21.147728
22.146702
21.200776
21.324754
20.962954
21.196604
20.712614
19.548535
20.736456
18.970966
19.466877
19.325614
18.935800
18.622875
19.053817
17.439723
17.678738
18.707514
19.079447
18.287897
20.031929
21.667480
21.238923
21.914840
24.260879
25.839806
25.086999
25.248528
24.820566
23.408532
21.301508
20.233989
20.875931
17.101765
17.073750
16.230941
14.699697
13.378859
12.538433
13.161898
11.930466
13.021827
12.440681
11.925697
12.473464
12.243986
11.674762
12.113452
10.121465
11.028647
10.974407
11.621714
11.334419
11.730790
11.348724
11.263490
11.049509
12.720823
12.134910
11.391640
12.680888
12.308955
11.069775
11.113882
10.674000
10.542870
10.283589
11.021495
##ZVALUE=250
2.398491
2.363920
2.980828
2.594590
3.303885
2.786517
4.540682
19.679666
51.696897
147.420764
289.620757
572.394729
837.543011
1016.001701
1016.001701
1016.001701
1016.001701
1016.001701
1016.001701
776.375532
522.610545
290.849805
173.650980
115.659833
110.119581
128.668547
144.572854
143.494606
141.643882
130.284429
109.068751
90.764761
64.302683
45.104623
30.148625
22.940636
17.985702
16.129613
16.111732
17.398596
16.633868
17.942786
19.076467
19.169450
18.322468
19.037724
17.410517
17.674565
19.356608
19.723773
19.560456
19.996762
18.859506
17.246604
17.719865
18.504858
18.739700
17.373562
17.079711
17.217994
15.637875
16.824603
16.062856
17.060637
15.825629
15.333891
15.520453
17.564893
17.240644
17.643571
19.507408
18.902421
21.383762
21.353960
22.194982
20.880699
21.054745
19.723773
19.051433
16.302466
15.934706
14.889836
13.503432
13.184547
12.081861
11.853576
10.707974
10.669827
11.461973
11.880994
9.316802
10.278821
10.693669
10.661483
10.522604
9.240508
10.922551
9.337664
9.768605
9.996891
8.909702
10.369420
10.700822
10.437965
10.055900
9.773970
10.319948
10.352731
9.728670
9.722710
9.865761
9.621978
9.766817
10.466576
10.058880
9.622574
##ZVALUE=255
2.257824
1.998544
1.919866
2.449751
1.920462
2.608895
2.283454
2.840757
3.045797
8.795857
29.947758
105.843544
219.241977
472.092628
726.352930
1016.001701
1016.001701
1016.001701
1016.001701
1016.001701
1016.001701
997.292399
726.292729
402.153730
239.306688
129.922628
107.366443
114.362836
132.115483
147.941709
151.837468
149.077773
135.255456
119.207501
85.736513
67.099929
46.623945
33.901930
24.878979
20.311475
18.025637
18.019676
18.286705
18.457770
19.074678
19.272566
19.341707
19.440651
19.379854
18.557906
19.428730
18.500686
18.620491
18.634796
16.931891
17.402768
17.495751
17.657876
17.686486
17.210841
16.305447
15.945435
15.577674
15.638471
14.920831
14.393926
14.593601
13.943911
14.870763
14.595985
16.661882
16.984940
17.907619
18.389821
18.622875
18.741488
18.040538
15.684962
14.600754
14.162660
12.890697
11.668801
11.553764
10.767579
10.225773
10.023713
9.405613
9.513497
9.066463
9.121895
9.047985
8.586645
9.050965
8.829832
8.987784
8.937716
8.031726
8.466840
8.653998
8.296967
8.380413
8.350611
8.787513
8.367896
8.624792
8.671880
8.459687
8.724928
9.771585
8.787513
8.655787
8.736849
8.388758
8.209944
9.036660
9.408593
##ZVALUE=260
1.696944
1.738667
2.188683
2.030730
2.141595
2.267957
2.290606
2.493858
2.582669
2.966523
3.152490
5.076528
16.086698
71.753860
156.554580
367.806554
614.104867
992.333889
1016.001701
1016.001701
1016.001701
1016.001701
1016.001701
1016.001701
957.983732
658.019781
358.250737
210.364461
112.530589
96.857548
113.445520
132.466555
157.073736
161.075592
159.580708
147.971511
119.887590
98.204613
67.321658
52.637458
36.942959
29.363632
23.966432
21.583438
21.537542
21.177530
22.192597
21.027923
21.106601
21.967888
20.562410
21.364689
20.290613
20.186901
18.921494
18.100739
18.136501
18.361807
17.457604
17.625690
17.071962
16.418695
16.148686
15.250444
15.509725
15.153885
14.035702
14.593601
14.731884
15.611649
15.409589
16.455650
16.663671
17.174482
16.180873
16.942620
14.879704
14.304519
12.875795
12.053847
12.366772
11.508465
10.431409
9.747744
9.709597
9.487867
9.217858
8.271933
7.951856
8.465648
8.843541
8.519888
7.630587
8.422732
7.381439
8.123517
7.624626
7.737875
7.817745
8.307695
7.932782
8.185506
8.330941
8.059740
7.662773
8.057952
8.134842
8.217692
7.949471
8.042455
8.113980
8.051991
7.748604
7.732511
7.865429
7.240772
##ZVALUE=265
1.485944
1.858473
1.779795
1.933575
1.883507
1.957417
1.880527
2.100468
2.283454
2.072453
2.234578
2.850890
2.859831
3.933907
8.511543
43.813586
112.263560
293.303728
521.416664
962.107778
1016.001701
1016.001701
1016.001701
1016.001701
1016.001701
1016.001701
1016.001701
937.302709
508.347750
298.123956
141.124725
97.517967
97.287893
120.364428
146.838427
161.850452
171.452761
164.366961
150.301456
127.277970
104.422569
73.170662
57.238936
41.185617
33.057928
26.601553
26.650429
25.514960
24.889708
24.749637
24.451613
24.157763
23.591518
23.470521
21.061897
21.979809
21.592975
20.552874
19.936562
18.932819
18.831491
17.779469
16.834736
16.463995
16.250610
15.579462
15.310645
15.678406
15.403628
15.094876
14.809966
15.616417
15.990734
16.179681
15.453696
14.593601
15.272498
13.724566
13.048649
12.210608
10.948777
10.559559
9.217858
9.590983
8.891821
7.672906
8.033514
8.301735
8.048415
8.202791
7.370710
7.436872
7.213950
7.468462
7.033944
7.634759
7.348657
7.041693
7.221699
7.566810
7.372499
7.067919
7.511973
6.874800
7.068515
6.800890
7.315874
7.928610
7.564425
7.511973
7.044673
6.768703
7.399917
7.309914
7.567406
7.061958
##ZVALUE=270
1.707673
1.555681
1.946688
1.798868
1.625419
1.576543
1.951456
2.084970
2.132654
1.989603
2.028942
2.220869
2.361536
2.590418
2.877712
3.190637
4.785657
20.388961
63.002706
202.381015
399.414897
810.709000
1016.001701
1016.001701
1016.001701
1016.001701
1016.001701
1016.001701
1016.001701
1016.001701
740.918517
445.949435
203.578472
110.679865
78.711510
96.992850
125.749707
151.125789
170.734525
176.306963
172.721744
155.180693
134.412646
104.147792
84.096789
57.578683
46.488643
35.989881
31.797886
29.025674
27.131438
27.255416
26.716590
25.823712
24.755001
23.779869
23.572445
22.636652
21.576881
21.038651
20.788908
19.491911
18.549562
18.027425
16.985536
16.563535
16.258955
15.917420
16.492605
15.328526
14.927983
16.166568
16.230941
16.112924
15.270710
14.370680
13.750792
13.059974
12.600422
11.863708
10.318756
10.309815
9.579659
9.010434
8.738637
8.402467
7.902980
7.937551
7.843971
7.663965
7.681847
7.321835
7.360578
7.080436
7.381439
6.715655
6.839633
6.787777
7.098913
6.722808
7.082820
6.557703
7.294416
7.194877
6.552935
6.577969
6.871819
6.831884
6.971955
6.923676
7.184744
7.079840
6.759763
6.739497
7.138848
6.826520
##ZVALUE=275
1.646876
1.467466
1.564622
1.495481
1.419783
1.331568
1.452565
1.617670
1.648664
1.901984
1.798868
1.988411
2.282858
2.370477
2.483726
2.711415
2.684593
2.999902
3.372431
9.821653
34.839511
134.607553
301.837921
578.646660
1016.001701
1016.001701
1016.001701
1016.001701
1016.001701
1016.001701
1016.001701
1016.001701
954.707861
588.704944
268.771648
144.342780
78.203678
73.816776
104.028583
124.861598
153.224468
171.144605
181.456804
175.858736
155.037642
137.611628
106.557608
84.616542
60.812831
48.209429
36.930442
31.548738
28.595924
27.543902
26.460886
25.032759
24.967790
23.603439
22.313595
22.463799
21.476746
20.161867
19.791722
19.347668
17.637610
16.915798
16.524792
16.388893
15.846491
16.050935
16.086698
16.230941
16.208887
15.928745
15.191436
15.029907
13.713837
12.830496
13.380647
11.797547
10.711551
10.137558
9.671450
9.276867
8.689761
8.172989
7.688999
8.236766
7.285476
7.264614
6.782413
6.932616
6.937981
7.109642
6.689429
6.654859
6.370544
6.563663
6.401539
6.548762
6.730556
6.663799
6.773472
6.911755
6.753802
6.433725
7.061958
6.834865
6.796718
6.217957
6.893873
6.507635
6.545782
6.534457
6.340742
5.880594
##ZVALUE=280
1.335740
1.419783
1.232624
1.514554
1.472831
1.400709
1.484752
1.645684
1.598597
1.566410
1.731515
1.590848
1.985431
1.784563
2.003908
2.154708
2.061725
2.390742
2.698898
2.701879
3.280640
4.447699
22.286773
75.268745
246.400833
462.063551
879.063010
1016.001701
1016.001701
1016.001701
1016.001701
1016.001701
1016.001701
1016.001701
1016.001701
765.140653
374.886990
195.835829
83.700418
61.500669
76.034665
98.200440
127.739906
147.543550
168.380737
175.913572
168.301463
154.629946
129.391551
106.691718
76.534748
60.096979
42.705536
34.014583
27.932525
24.696589
23.127794
22.188425
21.143556
20.643473
19.907951
19.419789
18.339753
18.410683
17.196536
16.800761
16.219616
15.792847
15.829802
15.454888
15.019774
15.065670
15.063882
14.550686
14.896989
14.297962
13.242960
12.874603
12.426972
10.962486
10.523796
9.969473
9.177923
8.769631
8.636713
8.372664
7.752776
8.023977
7.458925
7.428527
7.081628
7.001758
6.910563
6.499887
6.841421
6.700754
6.948709
6.157756
6.212592
6.590486
6.057620
6.157756
6.689429
6.323457
6.089807
6.015897
6.172657
6.188750
6.006956
6.346703
6.068945
5.735755
6.101727
5.972981
5.763769
5.879998
##ZVALUE=285
1.186728
1.070499
1.358986
1.390576
1.443624
1.293421
1.301765
1.402497
1.397729
1.472831
1.473427
1.445413
1.749992
1.581907
1.731515
1.893640
1.968741
2.012849
2.125502
2.403855
2.426505
2.819896
3.214478
3.393888
11.695623
40.040612
141.673684
303.576589
667.863488
1000.600457
1016.001701
1016.001701
1016.001701
1016.001701
1016.001701
1016.001701
1016.001701
983.265638
536.338687
304.878950
127.069950
66.709518
52.233934
65.573454
92.702508
114.011765
142.191648
155.649781
165.379643
161.901712
144.859552
124.176741
96.594691
76.171756
52.494407
40.509701
27.206540
23.018718
19.028783
18.069744
17.781854
17.185807
16.118884
15.552640
15.190840
15.322566
14.487505
14.308691
13.703704
13.857484
14.569759
13.821721
14.334917
13.856888
13.470650
12.930632
12.261868
12.171865
11.170506
9.792447
9.869933
9.647608
9.536743
8.760691
8.370876
7.814765
7.232428
7.447600
7.691979
7.374883
7.124543
6.849766
6.539822
6.464720
6.112456
5.938411
6.438494
6.279945
5.982518
6.078482
6.053448
5.873442
5.950928
6.318688
5.835891
5.975962
6.108880
6.229877
5.975962
5.863905
6.090999
5.967617
5.408525
5.450845
5.636811
5.674958
##ZVALUE=290
1.234412
1.258850
1.035929
1.197457
1.316667
1.041889
1.204610
1.310706
1.319647
1.299977
1.357794
1.312494
1.359582
1.471639
1.590848
1.761913
1.790524
1.917481
1.941919
1.932979
2.169609
2.095699
2.144575
2.756715
2.996922
3.507733
4.571676
23.205876
70.385933
223.158598
426.400900
882.415771
1016.001701
1016.001701
1016.001701
1016.001701
1016.001701
1016.001701
1016.001701
1016.001701
792.104602
386.015773
198.784471
73.367953
41.244626
42.666793
57.213902
81.796646
104.176998
128.630996
145.770907
154.487491
153.311491
136.549473
115.115643
90.211630
68.864822
45.774579
33.817887
23.125410
17.547607
14.162660
13.040900
12.186766
12.218952
12.017488
11.845827
12.115836
12.040734
12.312531
12.746453
12.275577
12.379885
12.461543
11.885762
11.521578
10.761619
10.122657
10.146499
9.406805
8.979440
8.374453
7.945895
7.613897
7.906556
7.572770
7.234812
7.043481
7.166862
6.790757
6.807446
6.596446
6.281734
6.057620
5.852580
5.599856
6.034970
6.057620
5.436540
5.906820
6.101727
5.995631
5.539656
6.013513
6.070733
5.939603
6.007552
5.541444
5.835891
5.761981
5.645752
5.713701
5.487800
5.585551
5.713701
5.170703
##ZVALUE=295
0.845790
1.273751
1.063943
1.161695
1.222491
1.113415
1.195669
1.271963
1.255870
1.379848
1.291633
1.272559
1.338720
1.416802
1.353621
1.448989
1.476407
1.576543
1.531839
1.797676
1.882911
2.100468
2.096891
2.343655
2.481937
2.545714
2.951622
3.156662
3.878474
7.361770
41.436553
118.671656
341.832638
636.280775
1016.001701
1016.001701
1016.001701
1016.001701
1016.001701
1016.001701
1016.001701
1016.001701
976.527929
621.622801
270.138979
123.707652
43.647885
27.820468
36.854744
50.190687
74.351430
94.479918
119.485855
134.984851
143.866539
143.158436
125.682950
108.132958
84.573627
65.979958
43.056607
31.533837
20.067692
15.253425
11.560917
10.555983
9.716749
9.711981
10.072589
10.492802
10.412931
10.797977
10.762811
10.917783
10.735989
10.165572
9.743571
9.258986
8.651614
8.984804
7.815957
7.548928
7.847548
7.340908
6.998777
6.856918
6.750822
6.590486
6.485581
6.444454
6.149411
6.207824
6.048679
6.228685
5.879998
5.806684
6.204844
5.732775
5.799532
5.739927
5.820990
5.712509
5.738735
5.812645
5.758405
6.276965
5.617738
5.822778
5.719662
5.278587
5.636811
5.593896
5.562901
5.573630
5.355477
5.380511
##ZVALUE=300
1.086593
1.084805
1.039505
1.065731
0.955462
0.978708
1.168847
0.934601
1.209974
1.124740
1.270771
1.176000
1.190901
1.320839
1.273751
1.395941
1.399517
1.436472
1.565814
1.398921
1.526475
1.800656
1.866817
2.032518
1.978874
2.346635
2.293587
2.642870
2.776980
3.160834
3.489852
4.316568
17.449856
64.643621
226.911902
448.031425
931.024551
1016.001701
1016.001701
1016.001701
1016.001701
1016.001701
1016.001701
1016.001701
1016.001701
819.588900
405.387878
208.343863
72.606802
30.378699
23.251772
30.460954
46.773553
62.442422
88.030696
107.018948
125.413537
132.673979
132.664442
124.163628
103.736520
85.188746
60.636997
44.400692
27.648807
19.158721
12.673736
9.861588
9.078979
8.747578
8.998513
8.976460
9.232759
9.297729
9.291768
9.055734
8.592606
8.064508
7.628798
7.839799
7.581711
7.389784
6.995797
6.525517
6.407499
6.683469
6.086826
6.262660
6.159544
5.885959
5.966425
5.798936
5.944967
5.837679
5.522966
5.525947
5.772710
5.324483
5.477667
5.188584
5.887747
5.367994
5.371571
5.502701
5.593896
5.569458
5.776882
5.818605
5.521774
5.871654
5.184412
5.444884
5.147457
5.072951
4.968643
4.913807
##ZVALUE=305
0.854731
0.983477
0.954866
0.979900
0.916719
1.109838
1.006722
1.265407
1.033545
1.028776
1.193881
1.283884
1.085997
1.179576
1.173615
1.111627
1.409650
1.377463
1.527667
1.617670
1.451969
1.646876
1.596808
1.810789
1.773834
1.756549
1.971722
2.062917
2.127886
2.495646
2.825856
2.912879
3.187656
3.374815
8.485913
32.591820
137.872696
314.034820
720.240474
1016.001701
1016.001701
1016.001701
1016.001701
1016.001701
1016.001701
1016.001701
1016.001701
977.943540
622.865558
335.031748
119.850636
46.804547
18.501878
19.621849
28.665662
40.409565
61.758757
79.840422
102.791786
117.554665
125.767589
127.577782
115.223527
100.524426
75.967908
59.394836
38.604736
27.043819
16.749501
12.211800
9.543896
9.066463
8.744597
8.623600
8.497834
7.622838
7.576942
7.371902
7.069707
7.087588
6.651878
6.327629
6.644726
6.150603
6.177425
6.122589
6.136894
5.943775
6.020665
5.399585
5.789995
5.574822
5.669594
5.486608
5.746484
5.446672
5.217791
5.426407
5.392432
5.201697
5.196929
5.497932
5.458593
5.478859
5.466938
5.379915
5.373955
5.785823
5.455613
5.208850
5.307794
5.161762
5.046725
5.449653
4.885793
4.953742
##ZVALUE=310
0.845790
0.951886
0.998974
0.845790
0.951886
1.126528
1.027584
0.953674
1.085997
1.039505
0.952482
1.171827
1.103878
1.112819
1.197457
1.052618
1.130700
1.361966
1.328588
1.426935
1.303554
1.366735
1.416802
1.449585
1.538992
1.625419
1.932979
1.829863
2.202988
2.012849
2.128482
2.240539
2.456903
2.746582
3.170967
3.565550
4.500747
13.537407
74.867010
183.466077
469.505787
823.064446
1016.001701
1016.001701
1016.001701
1016.001701
1016.001701
1016.001701
1016.001701
1016.001701
787.390471
463.543534
186.707973
79.388618
23.432970
14.712811
18.243790
24.109483
37.634969
51.018596
73.381662
90.285540
109.962821
117.820501
118.963718
110.946894
94.688535
78.113675
55.111647
40.159822
25.559664
18.188953
12.159944
9.744763
8.373857
8.001924
7.309914
6.904602
6.694794
6.453991
6.280541
6.187558
6.150603
6.159544
5.899668
5.566478
5.874634
5.864501
5.563498
5.766749
5.868673
5.653501
5.672574
5.619526
5.432963
5.333424
5.446672
5.183816
5.367994
5.150437
5.195737
5.129576
5.297661
5.383492
5.100965
5.073547
5.401969
5.422831
5.308986
4.970431
5.143881
5.373955
5.142689
5.089641
4.987717
4.925728
##ZVALUE=315
0.963807
0.959635
0.911951
0.948906
0.847578
0.820756
0.887513
0.916719
0.922680
0.956655
0.955462
1.010895
0.954866
1.037717
1.018643
1.023412
1.128912
0.977516
1.159906
1.182556
1.121759
1.260638
1.186728
1.266599
1.421571
1.358986
1.559854
1.625419
1.574755
1.810789
1.745820
1.933575
2.033710
2.272725
2.352595
2.780557
3.080964
3.230572
3.745556
6.711483
38.406849
112.080574
334.752798
620.800853
1016.001701
1016.001701
1016.001701
1016.001701
1016.001701
1016.001701
1016.001701
1016.001701
969.377756
618.181825
280.713439
125.328898
32.123923
14.458895
13.058782
15.894771
23.150444
33.461452
51.195621
66.360831
87.789893
100.240707
111.797452
112.027526
103.496909
90.856552
70.473552
55.110455
37.726760
26.523471
16.711950
11.973977
8.658767
7.328987
6.149411
6.246567
5.967617
5.758405
5.639791
5.710721
5.589724
5.601645
5.620718
5.433559
5.428791
5.534887
5.237460
5.334616
5.360842
5.457997
5.297661
5.268455
5.248785
5.067587
5.237460
5.243421
5.124807
5.682707
5.334616
5.267859
5.549788
5.199909
5.242825
5.198717
5.313754
5.251765
5.368590
5.149841
5.174875
5.046725
5.007982
4.846454
##ZVALUE=320
0.866652
0.781417
0.891685
0.752807
0.916719
0.876784
0.819564
0.857711
0.952482
0.891685
0.920892
0.930429
0.803471
1.098514
1.081824
1.078844
0.915527
1.035929
1.159906
0.984669
1.028776
1.236796
1.211762
1.299977
1.263618
1.336932
1.334548
1.261830
1.282692
1.619458
1.579523
1.635551
1.803637
1.813769
1.883507
2.089739
2.471805
2.520680
2.678633
3.003478
3.189445
3.731847
17.236471
59.561729
214.307904
439.455509
905.830860
1016.001701
1016.001701
1016.001701
1016.001701
1016.001701
1016.001701
1016.001701
1016.001701
842.227936
386.618972
197.310448
62.928796
23.492575
11.291504
11.308789
14.546514
19.673705
30.679703
42.626858
62.684417
78.416467
96.944571
103.799701
105.822682
99.962950
86.448789
71.885586
51.242709
37.864447
23.346543
15.637875
10.250807
7.697940
6.029606
6.010532
5.821586
5.136728
5.235672
5.134940
5.045533
5.291700
5.069971
5.084872
5.404949
5.202889
5.275607
5.194545
5.181432
5.356669
4.947782
5.105734
5.058646
4.983544
5.101562
4.957914
5.060434
4.921556
5.364418
5.122423
5.179644
5.100965
5.420446
5.166531
5.149841
5.067587
5.066991
5.098581
4.899502
5.081892
##ZVALUE=325
0.794530
0.846982
0.712872
0.778437
0.946522
0.814795
0.891685
0.803471
0.839829
0.895858
0.760555
0.777841
1.007915
0.898838
1.087785
0.977516
1.051426
1.059771
0.704527
0.947714
1.002550
1.112819
1.136661
1.296997
1.165867
1.200438
1.236796
1.340508
1.229644
1.356602
1.486540
1.649857
1.506805
1.645684
1.805425
1.944900
1.937747
2.293587
2.090931
2.194643
2.538562
2.630949
3.238916
3.431439
9.129643
36.720634
144.898891
312.913656
707.578659
1016.001701
1016.001701
1016.001701
1016.001701
1016.001701
1016.001701
1016.001701
1016.001701
962.782502
505.692959
273.373723
95.981956
34.170747
11.569858
10.019541
10.681748
12.476444
19.220710
27.216673
43.862462
59.264898
78.381896
89.895725
99.048615
99.808574
92.300773
81.641674
61.994791
47.686696
31.449795
21.989942
13.731718
9.851456
6.983876
6.318688
5.364418
5.431771
4.851818
5.026460
4.530549
5.029440
4.846454
4.653931
4.916787
4.924536
5.035996
4.949570
5.026460
4.787445
5.055666
5.254745
5.027652
5.270839
5.214810
5.068779
5.290508
5.215406
5.280972
5.496740
5.041957
5.290508
5.109906
4.930496
5.197525
5.162954
4.876852
4.958510
##ZVALUE=330
0.819564
0.726581
0.605583
0.764728
0.809431
0.593662
0.553727
0.753999
0.868440
0.822544
0.757575
0.859499
0.816584
0.917912
0.925660
0.880957
0.877976
0.885725
0.910759
0.975728
0.852942
0.979900
0.909567
0.938773
1.102686
1.032948
1.178980
1.140833
1.087785
1.068711
1.187921
1.262426
1.453757
1.421571
1.543760
1.712441
1.754761
1.746416
1.897812
2.062917
2.165437
2.141595
2.388954
2.552867
2.947450
3.181696
4.832745
17.939806
91.067553
216.164589
518.238544
861.722827
1016.001701
1016.001701
1016.001701
1016.001701
1016.001701
1016.001701
1016.001701
1016.001701
660.084486
359.661579
134.219527
55.259466
15.365481
9.934902
8.777976
9.690523
12.793541
18.099546
28.459430
39.715767
56.210756
69.113970
84.927678
91.522932
90.716481
85.146427
72.421432
59.809685
41.586757
31.132698
20.488501
14.256835
9.158850
7.155538
5.558729
5.187988
4.794598
4.721880
4.909635
4.930496
5.089641
4.984736
4.887581
4.964471
4.704595
4.728436
4.894733
4.825592
4.918575
4.846454
4.863739
5.040765
4.937649
5.131960
5.029440
5.272627
5.485415
5.292892
4.995465
5.135536
5.244613
4.670620
4.886985
4.574656
##ZVALUE=335
0.718832
0.657439
0.599623
0.718832
0.787973
0.795722
0.753999
0.609756
0.755787
0.735521
0.786781
0.736713
0.947714
0.797510
0.759959
0.808835
0.760555
0.915527
0.884533
0.849962
0.936985
1.047850
0.877976
0.973940
0.991821
1.054406
1.122952
1.000762
1.134872
1.204610
0.905991
1.087785
1.167655
1.423955
1.165867
1.299977
1.398921
1.566410
1.657605
1.619458
1.689792
1.713634
2.039671
2.178550
2.266765
2.447963
2.701879
2.759695
3.588796
7.307529
46.843886
130.118728
363.091826
648.542643
1016.001701
1016.001701
1016.001701
1016.001701
1016.001701
1016.001701
1016.001701
1016.001701
800.483823
484.634638
206.704736
89.723468
24.356842
10.790825
8.469820
8.565784
9.710789
11.906624
17.395616
24.509430
37.480593
50.040483
66.466928
77.652931
84.319711
84.952712
78.843832
69.792867
54.358840
44.141412
29.875636
21.483898
13.423562
9.753704
6.927848
5.822778
5.213618
5.086660
4.621744
4.732609
5.005598
4.822612
4.825592
4.715919
4.839897
4.807711
4.558563
4.827976
4.910827
5.033612
5.053878
5.589724
5.183816
5.277991
5.522966
5.309582
5.344748
5.265474
5.077720
4.948974
5.122423
4.947782
##ZVALUE=340
0.681877
0.597835
0.521541
0.672936
0.567436
0.700951
0.530481
0.704527
0.612736
0.765920
0.604987
0.812411
0.761747
0.852942
0.730753
0.748634
0.698566
0.857711
0.750422
0.912547
0.881553
0.885725
0.886917
0.916719
0.842810
0.831485
0.822544
1.065731
1.092553
1.176596
1.148582
1.055598
1.219511
1.273751
1.254678
1.198649
1.226664
1.326799
1.314878
1.464486
1.413822
1.631975
1.629591
1.804829
1.999736
1.963973
2.158880
2.461672
2.515912
2.814531
3.116727
4.260540
20.999908
74.799657
253.033638
495.630503
969.930887
1016.001701
1016.001701
1016.001701
1016.001701
1016.001701
1016.001701
1016.001701
951.138735
594.747663
271.804929
126.130581
32.429695
12.586713
8.807778
8.663535
8.081794
8.856654
11.025667
15.034676
23.436546
33.316612
49.272776
60.747862
73.023438
78.844428
79.582930
75.477958
64.648986
55.270791
40.146708
30.829906
19.872785
14.324784
9.576678
6.881952
5.796552
5.434752
4.929900
4.972816
4.813671
4.965663
4.936457
4.915595
4.957914
4.702806
4.993677
4.834533
4.873872
5.116463
5.254745
5.196929
5.208850
5.205870
5.277991
5.111694
5.058646
5.156994
5.094409
4.934669
##ZVALUE=345
0.775456
0.675917
0.712872
0.618696
0.607967
0.681877
0.686646
0.637770
0.637770
0.797510
0.751615
0.665784
0.766516
0.706911
0.611544
0.691414
0.723600
0.656843
0.753999
0.729561
0.808835
0.800490
0.843406
0.762939
0.966787
0.908971
1.041889
1.051426
0.905991
1.051426
0.941753
1.202822
1.064539
1.107454
1.161695
1.031756
1.162887
1.118779
1.179576
1.168847
1.271963
1.506805
1.432896
1.552701
1.793504
1.916885
1.919866
1.962781
2.250671
2.167821
2.540946
2.590418
2.914667
3.159642
9.484887
39.073825
163.969398
340.117812
722.138882
1016.001701
1016.001701
1016.001701
1016.001701
1016.001701
1016.001701
1016.001701
1016.001701
761.060715
343.853831
162.603855
49.377680
19.265413
9.754896
8.450747
8.013844
7.656813
7.935762
9.208918
14.624596
20.093918
32.099485
42.859912
55.135489
63.826442
71.880817
73.580742
70.085526
63.664913
50.792694
41.474700
29.661655
21.174550
13.834834
10.115504
7.103682
5.951524
5.307794
5.311966
4.912615
4.982948
4.990697
4.848838
4.703999
5.006790
5.059838
5.052686
5.208850
5.249977
5.161762
5.268455
5.412698
5.402565
5.044937
5.337596
5.122423
4.934669
##ZVALUE=350
0.821948
0.749826
0.593662
0.656843
0.642538
0.833869
0.709891
0.570416
0.768900
0.752807
0.593662
0.739694
0.694990
0.776649
0.798702
0.792742
0.629425
0.774860
0.753999
0.763535
0.718832
0.738502
0.781417
0.858903
0.823736
0.750422
0.839829
0.840425
0.875592
1.019835
0.979900
1.068711
1.096725
1.036525
1.117587
1.086593
1.162887
1.119971
1.073480
1.135468
1.222491
1.363754
1.327991
1.377463
1.596808
1.615882
1.647472
1.388788
1.803637
1.844764
1.935959
2.168417
2.254844
2.351999
2.719760
3.147721
5.174875
18.965602
91.660619
213.326812
523.121953
892.063975
1016.001701
1016.001701
1016.001701
1016.001701
1016.001701
1016.001701
1016.001701
883.927941
432.984829
232.511759
83.443522
29.627681
10.342598
7.933974
7.304549
6.666780
6.651878
6.935596
8.905530
12.394786
19.418597
26.641488
38.310885
48.124790
59.386492
65.132976
67.158937
65.475702
58.529973
50.410628
39.080977
29.767752
20.160675
15.007854
10.307431
7.788539
6.130934
5.502701
5.078912
4.801750
4.960895
5.010962
5.029440
5.308986
5.248785
5.231500
5.172491
5.440712
5.288720
5.173683
5.166531
4.914999
4.722476
4.690886
##ZVALUE=355
0.649691
0.675917
0.538826
0.556707
0.672936
0.575781
0.658631
0.650883
0.770688
0.776649
0.767708
0.833869
0.768900
0.731945
0.692606
0.840425
0.702739
0.921488
0.751615
0.913739
0.585914
0.845790
0.757575
0.769496
0.843406
0.823736
0.910759
0.896454
1.008511
0.968575
1.132488
1.034737
1.040697
1.130700
1.135468
0.988841
0.949502
1.198649
1.238585
1.269579
1.299977
1.259446
1.344681
1.236796
1.420975
1.535416
1.448989
1.635551
1.646876
1.706481
1.753569
1.908541
1.972914
2.040863
2.228618
2.286434
2.721548
2.838969
3.653765
8.926988
52.604675
141.221881
377.287865
669.733882
1016.001701
1016.001701
1016.001701
1016.001701
1016.001701
1016.001701
1016.001701
1016.001701
570.295453
307.250619
120.340586
47.447681
12.901425
7.806420
6.833673
6.197691
6.183982
6.116629
6.447434
7.796884
11.564493
16.131997
24.744868
32.022595
44.037700
52.145720
59.277415
61.190724
60.912967
55.265427
46.340823
38.757920
28.699636
22.163987
15.375614
11.394620
7.846951
6.504655
5.598664
5.468726
5.376935
5.346537
5.398989
5.585551
5.350709
5.353689
5.411506
5.051494
4.968643
4.986525
4.799962
4.772544
##ZVALUE=360
0.611544
0.901818
0.750422
0.652671
0.791550
0.831485
0.682473
0.672936
0.741482
0.746846
0.766516
0.629425
0.689626
0.780821
0.665784
0.764728
0.741482
0.791550
0.679493
0.751615
0.951886
0.832677
0.890493
0.871420
0.851750
0.905991
0.922680
0.881553
0.953674
0.947714
1.040697
0.908971
0.967979
0.994802
1.120567
1.179576
1.150966
1.176596
1.107454
1.113415
1.194477
1.149774
1.124740
1.269579
1.432896
1.233816
1.506805
1.484752
1.583695
1.763701
1.614690
1.759529
1.841784
1.969934
1.929998
2.148747
2.274513
2.254844
2.835989
2.976656
3.377795
4.973412
25.644898
80.704689
250.632763
482.004881
944.214463
1016.001701
1016.001701
1016.001701
1016.001701
1016.001701
1016.001701
1016.001701
765.522718
450.142026
184.039474
75.259805
18.738508
8.900762
7.099509
6.550550
6.205440
5.705953
5.718470
5.802512
7.029772
8.993745
13.699532
18.952489
28.071404
36.566854
45.774579
52.778721
56.745410
56.486726
52.553415
46.875477
37.584901
30.659437
21.863580
16.469955
11.694431
8.982420
6.970763
6.324649
5.786419
5.600452
5.550981
5.227923
5.402565
5.267859
5.123615
4.818439
4.943609
4.585981
##ZVALUE=365
0.644922
0.508428
0.800490
0.687838
0.641942
0.638962
0.490546
0.694990
0.670552
0.802875
0.810623
0.792742
0.710487
0.837445
0.902414
0.800490
0.687838
0.794530
0.680685
0.835657
0.879765
0.869632
0.897646
0.843406
0.874996
0.802875
0.860691
0.855923
0.969768
0.979900
0.948906
1.009703
1.023412
1.021624
1.071692
0.979900
1.046658
1.031756
1.062751
1.222491
1.100898
1.222491
1.300573
1.263618
1.313686
1.253486
1.454949
1.403689
1.444817
1.241565
1.543760
1.414418
1.610518
1.537800
1.799464
1.819730
1.984835
2.049804
2.053976
2.251863
2.776980
2.923608
3.319979
3.782511
10.923743
41.983724
160.016418
341.075659
761.878490
1016.001701
1016.001701
1016.001701
1016.001701
1016.001701
1016.001701
1016.001701
954.421759
584.783554
249.744654
111.929774
28.951764
10.926723
7.204413
6.349683
5.716681
5.560517
5.392432
5.216599
5.492568
5.931854
8.152723
11.249781
17.275810
23.716688
33.105612
40.290952
47.258735
51.252842
52.972436
50.708652
45.254827
38.441420
29.844642
23.172498
16.600490
12.869835
9.315610
7.576942
6.345510
5.741715
5.036592
4.891753
4.910827
4.787445
4.457831
4.437566
##ZVALUE=370
0.591874
0.705719
0.712872
0.826716
0.749826
0.802875
0.752807
0.747442
0.718832
0.747442
0.885725
0.714660
0.695586
0.791550
0.788569
0.737906
0.533462
0.748634
0.827909
0.759959
0.762939
0.802875
0.715852
0.808835
0.873804
0.831485
0.941753
0.957847
0.779629
0.847578
0.926852
0.816584
0.873804
0.903606
0.945926
0.973940
1.143813
0.868440
0.994802
0.980496
0.949502
1.129508
0.922680
1.003742
1.284480
0.934601
1.203418
1.325607
1.314878
1.123548
1.340508
1.303554
1.350641
1.412630
1.692772
1.584888
1.534820
1.678467
1.736879
1.842976
2.070665
2.011657
2.319813
2.725720
2.843738
3.184676
5.131960
20.130873
109.195709
262.464881
608.154535
954.501629
1016.001701
1016.001701
1016.001701
1016.001701
1016.001701
1016.001701
1009.411812
694.934726
337.754488
165.854692
53.978562
19.664764
7.351637
6.247759
5.810857
5.253553
5.270839
5.151629
5.176663
5.451441
6.475449
7.755756
10.763407
14.307499
21.289587
27.231574
36.007762
41.596889
47.202706
49.626827
47.992468
44.283867
37.864447
31.510592
23.758411
17.153621
13.416409
10.166764
7.849932
6.089807
5.388856
4.751682
4.400611
4.203916
##ZVALUE=375
0.620484
0.726581
0.668764
0.730753
0.604987
0.608563
0.562668
0.652671
0.532866
0.606775
0.808835
0.661612
0.677705
0.572801
0.622869
0.661612
0.720620
0.698566
0.782609
0.699759
0.678897
0.676513
0.819564
0.792742
0.722408
0.865459
0.953674
0.866652
0.737906
0.910759
0.746846
0.868440
0.991821
0.868440
0.818968
0.947714
0.796914
0.960827
0.913739
0.937581
0.991821
0.852942
1.128912
1.056790
1.172423
1.144409
1.201630
1.066923
1.034737
1.021624
1.259446
1.206994
1.182556
1.321435
1.325607
1.522899
1.235604
1.426935
1.439452
1.595616
1.619458
1.584888
1.783967
1.859665
2.160668
2.120733
2.685785
3.026724
3.883839
10.066628
59.629679
156.031847
403.596759
716.157556
1016.001701
1016.001701
1016.001701
1016.001701
1016.001701
1016.001701
1016.001701
909.544826
502.431989
277.256966
102.453828
39.865971
10.356903
6.422997
5.760789
5.404949
5.488992
5.515814
5.505681
5.545616
5.732775
6.056428
7.172823
9.050965
12.712479
17.028451
24.377704
30.382872
38.540959
43.376684
47.210455
47.221780
44.437647
38.078427
33.423901
25.937557
20.942688
14.655590
11.291504
7.827878
6.383657
5.348921
##ZVALUE=380
0.536442
0.511408
0.587702
0.487566
0.633597
0.581741
0.522733
0.756979
0.721812
0.690818
0.618696
0.608563
0.467896
0.544786
0.683665
0.634789
0.571609
0.657439
0.701547
0.569820
0.666976
0.591874
0.737906
0.827909
0.671744
0.797510
0.796914
0.906587
0.806451
0.925660
0.968575
0.828505
1.044869
0.809431
1.034737
1.067519
0.979900
1.108646
0.844598
0.826716
1.008511
1.021624
0.938773
0.829697
1.054406
1.015663
1.017451
0.927448
1.016855
1.029968
1.047850
1.073480
1.079440
1.046658
1.283884
1.275539
1.216531
1.113415
1.325607
1.382828
1.278520
1.480579
1.583695
1.709461
1.686811
1.942515
2.133846
2.273917
2.724528
3.178716
3.535748
5.736947
31.117797
97.508430
298.841000
553.411841
996.725559
1016.001701
1016.001701
1016.001701
1016.001701
1016.001701
1016.001701
1016.001701
673.785806
394.213796
157.870650
67.320466
16.386509
7.412434
6.223917
5.990863
6.149411
5.927682
5.743504
5.848408
5.703568
5.484819
5.721450
6.086826
8.221865
10.509491
15.498996
20.815730
28.888583
34.708977
41.259527
44.584870
45.134425
42.680502
39.285421
32.751560
27.472973
19.676685
15.342832
10.724664
##ZVALUE=385
0.530481
0.453591
0.482798
0.607967
0.582933
0.555515
0.633597
0.550747
0.706911
0.661612
0.576973
0.491738
0.528693
0.620484
0.635982
0.571609
0.650883
0.627637
0.614524
0.741482
0.691414
0.686646
0.586510
0.751615
0.764728
0.938773
0.735521
0.782609
0.936985
1.003742
0.931621
0.957847
1.136661
1.112819
1.185536
1.131892
1.018643
1.192689
0.977516
1.007915
0.866652
1.051426
0.917912
1.196861
0.975728
1.153946
1.117587
1.012683
1.089573
1.066923
1.021624
1.167655
1.143813
1.152754
1.129508
1.279712
1.223683
1.201630
1.362562
1.170635
1.167655
1.384616
1.435876
1.192689
1.449585
1.658797
1.889467
1.880527
2.159476
2.490878
2.535582
2.710819
3.273487
3.530979
13.827682
49.483776
183.336735
393.167734
834.390521
1016.001701
1016.001701
1016.001701
1016.001701
1016.001701
1016.001701
1016.001701
901.312828
573.630929
259.521604
125.498772
37.721992
12.386441
6.427765
6.099939
5.980730
5.651712
5.580783
5.222559
4.992485
4.823804
4.686713
4.827976
5.643964
6.638765
9.616613
12.802482
18.459558
25.050640
29.942989
34.971833
39.308667
40.974617
39.845705
37.483573
31.912923
25.724769
##ZVALUE=390
0.563860
0.546575
0.536442
0.537634
0.305772
0.487566
0.513792
0.583529
0.475645
0.602603
0.617504
0.664592
0.583529
0.584722
0.481606
0.756979
0.525713
0.474453
0.632405
0.581741
0.502467
0.687838
0.536442
0.615716
0.683665
0.787973
0.841618
0.937581
0.865459
0.977516
1.028776
0.931621
1.108646
1.062751
1.136661
1.150966
1.137853
1.186728
1.202822
1.274943
1.133680
1.209974
1.207590
1.151562
1.192689
1.186728
1.158714
1.148582
1.306534
1.203418
1.184940
1.137853
1.001954
1.092553
1.157522
1.187921
1.091957
1.111627
1.464486
1.360774
1.054406
1.418591
1.489520
1.365542
1.543760
1.674891
1.806617
1.857877
2.102852
2.087951
2.387762
2.518892
2.626777
2.684593
2.832413
3.108978
6.565452
29.051900
133.270025
302.896500
692.386031
1014.573574
1016.001701
1016.001701
1016.001701
1016.001701
1016.001701
1016.001701
1016.001701
777.584910
395.130515
199.000835
64.040422
21.395683
6.955862
6.054640
5.723834
5.530715
5.271435
5.102754
5.010962
4.842877
4.519820
4.624724
4.546642
4.909635
6.186962
8.083582
11.104941
14.527440
20.530820
24.913549
31.147599
35.410523
38.025975
37.533641
##ZVALUE=395
0.668764
0.693798
0.582933
0.510812
0.587702
0.538826
0.569820
0.464916
0.531673
0.732541
0.405908
0.527501
0.486970
0.453591
0.732541
0.577569
0.492930
0.556707
0.482798
0.574589
0.574589
0.619888
0.656843
0.765920
0.723600
0.830889
0.725985
0.822544
0.885725
0.831485
1.031756
1.163483
0.942945
1.203418
1.120567
1.181960
1.112819
1.020432
1.350641
1.126528
1.168847
1.237988
1.211762
1.208782
1.242757
1.310706
1.253486
1.176000
1.284480
1.116991
1.219511
1.121759
1.300573
1.309514
1.184940
1.283884
1.232624
1.223683
1.249909
1.310706
1.289845
1.197457
1.250505
1.155734
1.401901
1.476407
1.489520
1.769662
2.061725
2.054572
2.059937
2.253652
2.323985
2.467632
2.356768
2.405643
2.657771
2.786517
8.873940
22.517443
144.613981
252.119899
673.165917
876.792669
1016.001701
1016.001701
1016.001701
1016.001701
1016.001701
1016.001701
1016.001701
957.077742
504.283905
268.341899
94.831586
37.572980
10.416508
6.549954
5.760789
5.440712
5.491972
5.155802
5.001426
5.234480
4.975796
4.785657
4.778504
4.563928
5.024672
5.546808
6.932616
9.061694
12.529492
17.036796
22.790432
27.413964
##ZVALUE=400
0.710487
0.658631
0.656843
0.658631
0.671744
0.460744
0.527501
0.635982
0.414848
0.490546
0.597835
0.508428
0.545979
0.589490
0.472665
0.587702
0.490546
0.591874
0.630617
0.471473
0.597835
0.615716
0.569820
0.603795
0.622869
0.842810
0.795722
0.948906
0.823736
0.971556
0.942945
0.938773
0.937581
1.092553
1.102686
1.024604
1.308918
1.093745
1.251698
1.275539
1.229644
1.191497
1.177788
1.267791
1.171827
1.301765
1.362562
1.255870
1.186728
1.217723
1.270771
1.141429
1.243949
1.235604
1.210570
1.331568
1.170635
1.161695
1.139641
1.218915
1.088977
1.201630
1.222491
1.253486
1.318455
1.454949
1.568794
1.472831
1.846552
1.913905
2.117753
2.104640
2.100468
2.096891
2.065897
2.264977
2.048612
2.363920
2.565980
2.838969
3.290772
6.751418
42.573810
123.624802
348.829627
631.645918
1016.001701
1016.001701
1016.001701
1016.001701
1016.001701
1016.001701
1016.001701
1016.001701
654.318929
389.838815
162.477493
72.982907
21.414757
8.458495
5.799532
5.803704
5.309582
5.492568
5.776882
5.438924
5.427599
5.382895
5.131960
4.732609
4.506707
4.668832
5.054474
5.647540
7.848740
11.283755
##END
