##TITLE=4-2
##FORMAT=SPECTACLE-ASCII V-1.2
##DATA TYPE=ULTRAVIOLET SPECTRUM
##SECOND TYPE=ULTRAVIOLET SPECTRUM
##DATE=04/04/18
##TIME=14:11:05
##SPECTROMETER/DATA SYSTEM=SPECTACLE
##XUNITS=NM EM
##YUNITS=ENERGY
##YFACTOR=1
##FIRSTX=220
##LASTX=450
##NPOINTS=116
##3DDATA=Equidistant
##ZUNITS=NM EX
##FIRSTZ=210
##LASTZ=400
##ZPOINTS=39
##XYDATA=(Y..Y)
##ZVALUE=210
25.258660
23.945570
20.102859
13.157725
12.000799
11.390448
10.610819
9.986758
7.470846
6.594658
5.517602
4.793406
4.356503
4.309416
4.783869
4.245639
5.018711
5.182624
4.849434
5.991459
5.342960
5.976558
7.156730
7.234812
8.584857
10.455847
10.142922
11.474490
11.613965
12.637973
14.170408
14.436841
16.278625
14.349818
15.579462
16.022921
14.712811
14.923811
16.578436
15.062690
15.784502
16.661882
15.440583
14.650822
14.419556
14.693737
15.118718
16.792417
15.768409
16.381741
15.767813
15.170574
15.849471
15.183687
14.894605
15.152693
16.476512
15.735626
14.930964
15.277863
14.680624
13.998747
13.737679
14.451742
14.793873
15.218854
15.441775
17.408729
19.074678
22.393465
24.512410
27.179718
34.391880
35.691857
40.344000
40.741563
44.178963
41.253567
41.294694
40.458441
34.017563
32.280684
26.580691
24.632812
18.708706
18.238425
14.928579
12.640953
15.538931
17.333627
19.329786
24.172664
32.634735
38.925409
51.165819
58.858991
71.656704
75.582862
91.942549
95.630884
102.361441
101.191998
101.992488
95.140934
92.875957
86.085796
76.746941
70.820451
59.521794
51.138997
42.406917
33.457875
25.664568
21.680593
18.654466
18.497705
##ZVALUE=215
75.339675
76.567531
57.129860
42.406917
35.220981
24.151802
18.918514
17.669797
15.972853
14.534593
12.961626
11.583567
7.963777
7.411838
5.812645
5.555749
5.080700
5.400777
4.788637
5.591512
6.492734
6.613731
6.665587
8.607507
8.574724
9.255409
10.726452
12.663603
13.430715
13.154745
13.735890
14.835596
16.457438
16.173720
16.747713
16.999841
17.422438
15.775561
16.739964
16.283989
17.731786
15.705824
17.840862
16.595721
16.064644
16.389489
16.293526
15.864968
17.232895
18.241405
17.765760
18.592477
17.679930
16.910434
17.026663
17.158985
16.543865
16.025901
16.094446
17.486811
16.344786
16.245842
15.516877
15.798807
15.668869
16.047955
16.667843
16.431808
17.518997
19.651651
23.176670
25.672913
29.200912
30.270815
33.646822
32.978654
34.956932
34.374595
33.469796
31.472445
28.293729
26.979446
21.794438
19.018650
17.257929
15.205741
14.390945
13.082623
11.849999
10.654926
9.772778
11.441708
11.904836
13.048649
17.040968
22.060871
30.029416
38.559437
54.242611
67.740679
89.132786
98.319650
115.971565
130.791664
142.816901
148.897767
152.869821
153.645873
150.932670
144.777894
131.767988
120.957494
109.046698
89.278817
75.497627
53.809881
##ZVALUE=220
184.333920
194.848776
177.993774
164.931417
133.128762
99.724531
65.636635
48.392415
31.460524
24.526715
26.887655
26.953816
25.425553
19.102693
17.207861
13.141632
9.146929
8.308887
6.653666
6.632805
7.235408
8.202791
8.019805
9.986758
9.532571
10.949969
12.421608
12.347698
15.064478
14.641881
15.439987
16.603470
17.706752
18.826723
18.105507
18.736720
19.533634
21.398664
20.114779
21.776557
22.225976
23.415685
22.785664
24.335980
22.784472
23.688674
24.558902
23.966432
24.306774
23.993850
25.712848
26.801825
27.489662
26.474595
26.429892
25.125742
26.047826
27.771592
25.438666
25.196671
26.363730
26.457906
26.827455
23.702979
25.063753
25.595427
24.820566
27.019978
30.384660
32.124519
33.452511
39.641857
45.390725
51.019788
55.524707
57.594776
57.758689
51.819682
47.307611
43.397546
39.555430
34.233928
29.207468
29.184818
25.915504
25.108457
22.047758
21.678805
20.975471
21.279454
19.838810
19.700527
19.155741
19.732714
17.544627
18.642545
17.988682
19.069910
20.999908
25.484562
33.330917
45.660734
64.848661
86.457729
104.579926
135.237575
163.103938
197.816491
221.920609
252.036452
262.635946
276.856422
279.087424
264.734626
260.286927
236.773491
##ZVALUE=225
227.425694
232.290626
290.322900
323.039889
338.258743
306.397676
265.875459
185.878873
139.280558
84.911585
61.164498
47.289729
40.850639
40.963888
38.982630
35.615563
29.672980
21.587610
19.338727
13.523698
10.264516
9.093881
9.169579
8.663535
10.040998
10.237694
12.598634
12.834668
13.217926
13.945699
14.644861
16.967654
16.568899
16.615987
19.847751
19.132495
20.091534
20.531416
19.755960
25.562644
22.675991
24.095774
25.683641
24.440885
25.219917
23.084879
24.705529
26.517510
26.691556
25.584698
25.712848
28.293729
27.151704
26.923418
26.024580
24.710894
24.736524
25.029778
27.984977
25.376678
24.591684
25.497675
25.014877
25.626421
23.320913
25.201440
23.749471
25.415421
25.484562
27.580857
32.846928
33.487678
36.740899
40.725470
43.459535
45.524836
45.000911
42.625666
40.998459
37.005544
31.463504
29.719472
24.565458
23.756623
21.567941
20.619631
18.590689
16.853809
16.861558
17.263889
16.614795
15.902519
16.041994
15.414953
15.003681
16.159415
15.390515
14.496446
14.364719
14.673471
15.169978
14.881492
15.140772
18.481612
28.112531
38.222671
56.660771
87.316632
112.938881
152.021646
184.249878
230.435729
276.985765
331.828594
360.345840
394.880772
##ZVALUE=230
151.236653
157.155991
271.667838
374.894738
473.102927
571.864843
598.225594
573.326945
510.437489
381.404757
290.440917
168.779492
110.084414
72.394609
62.647462
61.225891
66.250563
59.792995
52.001476
41.344762
31.912923
23.003817
16.983747
13.259649
11.052489
10.732412
10.435581
11.483431
11.599660
12.294650
12.052655
13.595819
13.333559
15.682578
15.990734
18.758774
19.745827
19.842982
22.255778
22.483468
24.058819
24.705529
23.592710
23.460984
24.216771
25.504827
25.260448
25.816560
25.725961
26.016831
23.929477
25.936961
25.517941
25.360584
26.377439
25.424957
26.815534
24.422407
24.658442
23.440719
24.913549
25.749803
24.214983
23.459792
25.144815
23.491979
24.636984
24.779439
25.492907
28.021932
31.299591
31.079650
34.866929
34.799576
36.403537
37.004948
37.545562
33.150911
32.436848
29.434562
27.623773
25.048852
23.848414
22.395849
19.445419
17.382503
15.311837
17.093420
14.498830
15.458465
14.420748
14.645457
14.181733
13.541579
12.902617
13.305545
13.814569
14.237761
15.362501
14.130473
13.833642
13.012886
12.042522
13.978481
12.470484
13.252497
12.712479
15.291572
19.322634
29.010773
41.522980
69.346428
97.616911
153.388977
205.183625
278.677940
##ZVALUE=235
41.413903
48.389435
119.959712
209.834576
342.521667
552.380681
716.560483
884.307623
954.532027
914.321542
821.716785
617.349744
471.375585
286.052823
194.841623
116.567612
91.468692
87.393522
92.455745
89.969635
85.795522
74.820518
57.834983
45.162439
30.107498
22.678971
16.218424
14.796853
11.123419
13.730526
13.237000
13.546944
13.885498
14.646649
15.124679
18.934608
17.742515
18.945932
20.552874
21.322966
21.431446
23.377538
23.300648
24.621487
27.338862
25.485754
26.782751
25.774837
25.145411
26.464462
25.512576
24.786592
25.413632
24.591684
24.365783
24.983883
23.043752
24.869442
24.953485
23.003817
22.088885
24.287701
23.368001
22.251606
22.196770
23.023486
22.208691
23.507476
24.604797
26.044846
28.554797
31.910539
32.556653
36.345720
35.999417
33.926964
32.435656
34.318566
32.222867
29.920936
25.783777
25.408864
21.759868
20.927787
18.376708
18.742681
17.145872
15.192628
15.993714
15.567541
15.850663
15.109777
15.713573
13.583899
13.338923
14.307499
14.092922
14.059544
14.234781
13.947487
14.007688
13.713837
13.806820
12.933612
13.454556
12.779832
14.900565
11.619925
14.407635
12.489557
14.026761
13.172626
14.466643
20.927787
33.171773
56.694746
##ZVALUE=240
3.933907
4.434586
16.378760
44.865608
100.935698
239.882469
408.685803
693.274736
910.884738
1016.001701
1016.001701
1016.001701
1016.001701
902.489424
688.440800
430.499911
278.468728
171.213746
128.912926
116.360784
120.728612
121.488571
119.662881
107.280612
89.000463
67.468882
54.456592
39.562583
26.132464
19.776821
16.008615
15.329719
16.178489
15.455484
16.656518
17.052889
18.201470
18.750429
19.289851
22.275448
19.945502
21.247864
22.748709
22.919774
23.030639
24.919510
24.329424
25.399923
24.687648
25.804639
24.089813
23.262501
23.787618
23.062825
24.338961
23.105741
23.640990
23.678541
22.852421
22.766590
22.110939
22.089481
21.105409
23.545623
23.226738
21.577477
23.473501
23.725629
24.676919
26.762486
27.660728
32.644868
33.461452
34.647584
35.201907
34.911633
32.878518
30.864477
30.640960
30.210614
27.240515
22.941828
22.225976
22.425652
19.517541
18.191934
17.936826
17.766953
16.208887
16.498566
15.363693
13.404489
15.735626
15.747547
14.765859
14.310479
14.260411
13.462901
14.673471
14.507771
15.046597
13.481975
14.395714
14.025569
15.142560
13.449788
14.409423
15.009642
14.013648
14.988780
14.935732
12.994409
13.198853
15.470982
13.102889
14.285445
##ZVALUE=245
2.786517
3.512502
3.157854
3.748536
6.602407
32.963753
76.508522
212.823749
377.078652
662.532449
941.957831
1016.001701
1016.001701
1016.001701
1016.001701
1016.001701
939.778686
618.824959
410.690904
216.771960
145.678520
112.181902
120.320916
132.008791
136.319995
129.717588
119.956732
104.181767
76.995492
61.036944
40.683746
31.168461
21.322966
18.534660
16.281605
16.174912
17.412901
18.186569
17.568469
17.927885
18.730760
19.401908
19.297600
19.949675
20.443797
20.769835
21.503568
20.808578
21.274686
21.330714
20.654798
20.653605
22.262931
20.220876
21.245480
22.156835
21.389723
20.959973
20.498633
21.505952
18.738508
19.592643
18.016696
18.269420
18.479824
18.348694
19.605756
19.955635
20.212531
20.604730
25.178790
26.766658
27.598739
28.108954
27.606487
27.705431
28.025508
26.341677
23.695827
24.117827
21.082759
20.681620
18.074512
18.050671
16.872883
15.683770
14.603734
14.092922
14.263988
13.957620
13.775826
12.691617
12.536645
12.965798
14.436841
12.899637
12.396574
13.049841
12.969971
12.126565
14.467835
11.719465
12.734532
12.892485
12.492537
13.384819
13.416409
12.051463
12.720823
12.404919
12.354851
12.924671
12.996793
13.123751
12.282729
11.138916
##ZVALUE=250
2.276897
2.966523
2.366900
3.000498
3.128648
3.564954
4.715919
20.627975
58.203936
163.781643
322.849751
629.163980
938.305855
1016.001701
1016.001701
1016.001701
1016.001701
1016.001701
1016.001701
836.553574
560.675859
305.781960
182.710886
117.304921
112.026930
129.916668
144.420862
145.591497
143.405795
125.740767
111.276507
84.312558
63.776970
42.336583
31.916499
23.288727
18.021464
18.306971
16.797781
18.082857
19.289851
18.739700
18.320680
19.634962
18.938780
20.652413
19.131899
19.589663
20.483732
19.481778
20.973682
19.620657
20.302534
20.306706
19.444823
20.714998
20.027757
19.022822
19.418597
19.631982
19.248724
18.722415
18.354654
16.645789
16.377568
17.217994
17.630458
17.180443
18.821955
19.379854
21.246672
22.664666
23.439527
24.748445
23.984909
23.427606
23.549795
22.260547
21.006465
19.539595
18.817782
16.719699
15.660524
14.960766
14.374852
14.742613
12.336969
12.760758
12.309551
12.770891
11.768937
12.432933
11.772513
11.118650
11.507869
10.764599
11.715889
10.955930
11.573434
11.251569
11.792779
12.246966
11.207461
10.192990
11.053681
11.876822
11.625886
11.840463
11.259913
11.353493
11.934638
11.242628
10.249615
11.270642
11.078715
11.022687
##ZVALUE=255
2.675653
2.283454
2.509952
3.069639
2.790689
3.100634
2.953410
3.616810
3.934503
10.627508
36.571622
125.905871
256.377459
554.979444
850.696564
1016.001701
1016.001701
1016.001701
1016.001701
1016.001701
1016.001701
1016.001701
797.363520
500.115752
239.904523
147.609711
108.289719
109.546781
134.160519
145.428777
153.187513
150.262713
136.617422
118.040442
89.838505
68.607926
47.409534
34.054518
25.435686
21.196604
20.003915
20.751953
19.672513
20.692945
21.801591
20.821691
19.708872
20.849705
20.064712
21.336675
20.918846
19.331574
19.867420
20.316839
19.155741
20.176768
18.958449
18.098950
18.545985
19.252896
17.627478
18.733740
17.444491
16.860962
16.510487
16.256571
16.832948
17.534494
17.331839
18.126965
18.863678
20.045638
22.016764
20.858645
21.528602
20.719767
19.849539
19.339919
17.502904
16.522408
15.581846
14.312863
13.494492
12.964606
11.627674
11.481643
11.140704
10.314584
10.562539
10.445714
10.582805
10.459423
9.901524
10.093451
11.113882
9.637475
9.485483
11.349916
10.054708
9.596944
9.872913
9.913445
9.967685
9.038448
9.738803
10.578632
10.089874
10.144711
9.350777
9.567738
9.294748
10.577440
10.674000
10.342598
9.762645
10.054708
##ZVALUE=260
2.174973
2.042651
2.017617
2.142787
1.954436
2.235770
2.330542
2.967715
2.812743
2.752542
3.440976
5.781651
20.479560
84.766746
182.578564
432.092547
718.026757
1016.001701
1016.001701
1016.001701
1016.001701
1016.001701
1016.001701
1016.001701
1016.001701
730.658770
400.337577
229.503512
119.464993
98.059773
115.553737
137.541890
157.817602
165.800452
161.082745
149.325728
121.082664
97.981691
70.199966
53.571463
39.046407
31.165481
24.712682
23.089647
22.604465
24.012923
23.490787
22.440553
23.254752
23.094416
22.857785
22.563934
21.851659
22.029877
22.129416
22.520423
19.394755
19.920468
19.362569
18.421412
19.365549
18.009543
16.946793
16.078949
17.540455
17.000437
15.981793
16.762614
17.364621
17.018914
18.163919
18.708706
18.926859
19.573569
18.766522
18.781424
17.492771
16.888976
15.647411
14.262795
14.057755
12.834668
12.249947
11.104941
10.482669
10.524988
10.565519
9.505749
9.563565
9.652972
8.836985
9.327531
9.407997
8.763671
8.621812
9.157658
9.107590
8.722544
8.532405
8.971691
8.921623
9.434819
8.961558
8.736849
9.352565
9.468794
9.561777
9.370446
9.733438
8.678436
8.947849
8.856654
9.180903
8.709431
8.162856
9.232759
##ZVALUE=265
1.818538
1.677871
1.727939
1.811981
1.950860
2.228618
2.147555
2.213717
2.203584
2.147555
2.886653
3.101826
3.126860
4.226565
11.566877
58.439970
140.143633
354.357958
618.136525
1016.001701
1016.001701
1016.001701
1016.001701
1016.001701
1016.001701
1016.001701
1016.001701
971.850753
540.295839
316.966772
151.908994
102.149844
99.210739
121.940970
148.433447
164.460540
172.377825
166.724920
149.949789
130.782723
99.339485
77.916980
54.921508
43.661594
33.532977
28.749704
26.376843
26.067495
26.046634
26.315451
26.113987
26.211739
25.495887
24.470687
25.033951
22.070408
22.685528
21.819472
20.773411
20.066500
19.907951
18.937588
19.319654
17.820597
18.513799
17.547607
17.422438
16.882420
16.757846
17.443895
17.830729
18.778443
18.377900
17.992854
18.653870
18.166900
17.433763
16.286969
15.062690
13.243556
12.943745
11.922717
11.229515
10.984540
10.135770
10.020733
9.868741
9.511709
8.951426
9.149909
9.092689
9.027719
8.743405
8.911490
9.170771
9.335876
8.730888
8.465648
8.729696
8.625984
8.101463
8.721948
8.259416
8.814931
9.257793
8.673668
9.143949
8.899570
9.120703
9.183884
8.947849
8.759499
8.535981
8.321404
9.089708
8.779764
##ZVALUE=270
1.783967
1.740456
1.779795
1.636744
1.972914
1.831651
1.896620
2.042651
2.131462
2.283454
2.531409
2.369881
2.763867
2.970695
3.318787
3.745556
5.093813
32.226443
93.925595
279.779434
518.947840
972.372890
1016.001701
1016.001701
1016.001701
1016.001701
1016.001701
1016.001701
1016.001701
1016.001701
831.832886
512.389541
234.577656
125.668645
82.896948
95.197558
127.974749
150.228739
170.854926
177.688599
173.117518
159.759521
134.219527
109.828711
81.606507
63.514709
47.168732
38.657784
32.715797
30.445457
29.629469
29.570460
29.230714
28.701425
26.356578
26.458502
24.905801
24.938583
23.203492
23.066998
22.524595
21.042824
20.736456
19.764900
19.016862
19.091964
17.574430
17.809868
17.286539
17.705560
18.757582
18.345714
18.363595
18.660426
18.156767
17.233491
17.158985
15.625954
14.219880
13.294816
13.169646
11.729598
11.002421
10.249615
10.301471
9.268522
9.773970
9.052753
9.431839
9.057522
8.208752
8.091927
8.363724
9.000897
8.235574
9.105802
8.571744
8.590817
8.199811
8.897781
9.326935
9.533763
8.390546
8.803606
8.998513
8.836985
8.461475
8.318424
9.323955
9.256601
9.660721
9.056926
9.098649
8.559823
9.315610
8.305907
##ZVALUE=275
1.589656
1.564622
1.695752
1.710653
1.728535
1.779795
1.967549
1.835823
1.927614
1.961589
2.058744
2.263784
2.498627
2.093911
2.444983
3.117919
2.979636
3.414750
3.923774
12.497902
50.702691
184.041858
388.805866
842.874646
1016.001701
1016.001701
1016.001701
1016.001701
1016.001701
1016.001701
1016.001701
1016.001701
1016.001701
721.476674
335.684419
178.638697
86.547732
78.348517
103.102922
126.877427
152.006745
171.204805
176.633596
175.092816
160.582662
132.661462
109.938979
84.756613
65.023899
52.188635
40.124655
34.499764
30.695796
29.250979
28.917789
28.310418
26.114583
26.069880
25.527477
24.914742
22.718906
22.457838
21.700859
20.419955
20.063519
19.500852
18.229485
17.720461
18.464923
18.762946
18.605590
18.501878
19.216537
18.533468
18.006563
17.451644
17.149448
15.380979
14.293790
14.430881
12.608767
11.516809
10.865927
9.648800
9.952784
9.887815
9.088516
9.423494
8.594990
8.252859
8.814931
9.021759
8.772612
8.612871
8.769631
8.265972
8.668900
9.085536
9.124875
8.484721
9.119511
8.941889
8.600950
8.890629
9.172559
8.892417
8.916855
8.738637
8.830428
9.228587
9.077787
8.802414
8.943677
8.597970
9.109974
9.111762
##ZVALUE=280
1.562834
1.648664
1.713634
1.522899
1.516938
1.665950
1.637936
1.601577
1.517534
1.710653
1.869798
1.824498
2.010465
2.054572
2.126694
2.550483
2.339482
2.783537
2.866983
3.318787
3.825426
6.516576
28.597713
142.137408
313.560963
704.313517
1016.001701
1016.001701
1016.001701
1016.001701
1016.001701
1016.001701
1016.001701
1016.001701
1016.001701
930.419564
455.597639
239.941478
99.174976
67.729950
78.935623
98.754764
127.940774
149.664879
171.696544
176.069736
171.484947
157.745481
130.612850
107.686520
79.515576
60.763955
44.732690
35.805702
29.562712
27.369857
25.279522
23.879409
23.480654
23.256540
22.380948
21.247864
20.731688
20.282865
19.368529
19.724965
18.272996
17.988682
17.535686
17.983913
17.677546
17.888546
17.823577
18.647909
17.863512
16.922951
15.878677
14.782548
13.465881
13.737679
11.895895
11.599660
10.795593
10.402799
9.594560
9.281635
9.180903
9.021759
8.863807
8.535981
8.155704
8.519888
8.338690
8.227825
8.231997
8.274913
8.707643
8.558631
8.371472
8.563995
8.805990
8.177757
8.185506
7.948875
8.201599
8.404851
8.082986
8.319616
8.209944
8.036494
8.486509
8.205771
8.186698
7.897615
7.678866
7.424951
##ZVALUE=285
1.519918
1.372695
1.381636
1.433492
1.589656
1.539588
1.545548
1.587868
1.763701
1.493692
1.676679
1.742840
1.722574
1.923442
1.809597
2.025962
2.213717
2.153516
2.443790
2.634525
2.817512
3.126860
3.565550
4.564524
10.653734
68.475604
171.823502
354.194045
769.933462
1016.001701
1016.001701
1016.001701
1016.001701
1016.001701
1016.001701
1016.001701
1016.001701
1016.001701
688.359737
386.467576
155.448914
77.393651
54.411888
64.938664
92.756748
115.661621
141.107440
155.982971
165.398717
161.905885
146.664977
128.258467
99.286437
78.741908
55.631995
40.502548
28.925538
24.085641
21.242499
19.536614
18.473864
18.499494
18.281937
17.407537
16.557574
16.171932
16.710758
15.950799
16.275644
16.168952
16.016960
16.500950
16.474724
16.502738
15.677810
15.285611
14.471412
13.421774
12.713671
12.687445
11.527538
10.659695
9.770989
8.917451
9.326935
8.988976
8.938909
8.530617
8.381605
8.267760
7.895827
7.591844
7.596612
7.564425
7.272959
7.231832
7.111430
7.071495
7.111430
6.909966
6.834865
7.085800
6.773472
7.199645
7.123947
7.079840
6.894469
7.409453
6.792545
6.612539
6.548762
6.743670
6.568432
6.602407
6.417632
6.600618
##ZVALUE=290
1.211762
1.223683
1.232624
1.012683
1.183748
1.320839
1.221895
1.478791
1.448989
1.430511
1.785755
1.665950
1.413822
1.733899
1.701713
1.805425
1.761913
2.024770
2.146959
2.187490
2.134442
2.775788
2.682805
3.276467
3.405809
4.018545
5.351901
16.760826
91.985464
228.990912
558.594465
946.808457
1016.001701
1016.001701
1016.001701
1016.001701
1016.001701
1016.001701
1016.001701
1016.001701
946.958661
554.176569
232.747793
103.713870
43.804646
42.721629
60.367584
79.051852
107.736588
128.511786
149.356723
154.680610
151.368976
140.429735
117.317438
95.285773
67.279935
50.271749
33.972859
25.616884
19.301772
16.027689
14.570951
13.896823
13.988614
13.697743
14.007688
13.834834
13.080835
13.371706
13.966560
14.523864
14.050603
14.177561
13.371706
13.218522
12.301803
12.033582
11.371970
10.632873
10.111928
9.519458
9.547472
9.049773
8.465648
8.575916
8.693933
8.206964
7.944703
7.916689
7.754564
7.541776
7.722974
7.307529
7.137656
6.930828
6.896853
7.028580
6.618500
6.612539
6.689429
6.504655
6.708503
6.590486
6.885529
6.400943
6.920695
7.114410
6.698966
6.502867
6.312728
6.305575
5.866885
5.898476
6.518960
6.082654
##ZVALUE=295
1.129508
1.352429
1.104474
1.147985
1.336932
1.199841
1.496673
1.211762
1.251698
1.487732
1.204610
1.365542
1.497865
1.647472
1.432896
1.660585
1.788735
1.532435
1.879930
1.938939
2.011657
2.292991
2.356768
2.626777
2.986789
3.190637
3.369451
3.804564
4.365444
7.410645
41.386485
121.229887
352.259874
684.170723
1016.001701
1016.001701
1016.001701
1016.001701
1016.001701
1016.001701
1016.001701
1016.001701
1016.001701
761.148930
332.191586
153.631568
50.198436
30.712485
37.443638
50.563812
75.364709
93.224645
119.360685
134.018660
143.692493
141.027570
127.031803
110.687613
85.839629
67.010522
44.253469
31.596422
21.009445
16.289949
12.842417
11.715889
10.882616
11.168718
11.364818
11.238456
11.467934
11.624694
11.992455
11.775494
12.383461
11.448860
10.946989
10.587573
9.757876
9.384751
8.811951
8.698702
8.377433
7.966757
8.237958
7.766485
7.673502
7.563829
7.294416
7.324815
7.273555
7.121563
6.975532
6.885529
6.938577
7.004738
6.583929
6.299615
6.630421
6.634593
6.418824
6.004572
6.481409
6.591678
6.579757
6.461740
6.912947
6.763935
6.450415
6.538630
6.416440
6.270409
6.133914
6.129742
6.077886
6.151795
##ZVALUE=300
1.051426
1.144409
1.157522
1.181960
1.263618
1.144409
1.208782
1.207590
1.257658
1.203418
1.202822
1.445413
1.360774
1.235604
1.194477
1.263618
1.388788
1.355410
1.733899
1.691580
1.859665
1.897812
2.135634
2.179742
2.258420
2.472997
2.427697
2.835989
3.128648
3.637671
3.859997
5.487800
15.655756
89.490414
227.295756
574.002862
969.835520
1016.001701
1016.001701
1016.001701
1016.001701
1016.001701
1016.001701
1016.001701
1016.001701
915.070772
516.469479
206.280947
91.559887
30.181408
23.755431
32.594800
44.627786
66.179633
87.164640
111.923814
125.843883
135.301948
133.074522
124.541521
106.178522
79.894662
62.293410
42.435527
30.118823
18.947721
14.104843
11.078715
9.935498
10.404587
10.138750
10.396838
10.940433
10.862947
10.279417
10.094643
9.674430
9.190440
8.894801
8.407831
8.082986
7.828474
7.799864
7.841587
7.397532
7.496476
7.322431
7.212758
6.933808
6.925464
7.144809
6.527901
6.808639
6.548762
6.171465
6.409883
6.443858
6.255507
6.292462
6.496906
6.422997
6.187558
6.338954
6.336570
6.502867
6.523728
6.370544
6.470680
6.092787
6.229877
6.136894
6.394982
6.218553
5.922914
6.098747
5.824566
##ZVALUE=305
1.077652
1.064539
1.102686
1.054406
1.042485
1.088977
1.061559
1.128912
1.196861
1.189709
1.174808
1.322627
1.068711
1.286864
1.316667
1.326799
1.417994
1.557469
1.560450
1.565814
1.502633
1.487732
1.773834
1.974702
1.838803
2.236962
2.240539
2.436638
2.573729
2.777576
2.949834
2.914667
3.543496
4.019737
9.505749
38.257837
163.424015
367.648602
834.800601
1016.001701
1016.001701
1016.001701
1016.001701
1016.001701
1016.001701
1016.001701
1016.001701
1016.001701
728.067756
388.487577
137.711763
55.444837
20.531416
21.195412
30.033588
42.164922
63.733459
81.124902
104.743838
116.934776
127.267838
126.911998
115.084648
101.571679
77.570677
60.313940
40.109754
28.219819
17.754436
13.028979
11.049509
9.981990
9.693503
9.749532
9.519458
9.223819
8.390546
8.599758
7.956624
7.771850
7.489920
7.705688
7.237792
7.313490
7.075667
6.753802
6.753802
7.039905
6.542802
6.662607
6.558895
6.535649
6.422997
6.423593
6.699562
6.539822
6.470680
6.175637
6.525517
6.150603
6.237626
6.453991
6.372929
6.569624
6.044507
6.142855
6.221533
6.604791
6.269813
6.108880
5.905628
5.805492
6.131530
5.497932
5.976558
5.665421
##ZVALUE=310
0.992417
0.956655
1.023412
1.067519
0.861883
1.107454
0.953674
1.002550
1.180768
1.182556
1.278520
1.087785
1.191497
1.112819
1.070499
1.285672
1.264811
1.249909
1.303554
1.271963
1.434684
1.278520
1.496673
1.606941
1.580715
1.897812
1.765490
1.880527
2.236962
2.241731
2.427697
2.578497
2.879500
3.123879
3.393888
3.857613
5.063415
16.708970
91.613531
221.797824
550.812483
949.764848
1016.001701
1016.001701
1016.001701
1016.001701
1016.001701
1016.001701
1016.001701
1016.001701
945.958495
553.578734
218.917727
94.689727
27.211905
16.614795
19.162893
24.894476
38.645864
52.108765
74.435472
91.634989
109.861493
117.400885
117.079616
112.326741
94.301701
78.885555
55.514574
40.058494
25.631785
19.236803
13.568997
11.153817
9.302497
9.030700
7.846951
7.594824
7.402897
7.085800
6.605983
6.417632
6.797910
6.426573
6.641746
6.238818
6.465912
6.496906
6.400943
6.069541
6.310940
6.155968
6.190538
6.147623
6.070733
5.918741
6.323457
5.927682
6.211996
6.044507
5.856752
6.032586
5.714893
5.974770
6.012917
5.926490
5.999804
6.146431
6.335974
5.937815
6.023645
5.842447
5.900860
5.662441
5.866885
5.588531
##ZVALUE=315
0.896454
0.883937
0.815988
0.887513
1.016855
1.067519
0.907779
0.945926
1.009703
1.080632
0.988841
1.153946
1.186728
1.104474
0.916719
1.141429
1.266599
1.349449
1.251698
1.194477
1.339912
1.399517
1.509786
1.501441
1.621842
1.648664
1.829863
1.748800
1.703501
1.871586
1.933575
2.041459
2.290606
2.727509
2.615452
3.045797
3.417730
3.546476
4.402995
8.063912
33.006668
147.244930
339.079499
793.390870
1016.001701
1016.001701
1016.001701
1016.001701
1016.001701
1016.001701
1016.001701
1016.001701
1016.001701
761.891007
317.706466
142.310858
40.666461
16.852617
14.239550
16.567707
24.607778
33.311844
50.844550
67.165494
87.451935
101.598501
111.185908
114.246607
102.993846
90.629458
72.398782
56.153536
37.598610
27.277470
17.595887
13.439655
9.280443
7.863641
7.296801
6.944537
6.406903
6.146431
6.109476
6.008744
6.501675
5.789995
5.948544
5.834699
5.879998
6.150603
5.991459
6.331801
5.874634
5.971789
5.884767
5.798936
5.904436
5.558729
5.612969
5.799532
5.794764
5.977750
5.724430
6.004572
5.960464
5.926490
5.887747
5.980730
6.017685
6.128550
5.999804
5.900860
6.163716
5.749464
5.536675
5.582571
##ZVALUE=320
0.839829
0.843406
0.939965
0.871420
0.893474
0.847578
0.986457
0.818968
0.854731
1.055598
0.988841
0.872612
0.973940
0.960827
1.071692
1.186728
1.214743
1.010895
1.074672
1.233816
1.035929
1.068711
1.214743
1.326799
1.230836
1.503825
1.382828
1.616478
1.697540
1.755953
1.852512
1.682639
1.927614
2.063513
2.436638
2.375841
2.563000
2.691746
2.895594
3.294945
3.788471
4.571676
20.334721
70.737004
246.005654
500.490665
974.850655
1016.001701
1016.001701
1016.001701
1016.001701
1016.001701
1016.001701
1016.001701
1016.001701
968.460441
451.399684
221.685767
71.129799
26.213527
12.059808
12.344718
15.477538
19.138455
30.878782
42.291880
62.651634
77.215433
96.452832
105.119944
106.151700
100.610852
86.280704
72.115660
51.855445
39.430857
25.016665
17.008781
10.536909
8.389950
6.835461
6.287694
5.991459
5.687475
6.083846
5.971789
5.698800
5.534887
5.556941
5.521774
5.537868
5.794764
5.400777
5.802512
6.002784
5.889535
5.639791
5.530715
5.869865
5.599856
5.825758
5.510449
5.690455
5.803704
5.635619
5.721450
5.852580
6.114841
6.081462
5.946755
5.942583
5.863905
5.614758
5.604625
6.021857
5.348921
##ZVALUE=325
0.719428
0.766516
0.720620
0.830889
0.830889
1.018643
0.874996
0.978708
0.882745
0.871420
0.861883
1.095533
0.802875
0.893474
1.021624
1.141429
0.981688
0.892878
0.998974
1.096725
1.045465
1.084805
1.141429
1.193881
1.121759
1.296997
1.307726
1.344681
1.413822
1.646876
1.734495
1.529455
1.539588
1.794696
1.980662
1.868606
2.173781
2.196431
2.410412
2.633929
2.801418
3.048778
3.447533
4.012585
8.401871
55.450797
149.657726
393.627882
723.611712
1016.001701
1016.001701
1016.001701
1016.001701
1016.001701
1016.001701
1016.001701
1016.001701
1016.001701
601.571798
321.019888
107.199550
38.577914
12.780428
10.916591
11.198521
13.448596
19.645691
28.543472
44.579506
59.331656
76.340437
89.909434
99.312663
100.470781
92.931986
82.428455
64.352751
49.201846
32.164454
22.401810
14.060736
10.000467
7.177591
6.283522
5.822778
5.500913
5.433559
5.424619
5.444884
5.498528
5.235672
5.445480
5.495548
5.408525
5.458593
5.416870
5.557537
5.313754
5.616546
5.689859
5.590916
5.825758
5.685687
5.752444
5.932450
5.779862
6.393790
6.390810
5.747676
5.860925
5.799532
5.743504
5.596876
5.780458
5.855560
5.661845
##ZVALUE=330
0.766516
0.866652
0.875592
0.755787
0.751615
0.683665
0.817776
0.731945
0.852942
0.767708
0.998974
0.869632
0.887513
1.004934
0.832677
0.984669
1.037717
1.020432
0.972748
0.982881
1.027584
0.975728
1.119971
1.055598
1.108646
1.217723
1.137853
1.372695
1.209974
1.366735
1.331568
1.371503
1.510978
1.547933
1.707673
1.596808
1.868606
2.030730
2.078414
2.341866
2.113581
2.406836
2.657771
3.133416
3.314614
3.733635
5.165935
18.880963
97.604990
235.263705
574.177504
949.142575
1016.001701
1016.001701
1016.001701
1016.001701
1016.001701
1016.001701
1016.001701
1016.001701
813.894868
443.285704
159.679651
63.673854
17.053485
10.623932
9.970665
10.343790
13.538599
18.319488
29.275417
40.407777
56.324601
69.134831
84.407926
90.868473
92.002749
85.605979
71.597695
59.508681
43.629408
32.122731
20.844936
14.852881
9.703636
7.561445
5.756617
5.335808
5.386472
5.214810
5.166531
5.185604
5.507469
5.325675
5.337596
5.340576
5.326867
5.477667
5.229712
5.372763
5.551577
5.379915
5.801916
5.822778
5.744696
6.050467
5.960464
5.878806
5.903840
6.024837
5.770922
5.799532
5.744696
5.652905
5.634427
5.601645
##ZVALUE=335
0.658631
0.821948
0.946522
0.623465
0.809431
0.722408
0.773668
0.925660
0.783801
0.689626
0.731945
0.840425
0.821948
0.803471
0.764728
0.800490
0.924468
0.926852
0.909567
0.974536
0.819564
1.074672
0.876784
1.000762
0.934601
1.114607
1.141429
1.053810
1.092553
1.276731
1.174808
1.298785
1.264811
1.518726
1.404881
1.424551
1.597404
1.531839
1.767874
1.925826
2.084970
2.126694
2.228618
2.261996
2.479553
2.729893
3.101826
3.247857
4.082918
8.513927
52.026510
145.229101
404.558778
727.105737
1016.001701
1016.001701
1016.001701
1016.001701
1016.001701
1016.001701
1016.001701
1016.001701
988.546610
620.865822
253.119469
107.825994
27.026534
11.840463
8.914471
9.335876
10.187626
12.308955
17.709732
24.645925
38.172603
49.577951
65.351725
76.041818
84.917545
85.420609
78.443885
70.054531
55.368543
43.691993
30.501485
21.770000
13.924837
10.400414
7.135868
5.963445
5.416870
5.562901
5.116463
5.289912
5.327463
5.217791
5.169511
5.136728
5.303621
5.334616
5.320907
5.541444
5.413890
5.766749
5.429983
5.839467
5.847812
6.045699
5.947948
5.898476
6.091595
5.919933
5.778670
5.711913
5.579591
5.585551
##ZVALUE=340
0.698566
0.618696
0.650883
0.588894
0.682473
0.810623
0.804663
0.729561
0.814795
1.020432
0.601411
0.887513
0.725985
0.748634
0.701547
0.856519
0.883937
0.947714
0.975728
0.970960
0.923872
1.048446
0.870824
0.900626
1.078844
1.064539
0.973940
1.107454
1.052618
0.972748
1.198649
1.247525
1.140833
1.382828
1.269579
1.413822
1.520514
1.270771
1.473427
1.693964
1.657605
1.706481
1.830459
1.820922
2.170801
2.258420
2.237558
2.444983
2.890825
3.044605
3.636479
4.897714
26.321411
87.214708
286.662579
570.069551
1016.001701
1016.001701
1016.001701
1016.001701
1016.001701
1016.001701
1016.001701
1016.001701
1016.001701
741.619468
337.851644
156.276822
37.516952
13.453960
9.621978
9.270906
8.996725
9.424686
12.037754
15.812516
24.109483
34.044981
48.966408
60.673952
74.141622
77.995658
79.584718
75.622797
65.348744
55.122972
40.233731
31.257868
20.720959
14.852881
9.639859
7.577538
6.092787
5.595684
5.540848
5.475879
5.371571
5.471706
5.124807
5.209446
5.214810
5.310774
5.238652
5.595684
5.601645
5.703568
5.953908
5.994439
6.134510
5.830526
6.072521
6.103516
5.910993
5.943775
5.756617
5.629659
##ZVALUE=345
0.692606
0.685453
0.684857
0.742674
0.718832
0.769496
0.783801
0.885725
0.724792
0.736713
0.829697
0.739694
0.762939
0.677705
0.807643
0.798702
0.669956
0.840425
0.760555
0.889897
0.931621
0.796914
0.905991
0.893474
1.036525
1.076460
1.164675
0.940561
1.042485
0.914931
1.056790
1.207590
1.170635
1.166463
1.293421
1.441836
1.105666
1.464486
1.383424
1.552701
1.437664
1.470447
1.664758
1.518726
1.704693
1.769662
1.849532
2.155900
2.312660
2.418756
2.779961
2.865791
3.382564
3.692508
10.499954
43.978691
188.817978
390.922427
839.100480
1016.001701
1016.001701
1016.001701
1016.001701
1016.001701
1016.001701
1016.001701
1016.001701
878.348947
403.610468
194.739699
57.737827
21.483898
10.189414
9.287596
8.437634
8.188486
8.579493
10.053515
14.873743
21.078587
31.827688
42.242408
55.605769
64.529777
72.936416
73.882937
69.943666
63.277483
51.824450
41.432977
28.900504
21.323562
13.899803
10.587573
7.559657
6.331801
5.747676
5.523562
5.266666
5.283952
5.275607
5.566478
5.779862
5.488992
5.623698
5.659461
5.768538
5.838871
5.994439
6.119609
5.947948
5.817413
5.852580
5.585551
5.511642
5.317926
##ZVALUE=350
0.711679
0.620484
0.737906
0.654459
0.715852
0.634789
0.776649
0.586510
0.698566
0.885725
0.687838
0.788569
0.808835
0.787973
0.746846
0.789762
0.746846
0.738502
0.863671
0.878572
0.871420
0.994802
1.155734
0.920892
0.954866
1.010895
0.878572
0.932813
1.085997
1.140833
1.159906
0.992417
1.060963
1.195669
1.048446
1.107454
1.178980
1.307726
1.267791
1.345873
1.364946
1.447797
1.420975
1.511574
1.524687
1.618862
1.722574
1.731515
2.006888
2.095699
2.098680
2.298951
2.542734
2.574921
3.236532
3.429651
5.830526
21.615624
106.203556
249.632597
616.308451
995.228887
1016.001701
1016.001701
1016.001701
1016.001701
1016.001701
1016.001701
1016.001701
954.630971
480.523705
259.579420
94.803572
33.558607
11.076927
8.733869
7.648468
7.141829
6.604791
7.287860
9.272695
12.156963
19.650459
26.390553
37.973523
47.563910
58.940649
64.164996
66.886544
65.406561
58.491826
49.882531
37.704706
29.830933
20.895600
16.129613
10.666847
8.014441
6.342530
6.084442
5.615950
5.671978
5.410910
5.357862
5.454421
5.737543
5.873442
6.046891
5.653501
5.786419
5.988479
5.941987
5.723834
5.523562
5.338788
5.298853
##ZVALUE=355
0.679493
0.701547
0.704527
0.695586
0.771880
0.717640
0.837445
0.722408
0.773668
0.745654
0.856519
0.842810
0.934601
0.931621
0.780821
0.540614
0.850558
0.849962
0.927448
0.701547
0.915527
0.848770
0.978708
0.959635
1.041889
0.904799
0.906587
1.038909
1.104474
1.047850
1.048446
1.005530
1.094937
1.052618
1.189709
1.212955
1.158714
1.301765
1.299977
1.269579
1.471639
1.292825
1.503825
1.485944
1.357794
1.447797
1.652837
1.791716
1.756549
1.778603
2.066493
2.030730
2.221465
2.206564
2.566576
2.800822
3.012419
3.385544
3.685951
11.989474
48.543811
195.673704
406.228900
847.949982
1016.001701
1016.001701
1016.001701
1016.001701
1016.001701
1016.001701
1016.001701
1016.001701
700.523853
304.954648
141.182542
38.818717
13.899803
8.312464
7.453561
6.778836
6.510615
6.355643
6.849766
8.615851
11.155605
17.537475
23.828745
33.657551
41.644573
53.073764
58.948994
61.855912
61.144829
55.074692
47.943592
37.816763
30.318499
21.122694
15.849471
11.258721
8.488894
6.558895
6.013513
5.828738
5.579591
5.740523
5.858541
6.052852
5.718470
5.924702
5.789995
5.706549
5.592704
5.346537
5.367994
5.264878
##ZVALUE=360
0.781417
0.871420
0.826716
0.762939
0.699759
0.738502
0.677705
0.852942
0.738502
0.822544
0.745654
0.813603
0.941753
0.860691
0.808835
0.935793
0.801682
0.810623
0.814795
0.847578
0.865459
0.950694
0.983477
0.912547
1.095533
0.917912
0.899434
1.249909
0.905991
1.093745
0.947714
1.028776
1.034737
1.126528
0.973940
1.056790
1.340508
1.155734
1.395941
1.183748
1.349449
1.303554
1.178980
1.376867
1.378655
1.408458
1.680851
1.660585
1.557469
1.791716
1.894832
1.843572
1.980662
1.990795
2.324581
2.356768
2.512932
2.795458
3.172755
3.133416
3.884435
5.113482
26.614666
86.746812
279.929638
550.147891
1016.001701
1016.001701
1016.001701
1016.001701
1016.001701
1016.001701
1016.001701
1016.001701
827.156901
484.188795
189.630985
75.953603
18.448830
9.183884
7.589459
7.132888
6.527901
6.232858
6.177425
6.039739
7.305741
9.274483
14.039874
19.582510
28.234720
36.428571
46.352744
51.951408
56.982636
57.323575
52.483678
47.156811
37.506819
30.796528
22.224784
17.014742
12.033582
9.129643
7.193685
6.412864
6.087422
5.882978
5.871654
5.879998
5.737543
5.361438
5.133748
5.165935
5.129576
5.013943
##ZVALUE=365
0.753999
0.665784
0.832677
0.950694
0.830889
0.758767
0.654459
0.754595
0.526905
0.694990
0.708699
0.802875
0.806451
0.793934
0.802875
0.825524
0.859499
0.839829
0.779629
0.753999
0.928640
0.843406
1.079440
1.039505
1.076460
1.020432
1.039505
1.089573
1.084805
1.007915
1.009703
0.946522
1.126528
0.971556
1.174808
1.127720
1.057982
1.130700
1.187921
1.311898
1.361966
1.199841
1.360774
1.324415
1.396537
1.500845
1.474619
1.436472
1.444817
1.573563
1.630783
1.768470
1.819730
1.871586
1.903772
1.955628
2.165437
2.289414
2.558827
2.721548
2.961755
3.128648
3.683567
4.115701
10.653734
40.253997
168.027878
370.630026
857.087970
1016.001701
1016.001701
1016.001701
1016.001701
1016.001701
1016.001701
1016.001701
968.607664
599.379539
254.884958
119.341612
35.089850
12.812614
7.656813
6.642938
6.200671
5.775690
5.424619
5.349517
5.323887
6.730556
8.887649
11.750460
18.251538
24.114847
32.829642
39.306879
47.285557
50.765872
52.277446
50.493479
45.002699
39.197803
30.869842
24.311543
17.192960
13.117790
9.573698
7.190704
6.667972
5.890727
5.608797
5.099773
5.028844
4.952550
4.902482
4.748702
##ZVALUE=370
0.758767
0.685453
0.663996
0.775456
0.769496
0.763535
0.911951
0.807643
0.743866
0.714660
0.634789
0.839829
0.686646
0.818968
0.833869
0.847578
0.781417
0.851750
0.825524
0.773668
1.019835
0.939965
0.958443
0.725985
0.799894
0.760555
0.859499
0.873804
1.006722
0.892878
0.988841
1.032948
1.045465
0.915527
1.037717
1.044869
1.169443
1.047850
1.171827
1.152754
0.991821
1.064539
1.153946
1.281500
1.208782
1.073480
1.182556
1.274943
1.374483
1.359582
1.509786
1.392961
1.417994
1.628995
1.608729
1.635551
1.781583
1.933575
1.915693
2.030730
2.130866
2.479553
2.560616
2.990961
3.296733
3.741980
6.045699
21.649003
116.171837
286.254883
681.121945
1016.001701
1016.001701
1016.001701
1016.001701
1016.001701
1016.001701
1016.001701
1016.001701
761.558414
346.538424
174.793601
60.600638
21.574497
7.890463
6.676912
5.966425
5.718470
5.530715
5.359650
5.310774
5.532503
6.405711
7.861853
11.231899
14.822483
21.357536
26.957989
35.594702
41.237473
47.491789
48.889518
47.676563
43.902993
37.472844
31.364560
24.143457
17.092824
13.862848
9.836555
8.030534
6.101727
5.523562
4.813671
4.595518
4.386902
##ZVALUE=375
0.686646
0.698566
0.697970
0.718832
0.677705
0.627637
0.680685
0.717640
0.807643
0.645518
0.812411
0.502467
0.718832
0.823736
0.709891
0.697970
0.742674
0.749826
0.728965
0.775456
0.812411
0.830889
0.742674
0.675917
0.858903
0.878572
0.996590
0.936985
1.119971
1.169443
0.927448
0.875592
1.047850
0.914931
0.870824
1.132488
0.882745
1.045465
1.116991
1.116991
1.115799
1.043677
1.075864
1.186728
1.024604
1.179576
1.130700
1.162887
1.149774
1.207590
1.307726
1.409650
1.445413
1.487732
1.427531
1.605749
1.381636
1.602769
1.511574
1.825690
1.825690
1.767874
2.192855
2.134442
2.508759
2.542734
2.973676
3.200769
4.194975
11.121631
64.275861
169.056058
449.730754
812.222958
1016.001701
1016.001701
1016.001701
1016.001701
1016.001701
1016.001701
1016.001701
978.381634
543.094873
302.399993
113.401413
44.457912
11.249781
7.200837
6.273985
6.016493
5.625486
5.923510
5.773902
5.740523
5.804896
5.965829
7.062554
8.780956
12.535453
16.863942
24.080873
30.644536
38.123727
42.808652
46.401620
47.104955
43.913722
38.037896
32.675862
25.569797
20.774603
14.535785
11.374950
7.900596
6.741881
4.973412
##ZVALUE=380
0.689626
0.649691
0.550747
0.630617
0.565648
0.629425
0.681877
0.701547
0.769496
0.611544
0.561476
0.649691
0.670552
0.772476
0.728965
0.729561
0.735521
0.670552
0.654459
0.591874
0.633597
0.568628
0.675917
0.674725
0.899434
0.932813
0.790954
0.945926
0.973940
0.793934
0.975728
0.875592
0.906587
0.937581
0.849962
0.960827
0.900626
0.888705
1.054406
1.044869
1.099706
1.163483
0.883937
1.095533
1.069903
1.121759
1.101494
1.186728
1.094937
1.033545
1.242757
1.178980
1.205802
1.239777
1.153946
1.231432
1.314878
1.437664
1.399517
1.392961
1.506805
1.575947
1.623631
1.755953
1.886487
2.095699
2.416968
2.620816
2.991557
3.403425
3.957748
5.989671
33.560991
104.789734
313.220620
602.575541
1016.001701
1016.001701
1016.001701
1016.001701
1016.001701
1016.001701
1016.001701
1016.001701
723.419785
414.813757
166.769624
72.591901
17.897487
7.975698
6.430745
6.259680
6.172657
6.080866
5.849600
5.619526
5.508661
5.346537
5.501509
6.143451
7.942915
10.552406
15.961528
21.150708
28.858781
34.764409
41.061640
43.826699
44.750571
43.079853
38.477778
33.221841
26.091933
20.863414
14.559627
10.181665
##ZVALUE=385
0.622869
0.391603
0.631809
0.662804
0.395775
0.581741
0.697970
0.679493
0.619888
0.664592
0.625849
0.507832
0.583529
0.647902
0.460744
0.535846
0.784993
0.758767
0.657439
0.580549
0.713468
0.597835
0.768900
0.652671
0.746846
0.828505
0.797510
0.537634
0.888705
1.008511
0.961423
1.030564
1.116991
1.102686
1.214743
1.208782
1.124740
1.117587
1.097918
1.045465
0.980496
0.997782
1.156926
1.167655
1.008511
1.073480
1.081824
0.999570
1.136661
1.162887
1.183748
1.185536
1.170635
1.229644
1.192689
1.300573
1.321435
1.407862
1.437664
1.330972
1.430511
1.379848
1.542568
1.575947
1.756549
1.880527
1.988411
2.072453
2.510548
2.648830
3.145933
3.175735
3.703833
4.100800
13.573766
50.290823
204.361677
444.087982
948.255658
1016.001701
1016.001701
1016.001701
1016.001701
1016.001701
1016.001701
1016.001701
959.857702
608.030558
272.210836
126.705766
33.703446
11.870861
6.592870
6.429553
6.139874
6.098747
5.782843
5.381703
4.958510
4.706979
4.606843
4.720688
5.282760
6.679893
9.326935
14.181733
18.020868
24.878979
29.677749
35.525560
39.060712
40.992498
40.544868
36.998987
32.650828
26.143789
##ZVALUE=390
0.575781
0.625849
0.534654
0.578761
0.383854
0.445843
0.574589
0.427961
0.507832
0.553727
0.513792
0.586510
0.518560
0.602603
0.582933
0.454783
0.669956
0.645518
0.793934
0.577569
0.641942
0.674725
0.582933
0.745654
0.686646
0.711679
0.767708
0.887513
0.893474
1.107454
1.020432
1.100898
1.087785
1.203418
1.095533
1.306534
1.133680
1.129508
1.266599
1.305938
1.219511
1.191497
1.171827
1.008511
1.231432
1.230836
1.194477
1.235604
1.241565
1.322627
1.006722
1.186728
1.217723
1.128912
1.208782
1.251698
1.364946
1.270771
1.216531
1.211762
1.333952
1.369715
1.502633
1.653433
1.672506
1.706481
1.808405
1.983643
2.335906
2.463460
2.645850
2.757907
2.933741
2.733469
3.100634
3.482699
7.057786
30.245781
138.823986
311.498642
714.156628
1016.001701
1016.001701
1016.001701
1016.001701
1016.001701
1016.001701
1016.001701
1016.001701
847.111940
391.264558
196.677446
62.663555
22.236705
7.900596
6.666780
5.988479
5.724430
5.412698
5.397797
5.349517
4.913807
4.647970
4.537702
4.713535
5.306602
6.389618
8.492470
11.097789
15.179515
19.215941
25.848746
30.408502
35.265684
37.743449
38.361549
##ZVALUE=395
0.597835
0.595450
0.548959
0.606775
0.591874
0.519753
0.674725
0.540614
0.494719
0.577569
0.609756
0.541806
0.604987
0.650883
0.813603
0.480413
0.658631
0.444651
0.677705
0.686646
0.797510
0.571609
0.630617
0.596642
0.734925
0.789762
0.886917
0.755787
1.016855
0.960827
1.094937
1.163483
1.136661
1.160502
1.185536
1.127720
1.095533
1.305938
1.380444
1.279712
1.310706
1.286864
1.309514
1.327991
1.170635
1.362562
1.206994
1.293421
1.207590
1.286864
1.296997
1.308918
1.345873
1.414418
1.435876
1.360774
1.097918
1.475811
1.218915
1.288652
1.270771
1.276731
1.307726
1.468658
1.605749
1.730919
1.740456
1.949668
1.986623
2.089739
2.687573
2.478957
2.583861
2.480745
2.823472
2.755523
3.032684
3.134608
4.738569
14.980435
78.765750
203.808546
503.998995
857.854486
1016.001701
1016.001701
1016.001701
1016.001701
1016.001701
1016.001701
1016.001701
1016.001701
587.363839
306.268930
108.379722
43.306947
11.483431
6.876588
6.226897
5.946755
5.641580
5.426407
5.442500
5.353689
5.249977
5.241632
4.904866
4.889965
5.222559
5.711913
6.797910
9.334683
12.055635
17.539859
22.069812
28.148890
##ZVALUE=400
0.692606
0.646710
0.736713
0.552535
0.618696
0.703931
0.569820
0.652671
0.565648
0.719428
0.546575
0.516772
0.560880
0.487566
0.625849
0.595450
0.428557
0.610948
0.569820
0.490546
0.486970
0.618696
0.603795
0.698566
0.825524
0.884533
0.820756
0.877976
0.851750
1.020432
1.151562
1.036525
1.253486
1.012683
1.013875
1.236796
1.105666
1.100898
1.152754
1.268983
1.306534
1.377463
1.193881
1.202822
1.090765
1.335740
1.229644
1.328588
1.233816
1.292825
1.467466
1.298785
1.438856
1.264811
1.281500
1.205802
1.188517
1.169443
1.305938
1.317859
1.176000
1.271963
1.219511
1.316667
1.528859
1.662970
1.695752
1.748800
2.011657
2.168417
2.173781
2.317429
2.346635
2.251863
2.232790
2.322793
2.397895
2.457500
2.883673
2.952814
3.477931
7.370710
40.506721
118.035674
342.685580
640.582442
1016.001701
1016.001701
1016.001701
1016.001701
1016.001701
1016.001701
1016.001701
1016.001701
771.851540
456.675887
188.831687
82.751513
20.982623
8.514524
6.193519
5.634427
5.769730
5.630851
5.855560
6.017685
5.770922
5.227923
5.191565
5.003810
4.442930
4.748702
4.864931
6.103516
7.756948
10.922551
##END
