##TITLE=6-3
##FORMAT=SPECTACLE-ASCII V-1.2
##DATA TYPE=ULTRAVIOLET SPECTRUM
##SECOND TYPE=ULTRAVIOLET SPECTRUM
##DATE=04/04/18
##TIME=13:50:58
##SPECTROMETER/DATA SYSTEM=SPECTACLE
##XUNITS=NM EM
##YUNITS=ENERGY
##YFACTOR=1
##FIRSTX=220
##LASTX=450
##NPOINTS=116
##3DDATA=Equidistant
##ZUNITS=NM EX
##FIRSTZ=210
##LASTZ=400
##ZPOINTS=39
##XYDATA=(Y..Y)
##ZVALUE=210
23.354888
22.391677
15.983582
12.356639
10.401607
10.422468
10.007620
9.397864
7.984638
7.490516
5.647540
5.225539
3.907681
4.076958
4.513860
4.720688
4.269481
4.380941
4.961491
5.531907
5.314946
5.660653
6.551743
7.176995
7.409453
7.864833
8.680820
9.513497
10.796785
11.262894
12.054443
12.419820
11.658669
13.039708
11.076927
12.780428
12.373924
13.693571
13.866425
13.394952
14.059544
12.921691
12.291670
12.977719
14.072657
12.012720
11.737943
13.584495
12.514591
12.643933
13.153553
14.608502
12.941957
13.549924
12.766719
11.421442
14.318824
12.720823
12.276769
11.360645
11.548996
12.240410
11.725426
11.794567
12.103915
11.558533
14.421940
14.076829
15.133619
17.502904
20.180941
22.985935
26.248693
31.133890
31.146407
33.480525
34.524798
34.790635
34.876466
30.257702
29.722452
24.429560
23.045540
18.696785
16.207695
12.589693
12.420416
11.280775
11.482835
14.270544
16.735792
22.833943
27.519464
38.217902
41.759610
51.962733
61.423779
70.333481
79.111457
85.060596
86.356997
92.273951
85.996985
82.841516
79.931617
68.853498
68.774819
66.629648
54.198503
48.699975
35.018921
30.212998
24.520755
20.850897
18.079877
16.088486
##ZVALUE=215
71.921945
71.234703
52.884817
41.154623
30.027628
21.033883
18.875599
17.084479
15.984774
15.128851
13.600588
11.358857
9.516478
6.685853
5.776882
4.790425
5.420446
4.494786
4.817843
5.519986
4.448891
5.602837
6.835461
7.205606
8.275509
9.316802
9.128451
9.703636
11.397600
11.865497
11.761785
13.421774
13.428926
13.151765
15.157461
14.185905
13.493896
14.204979
15.276670
14.524460
15.008450
14.377832
15.697479
14.813542
14.151931
14.616847
13.945699
14.403462
15.753508
15.802979
15.652776
16.178489
15.209913
14.586449
13.452768
14.048815
13.827682
13.456941
14.915466
13.590455
13.586879
13.396740
12.507439
12.837648
12.857914
13.485551
14.200807
14.126897
16.039610
17.895699
20.458698
23.194551
26.265979
29.013753
29.772520
32.026768
30.337572
32.651424
27.253628
28.570890
27.154684
25.461912
21.547675
17.498732
15.156865
14.646649
10.968447
10.725856
10.193586
9.602904
9.606481
10.283589
10.535717
11.681914
14.495850
20.126700
27.626753
35.282969
47.309995
54.993629
69.918633
83.848834
99.713802
109.293461
121.971965
125.938654
129.508972
127.610564
126.575828
116.444826
114.345551
103.886724
91.218948
74.878931
64.898729
49.679875
##ZVALUE=220
157.105923
150.680542
145.171881
137.101412
116.074681
81.671476
62.003732
41.615963
31.829476
26.908517
24.636984
24.932623
23.041964
20.398498
15.379786
11.787415
9.554625
6.501675
5.546808
5.645752
5.435944
5.808473
6.577969
7.036924
7.220507
6.994605
8.946657
10.228753
10.644794
11.397600
11.157990
11.231899
12.453794
13.604760
14.018416
14.152527
15.215874
15.498996
15.575886
15.251637
16.194582
16.933680
15.260577
15.875697
16.890764
17.345548
16.958714
17.091632
17.130971
16.486645
17.450452
17.969608
17.705560
17.092824
17.784834
16.360879
15.539527
15.515685
15.737414
15.982985
15.919805
16.687512
16.291738
15.465617
15.269518
16.336441
15.986562
15.748739
17.297864
18.656850
20.768642
23.007989
26.886463
27.655959
30.640960
29.717684
30.493736
29.522777
27.900934
26.836991
23.193955
22.288561
20.825863
18.017888
14.897585
14.232993
12.254715
11.913776
10.307431
10.655522
9.386539
10.411739
10.811687
9.366870
9.611845
10.212660
10.003448
11.194944
13.302565
15.757680
26.110411
32.573938
49.869418
58.353543
84.781647
101.864934
122.969747
144.239664
161.284804
175.496936
189.130902
195.854902
199.445486
197.906494
192.531943
172.717571
##ZVALUE=225
201.558471
202.213526
252.552629
271.860957
278.495550
252.803564
216.833949
158.011913
116.712451
77.663660
54.465532
41.510463
41.802526
40.523410
41.185617
32.976866
28.271675
23.046732
17.386675
10.737777
9.141564
7.955432
7.630587
7.590652
7.920861
7.291436
8.553863
9.427667
10.088682
10.769963
10.004640
11.817813
13.171434
12.205839
13.229847
15.185475
15.207529
15.932918
15.337467
15.479922
18.333793
17.471910
19.886494
18.643737
18.930435
18.785596
17.991662
18.918514
18.911958
18.433928
20.170808
18.514991
18.153787
20.274520
18.044710
18.140674
18.018484
17.391443
18.436909
17.398000
17.401576
17.102957
15.771985
17.503500
16.591549
18.181801
17.387867
16.946793
18.872619
20.006895
22.358894
23.574829
26.159883
27.736425
27.875900
28.417706
28.385520
26.799440
25.715828
21.853447
21.297932
18.796921
18.464923
16.012788
14.954805
14.075637
12.661815
12.238622
12.068748
11.979938
11.973977
11.578798
11.835694
11.218786
10.291934
11.813641
9.710789
10.955930
9.579659
10.386705
10.496974
10.734797
12.049675
14.125705
21.028519
30.471683
47.632456
70.843697
89.261532
122.056603
150.173903
189.846754
219.723582
254.344940
278.316736
296.791792
##ZVALUE=230
124.024749
136.756897
223.177671
298.680663
367.077589
443.115830
473.893881
438.307524
390.014648
288.603902
216.034651
135.335922
91.310740
66.457987
61.956644
61.403513
63.098669
59.625506
52.153468
43.313503
30.100942
26.134849
16.195774
12.800694
10.598898
8.762479
9.144545
8.892417
10.352731
9.907484
10.135770
10.098815
12.061596
11.649728
13.561845
15.446544
15.078783
15.611649
17.901659
17.403960
18.009543
18.245578
19.184947
19.809604
20.331740
19.550920
19.372702
20.202994
19.627810
19.046664
20.609498
21.522641
19.921660
20.111799
20.602942
18.603802
19.164681
19.491911
18.831491
19.020438
18.117428
17.627478
17.625690
18.557906
17.065406
18.333793
19.026995
19.292831
19.699931
20.744801
23.376942
24.975538
27.315617
29.690862
29.764771
29.592514
30.465722
28.608441
25.492907
22.726655
21.916628
20.543933
19.513965
17.307997
16.631484
16.140938
14.109612
13.074875
11.873841
13.390779
13.353825
12.056828
11.304617
12.769699
12.698770
11.621714
11.741519
12.189746
11.384487
11.919737
13.013482
11.420846
11.978745
13.238788
12.369752
12.027621
11.934638
14.323592
15.520453
25.520921
34.481883
60.731769
83.589554
127.399564
163.048506
215.678811
##ZVALUE=235
31.950474
37.104487
91.950893
165.293813
261.565447
428.971648
560.391545
690.651536
739.051700
726.881027
651.637912
510.708690
395.990014
255.078673
179.263949
115.126967
93.083978
84.619522
88.491440
90.398788
83.603859
70.802569
56.702495
40.466785
30.257702
20.267963
14.627576
13.552904
11.614561
11.244416
12.487769
11.714697
12.345910
12.056828
14.575720
15.144944
15.642643
16.094446
18.183589
17.389655
17.533898
18.993616
20.256639
20.870566
21.053553
20.712614
19.815564
21.249652
20.338893
21.828413
19.937754
21.615624
19.121766
19.853711
19.934773
20.487905
19.789934
20.464659
19.738674
19.486547
19.301772
19.412637
19.371510
17.343760
18.269420
18.741488
19.333959
19.895434
20.646453
23.084879
25.769472
24.812818
28.377771
30.296445
29.861927
31.701922
30.504465
28.661489
26.236773
25.087595
24.027824
22.342801
20.955801
18.735528
16.402602
16.050935
15.018582
15.023947
13.719797
13.811588
13.555884
13.349652
13.755560
13.114810
14.264584
12.969971
13.255477
14.007688
13.170838
13.227463
12.685657
13.794899
12.699962
12.719631
12.911558
12.516975
13.144612
13.693571
13.704896
14.241934
12.551546
13.317466
12.601614
16.961694
26.482940
47.923923
##ZVALUE=240
3.334880
3.664494
12.156963
34.078956
82.101822
187.997818
318.519473
566.879511
753.800869
973.239541
1016.001701
1016.001701
1011.970639
801.130533
640.204549
423.924923
284.721851
184.493661
131.663680
112.355947
118.309855
124.421716
120.770931
104.873776
89.655519
68.245530
50.841570
41.003823
25.964975
19.577742
15.171766
13.710856
13.536811
14.751554
15.223622
15.326738
15.789866
16.500950
16.738772
18.414855
18.069744
19.053817
19.658804
19.091964
21.138787
19.242764
20.238757
21.244884
20.831823
21.672845
20.059943
20.311475
20.380616
19.309521
19.496679
20.203590
18.833876
19.016862
18.471479
20.478964
19.579530
18.190742
18.608570
19.941926
17.664433
18.377900
19.609928
19.138455
21.675825
23.833513
24.354458
26.372671
28.752685
29.696822
30.141473
32.062531
30.535460
30.078888
27.117729
24.206638
22.075772
22.301674
19.702911
18.561482
16.626716
15.605688
14.216900
15.744567
15.479922
15.717745
15.153885
15.254617
14.306903
14.779568
14.930964
13.054609
13.863444
13.905764
13.191700
13.382435
14.325976
12.482405
14.561415
14.600754
13.973713
13.354421
12.272000
14.006495
14.289618
13.408661
13.840795
13.982654
14.187694
13.323426
13.208985
12.908578
##ZVALUE=245
2.877712
2.536774
2.985597
2.789497
5.210638
24.350882
61.981678
165.301561
297.179818
545.072556
769.325495
1013.882756
1016.001701
1016.001701
1016.001701
1016.001701
876.931548
588.935018
409.690738
226.138830
152.427554
118.948817
116.751790
130.851865
133.279562
133.017898
118.263960
101.289749
78.171492
60.349703
40.465593
29.446483
20.098686
15.251637
13.776422
14.345646
15.015602
14.769435
16.144514
16.380548
15.780926
16.127825
17.072558
17.866492
19.170642
17.290711
17.879605
17.743707
18.223524
17.328858
18.422604
17.843843
17.321706
17.825961
16.962886
18.044710
16.754866
15.597939
15.889406
16.249418
15.544891
16.486645
15.870929
15.182495
16.547441
17.162561
15.029907
17.555952
17.751455
17.237663
19.095540
22.119880
24.614930
25.154948
25.090575
23.506880
26.050806
22.651553
21.944642
19.714832
19.461513
19.120574
16.306639
15.397668
14.251471
14.206767
12.869835
13.622642
13.173819
12.967587
12.201667
11.871457
13.526678
11.716485
12.280941
12.665987
11.715889
12.180805
11.530519
12.199879
10.478497
11.655688
12.289882
12.601614
12.853742
12.818575
12.187958
13.048649
11.718869
11.382699
11.792779
13.918877
12.685657
12.248755
11.132956
11.858940
##ZVALUE=250
2.725720
2.354980
2.746582
2.250671
2.427697
2.969503
4.210472
15.312433
41.641593
129.124522
246.174932
503.574610
750.407577
1016.001701
1016.001701
1016.001701
1016.001701
1016.001701
1016.001701
801.505446
562.477708
380.123854
190.921426
127.173662
113.402605
125.359893
138.351917
144.057870
143.722892
127.520561
107.490420
87.498426
63.303709
46.134591
30.360818
23.580790
16.350746
14.959574
16.344786
16.244650
16.024709
15.462637
16.693473
16.435981
17.027855
17.417669
17.110705
16.509891
16.274452
17.648935
17.073750
16.032457
17.559528
16.490817
15.916824
16.452670
15.235543
15.432835
15.046597
14.478564
16.194582
14.624596
14.006495
15.155673
14.211535
13.817549
13.586879
14.338493
16.364455
16.391873
18.547773
19.101501
19.911528
20.423532
20.043850
21.267533
19.917488
19.529462
17.311573
16.133785
15.818477
15.701652
13.126731
12.514591
12.605786
12.494922
11.661649
11.683702
11.104941
10.733604
10.341406
10.829568
11.061430
10.194778
10.390878
10.326505
10.761619
10.210872
10.755658
9.751916
9.741783
9.928942
10.331869
10.142922
10.452867
11.122823
10.820627
11.114478
10.777712
10.549426
10.502934
10.624528
11.408925
10.544658
9.924769
10.793805
##ZVALUE=255
2.170801
2.130866
2.271533
2.433658
2.165437
2.515912
2.441406
2.654791
3.435612
7.886887
26.690960
96.187592
193.666816
426.544547
655.726790
998.799801
1016.001701
1016.001701
1016.001701
1016.001701
1016.001701
1016.001701
755.578876
479.607582
243.948698
153.146982
110.118985
112.444758
133.174658
144.373775
152.166486
150.928497
134.689808
118.075609
87.038875
69.596767
45.961738
33.358932
21.489859
18.804669
16.127825
17.163754
16.510487
17.443895
17.420650
17.548800
17.899871
16.994476
16.442537
17.432570
17.148852
16.908646
16.450882
16.603470
16.214848
15.539527
15.409589
15.415549
14.794469
14.448762
14.340878
14.211535
14.402866
14.300942
13.253689
13.757944
13.637543
13.476610
15.140772
14.066696
15.521646
17.485619
17.823577
18.210411
18.143654
17.763972
16.933680
16.211867
14.914870
14.357567
12.945533
13.609529
11.584759
11.860728
11.122823
11.344552
10.103583
9.909868
10.015965
9.641647
9.382963
9.439588
9.154677
9.471774
9.971857
10.003448
9.370446
9.719729
9.992719
8.337498
8.789897
9.906888
9.268522
8.867979
9.608865
9.695888
10.068417
9.478927
9.688735
9.556413
8.905530
9.388924
9.535551
8.926988
9.572506
9.067655
##ZVALUE=260
1.676679
1.991987
1.997948
2.243519
2.451539
2.393723
2.018809
2.144575
2.406836
2.308488
2.716780
4.414916
15.046597
63.302517
136.713386
326.931477
553.791523
947.472453
1016.001701
1016.001701
1016.001701
1016.001701
1016.001701
1016.001701
982.005000
697.845817
391.359925
224.121809
116.184950
97.976923
111.922622
132.755637
151.515603
161.943436
158.658624
144.788623
121.203661
98.508596
70.675611
52.773952
36.044717
27.162433
22.960901
20.543933
20.247698
19.439459
19.663572
19.097924
19.281507
20.265579
18.917918
19.170642
17.866492
18.130541
17.233491
17.964840
17.138720
16.308427
16.428828
16.227961
15.725493
14.695525
14.214516
15.010834
13.759732
13.948679
14.285445
13.212562
13.923645
14.670491
15.541911
15.914440
16.767979
16.260743
17.519593
16.154647
16.003847
14.281869
14.667511
13.204813
12.283921
11.060834
11.264682
9.523630
10.081530
9.948611
8.598566
8.803606
9.408593
8.607507
8.495450
9.157658
9.276867
9.088516
9.067655
8.367896
9.011626
8.740425
8.501410
8.788705
8.559823
8.792877
9.090900
8.565784
8.629560
9.075999
9.038448
7.908940
9.233952
9.811521
7.984638
9.521842
9.030700
8.647442
9.169579
9.399652
##ZVALUE=265
1.864433
1.818538
2.018809
1.914501
1.913905
2.101660
2.147555
2.066493
2.087951
2.135634
2.419949
2.574921
2.882481
3.455877
7.833838
41.528940
102.255940
265.772939
474.723577
889.962912
1016.001701
1016.001701
1016.001701
1016.001701
1016.001701
1016.001701
1016.001701
969.020724
653.516650
405.046940
204.733610
124.411583
96.878409
115.827918
144.674778
160.789490
167.584419
161.830783
148.873925
126.663446
104.679465
75.925589
56.152940
39.615631
30.356646
25.003552
22.516847
22.356510
21.139979
21.645427
21.688938
21.529794
20.370483
20.205975
19.884706
18.657446
19.036531
18.407702
17.775893
17.552972
16.980767
16.421676
14.987588
15.574694
14.285445
14.343858
13.990998
14.095902
14.602542
15.213490
15.863776
15.189648
17.051697
16.392469
17.018914
16.289949
15.949607
15.597939
13.865829
12.790561
11.514425
11.134744
9.916425
10.113716
9.560585
9.254813
9.290576
8.597970
8.282661
8.475780
8.413792
8.961558
8.516908
7.783771
8.152723
7.866621
8.719563
8.786917
8.510947
8.279681
8.250475
8.816719
9.128451
8.631945
8.893609
8.678436
8.493662
8.599758
8.616447
8.888841
8.315444
8.986592
9.012818
8.309484
8.578897
8.963943
##ZVALUE=270
1.457930
1.644492
1.734495
1.498461
1.825690
1.398921
1.764894
1.951456
1.745820
1.775622
2.042651
1.861453
2.481937
2.866983
3.123879
3.309846
4.429817
18.609762
57.128668
195.695758
380.252600
765.465498
1016.001701
1016.001701
1016.001701
1016.001701
1016.001701
1016.001701
1016.001701
1016.001701
969.856977
652.143955
338.020921
184.300542
91.920495
93.555450
123.997927
147.060752
169.141889
172.990561
172.477961
158.034563
132.089853
108.259916
79.916716
60.201883
43.336749
34.115911
28.778911
26.860833
24.322867
23.923516
22.752881
22.282600
21.288991
20.377636
21.325946
20.157695
19.419789
18.881559
18.532872
17.353892
17.261505
16.008615
15.955567
15.199780
15.321970
14.758706
14.579892
14.729500
15.579462
15.648603
17.023683
16.060472
15.673637
15.654564
14.622808
13.606548
13.079643
12.519956
10.864735
10.803938
9.762645
9.593964
9.603500
9.373426
8.321404
8.336902
8.459687
8.447766
8.353591
8.160472
7.991791
7.637739
8.172989
7.966757
7.708669
7.651448
7.835627
7.788539
8.144975
7.310510
7.670522
8.078814
8.313656
8.740425
8.325577
8.870959
7.949471
8.534789
8.174777
8.283854
8.023977
7.702708
8.669496
8.146763
##ZVALUE=275
1.358986
1.624823
1.627803
1.463890
1.528859
1.599789
1.717806
1.698732
1.826882
1.451969
1.981854
1.722574
2.019405
2.188683
2.226830
2.651811
2.548695
2.992749
3.107786
9.525418
33.931732
134.070516
300.589800
576.006770
1016.001701
1016.001701
1016.001701
1016.001701
1016.001701
1016.001701
1016.001701
1016.001701
1016.001701
707.044005
332.348943
176.675916
84.619522
74.375868
97.359419
123.125911
150.275826
167.589784
175.573826
173.586607
156.019926
135.844946
104.577541
86.230636
58.973432
46.161413
33.623576
28.903484
24.879575
23.346543
22.736788
22.012591
20.482540
20.070672
19.805431
19.585490
18.989444
18.452406
17.110705
16.130805
15.984774
15.375614
15.082955
14.142990
15.180707
14.761686
15.560985
15.367866
15.255809
15.538931
15.489459
15.192628
14.113784
13.172626
12.654662
11.818409
10.500550
10.620952
9.511709
9.193420
8.715987
8.249879
8.402467
7.891655
7.916689
7.933974
7.341504
7.444620
7.236600
7.631779
7.295609
7.154942
7.207990
6.940961
6.907582
7.162690
7.144809
7.118583
7.036924
7.131696
7.061958
7.524490
7.664561
7.449985
7.207990
7.309914
7.127523
7.406473
7.445812
7.024407
7.051826
7.048845
##ZVALUE=280
1.259446
1.173615
1.416802
1.318455
1.478791
1.384616
1.663566
1.606941
1.480579
1.549721
1.486540
1.722574
1.903772
2.045631
2.067685
2.191663
2.140999
2.325773
2.510548
2.908707
3.243685
4.972816
18.835664
91.077685
214.696527
507.022738
823.740959
1016.001701
1016.001701
1016.001701
1016.001701
1016.001701
1016.001701
1016.001701
1016.001701
925.771594
468.187928
244.882703
96.508861
63.266754
73.575974
93.899965
123.394728
144.814849
164.513588
169.899464
166.605711
152.869821
125.664473
104.689598
77.255964
59.344769
40.212870
31.244755
24.082661
21.245480
19.099712
18.942952
18.567443
17.791986
16.956925
16.498566
16.083717
16.080737
15.514493
15.364885
14.401674
14.626980
14.121532
14.504790
14.228821
14.930964
15.105605
14.933944
14.474988
13.881922
13.833642
12.184978
11.870861
10.746717
10.711551
10.027885
9.511709
8.947849
8.377433
8.148551
8.343458
8.263588
7.637739
7.661581
7.835627
7.896423
7.635951
7.357597
7.083416
7.249713
7.242560
6.965995
7.061958
6.836653
7.018447
7.015467
7.276535
7.145405
7.030964
7.013679
6.957650
7.345676
7.127523
6.939769
7.182956
6.881952
6.948709
6.717443
6.550550
6.567836
##ZVALUE=285
1.157522
1.147985
1.303554
1.201630
1.165867
1.263618
1.288652
1.329780
1.569986
1.226664
1.676679
1.706481
1.712441
1.593828
1.730919
1.818538
1.804829
2.107620
2.263784
2.267957
2.563000
2.982616
3.094673
3.776550
8.175969
48.432946
124.194622
262.658596
594.679713
956.392884
1016.001701
1016.001701
1016.001701
1016.001701
1016.001701
1016.001701
1016.001701
1016.001701
706.344843
405.007601
164.792538
77.722669
50.800443
62.215924
87.891817
113.162994
134.915709
151.636004
161.314607
160.129666
144.075751
127.309561
98.469853
76.718926
53.469539
38.087964
25.552511
20.517707
17.463565
16.228557
14.752746
14.678836
14.928579
14.215708
13.675690
13.676882
13.108850
13.332963
13.613701
13.537407
13.787746
13.635755
14.195442
13.565421
14.204979
13.163686
12.338758
12.082458
11.825562
10.325909
10.352731
9.527802
9.508729
9.463429
8.370876
8.249879
7.894635
8.153915
8.124709
7.889867
7.968545
7.405877
7.415414
7.856488
7.783771
7.537603
7.703900
7.155538
7.135868
7.193685
6.918907
7.228851
7.002950
7.154942
6.810427
7.361770
7.138848
7.771850
6.944537
6.766915
7.091761
7.023811
6.755590
6.412864
6.654859
6.671548
##ZVALUE=290
1.320839
1.062751
1.153946
0.998974
1.050830
1.252890
1.286864
1.367927
1.435876
1.493692
1.306534
1.380444
1.484752
1.530647
1.550913
1.860857
1.712441
1.725554
2.000928
1.918674
2.296567
2.107620
2.593994
2.975464
3.019571
3.567934
4.596710
11.910796
63.529611
162.690878
406.499505
709.824562
1016.001701
1016.001701
1016.001701
1016.001701
1016.001701
1016.001701
1016.001701
1016.001701
980.851650
610.948801
260.528922
115.935802
42.442679
39.360523
56.890845
74.676871
104.555488
124.234557
143.958926
154.072642
152.672529
139.671564
117.309690
96.015930
66.465735
49.567819
32.339692
23.855567
16.830564
14.383793
12.304783
12.647510
11.917949
11.659861
11.812449
11.942983
12.208819
12.371540
12.560487
12.874603
12.914538
12.932420
12.644529
12.071729
11.031628
11.052489
10.349751
9.676814
9.029508
9.599924
9.013414
8.530617
8.313656
8.138418
8.149743
8.252859
8.086562
7.866621
7.737875
7.934570
7.535815
7.297993
7.790923
7.319450
7.620454
7.217526
7.393956
7.202625
7.021427
6.968975
6.908774
6.959438
6.911755
6.810427
7.681847
6.899834
7.083416
7.038713
6.858706
6.907582
6.783605
6.650686
7.051826
6.357431
##ZVALUE=295
1.060963
1.073480
1.036525
1.106858
1.265407
1.576543
1.073480
1.358986
1.420975
0.986457
1.172423
1.216531
1.279712
1.287460
1.581907
1.518726
1.367927
1.593828
1.676679
1.751781
1.871586
1.985431
2.118945
2.132654
2.480745
2.807975
2.856851
3.311634
3.587604
6.026626
32.845736
96.972585
283.632874
540.623665
994.133949
1016.001701
1016.001701
1016.001701
1016.001701
1016.001701
1016.001701
1016.001701
1016.001701
882.863998
404.973626
187.554955
56.060553
30.314922
35.917759
49.166679
72.789788
92.647672
117.682815
133.566856
144.659877
142.904520
127.398968
110.772848
87.711811
68.142414
44.915676
31.630993
21.094680
15.769601
11.979938
11.221766
10.204911
10.501742
10.678768
10.560751
10.990500
11.260509
11.404753
11.701584
12.016892
11.398792
10.974407
10.133982
9.863973
9.959936
9.090900
8.476973
8.627772
8.263588
8.548498
7.824898
8.256435
7.785559
7.750988
7.599592
7.637739
7.463694
7.584691
7.163882
7.520914
7.557869
7.312894
7.253885
7.117987
7.436872
7.287860
6.954670
7.392764
7.488728
7.125735
7.012486
7.285476
7.605553
7.487535
7.532835
7.421970
7.440448
7.145405
6.932616
6.648898
6.819963
##ZVALUE=300
1.013875
1.046658
1.022816
0.987649
1.183748
1.130700
1.137853
1.100898
1.071692
1.053810
1.280904
1.237988
1.358986
1.125932
1.343489
1.241565
1.358986
1.341701
1.267791
1.494884
1.759529
1.715422
1.821518
1.895428
2.228618
2.008677
2.330542
2.442598
2.764463
3.026724
3.634691
4.051924
14.374852
50.664544
179.845095
365.695953
784.433484
1016.001701
1016.001701
1016.001701
1016.001701
1016.001701
1016.001701
1016.001701
1016.001701
1016.001701
597.406626
314.432979
101.657510
36.558509
23.326874
29.780865
44.940710
62.072873
85.358620
105.031729
126.694441
134.719610
131.881833
125.815868
106.482506
87.368488
62.960982
47.444701
29.338598
20.837784
14.136434
11.597872
10.127425
9.838939
10.292530
10.536909
10.481477
10.375977
10.540485
10.260940
10.029674
9.991527
9.249449
8.843541
8.660555
8.723736
8.395910
8.249879
7.957816
7.566810
7.693768
7.258654
7.733703
7.301569
7.171631
7.474422
7.539988
7.326603
7.321835
7.119775
7.072687
7.029772
7.092953
6.829500
6.887913
7.254481
7.238984
7.579923
7.313490
7.151961
7.733703
7.368922
7.433891
7.317662
7.686615
7.255673
6.990433
7.176995
7.042885
6.936789
##ZVALUE=305
0.941753
1.052618
1.110435
0.797510
1.131892
1.048446
1.014471
0.924468
1.045465
1.134872
0.985861
1.305938
1.111627
1.245737
1.182556
1.172423
1.201630
1.369715
1.400709
1.326799
1.379848
1.505613
1.632571
1.853704
1.765490
2.013445
1.867414
2.160668
2.217889
2.575517
2.677441
2.908707
3.026724
3.799796
7.748604
27.744770
116.359591
263.515711
604.998469
963.901877
1016.001701
1016.001701
1016.001701
1016.001701
1016.001701
1016.001701
1016.001701
1016.001701
796.059370
444.325805
161.576867
60.304403
19.866824
19.662976
28.107762
40.302873
62.228441
79.086423
102.128983
116.970539
127.325654
127.480626
116.934776
103.342533
80.668926
62.613487
41.700602
29.573441
18.474460
13.740659
11.010766
10.365844
10.009408
9.891987
9.845495
9.500980
8.910894
8.858442
8.720756
8.624792
8.108616
7.910728
8.104444
7.673502
7.789731
7.445812
7.473826
7.088780
7.127523
7.170439
7.170439
7.156730
7.068515
7.132888
7.087588
7.165670
7.070899
6.976724
6.978512
7.025599
7.048845
7.440448
7.224679
7.207990
7.121563
6.971955
7.662773
7.347465
7.523894
7.816553
7.446408
7.509589
7.034540
7.184744
6.955862
7.227659
##ZVALUE=310
0.906587
0.968575
0.816584
0.996590
0.693798
0.805855
0.848770
0.714660
0.797510
1.032948
1.071692
1.072884
1.079440
1.117587
1.032948
1.087785
1.238585
1.286864
1.341701
1.156926
1.316667
1.324415
1.431704
1.411438
1.562834
1.437664
1.718998
1.762509
1.879930
2.070665
2.267957
2.198815
2.519488
2.500415
2.689958
3.108978
4.354715
11.240840
62.314868
153.531432
390.711427
690.349936
1016.001701
1016.001701
1016.001701
1016.001701
1016.001701
1016.001701
1016.001701
1016.001701
921.813846
550.717711
223.528743
96.683502
27.962923
15.767813
18.134713
24.982691
37.325621
50.568581
73.512793
89.725852
108.700991
118.101835
120.382905
113.049746
98.598003
81.417561
57.573915
42.532682
27.318001
19.908547
14.221668
11.565685
9.541512
8.815527
8.291602
7.816553
7.882714
7.751584
7.188916
7.030964
6.955862
7.115602
6.720424
7.186532
7.045865
6.941557
6.784797
7.010698
6.784797
6.804466
6.812811
7.315874
6.608963
7.054806
7.096529
6.728768
6.562471
6.658435
6.804466
6.819963
6.661415
6.915927
7.138848
7.171631
7.464886
7.596612
7.655621
7.580519
7.259846
7.158518
7.298589
7.024407
7.041693
6.933808
##ZVALUE=315
0.816584
0.821948
0.800490
0.926852
0.904799
0.954866
1.087785
0.959635
0.852942
0.910759
0.869632
0.842810
0.884533
0.960827
0.928640
1.014471
1.050830
1.194477
1.056790
1.109838
1.156926
1.420975
1.194477
1.227856
1.371503
1.561642
1.465678
1.533628
1.620650
1.575947
1.849532
1.727939
2.257824
2.099872
2.224445
2.566576
2.859831
2.808571
3.677607
5.515814
29.794574
90.198517
277.646780
518.955588
980.214477
1016.001701
1016.001701
1016.001701
1016.001701
1016.001701
1016.001701
1016.001701
1016.001701
713.201761
326.864719
147.472620
38.380623
16.593933
12.944937
15.489459
22.775531
32.154918
49.437881
64.576864
86.533427
99.766850
111.626983
112.635493
107.102990
93.216896
71.978569
57.609677
39.761662
28.723478
18.201470
13.501644
9.087920
8.297563
7.194877
6.873608
6.650686
6.543994
6.563663
6.764531
6.550550
6.240606
6.615520
6.525517
6.576777
6.489754
6.511807
6.646514
6.769896
6.942749
6.725788
6.707907
6.541610
6.790757
6.608963
6.770492
6.794930
6.692410
6.844997
6.965995
7.104874
7.160902
7.016659
7.139444
7.250905
7.232428
7.210970
7.084608
7.190704
7.086992
6.886721
6.922483
##ZVALUE=320
0.811815
0.897646
0.746846
0.784993
0.875592
0.795722
0.890493
0.835657
0.765920
0.704527
0.782609
0.915527
0.815988
1.087785
1.033545
1.143813
1.016855
1.010895
0.979900
0.813603
0.956655
1.133680
1.049638
1.070499
1.238585
1.229644
1.227856
1.356602
1.377463
1.437664
1.475811
1.732707
1.812577
1.654625
1.904964
2.155900
2.045631
2.291799
2.600551
3.031492
3.320575
3.649592
14.626980
50.960779
183.826685
376.949906
772.339702
1016.001701
1016.001701
1016.001701
1016.001701
1016.001701
1016.001701
1016.001701
1016.001701
942.671895
443.884730
225.928426
72.819591
26.376843
11.811852
11.158586
14.585853
19.114614
30.060410
41.148663
60.572624
76.445937
95.974803
102.844834
106.328726
102.227926
87.992549
73.901415
53.561926
39.958954
24.824739
16.596913
11.135936
8.188486
6.786585
6.286502
5.982518
6.143451
5.984902
6.034970
5.818605
6.197691
5.838871
6.138682
6.096959
6.085634
6.098747
6.566644
6.274581
6.554723
6.330609
6.319880
6.415844
6.873608
6.423593
6.702542
6.677508
7.023811
7.101893
7.392764
6.860495
7.326603
7.258654
7.046461
7.205606
7.154942
6.925464
6.766915
6.753802
7.014871
##ZVALUE=325
0.825524
0.787973
0.749826
0.884533
0.818968
0.874996
0.734925
0.684857
0.713468
0.574589
0.811815
0.828505
0.722408
0.980496
0.716448
1.014471
1.079440
0.945926
0.989437
0.958443
0.985861
1.040697
1.134872
1.134872
1.119971
1.206994
1.086593
1.209974
1.340508
1.358986
1.344681
1.412630
1.516938
1.600981
1.673698
1.589656
1.889467
1.873970
1.974702
2.153516
2.342463
2.717972
2.985597
3.340840
7.581711
31.616688
126.948953
277.408957
627.023578
972.006917
1016.001701
1016.001701
1016.001701
1016.001701
1016.001701
1016.001701
1016.001701
1013.683677
592.979789
329.899788
116.629004
41.471720
12.118816
10.179877
10.730624
12.843609
18.697977
26.488900
43.551922
58.264732
78.096986
88.839531
100.244880
99.750757
93.106627
82.880855
63.709617
48.544407
32.013655
23.359656
14.607906
10.226965
7.954836
6.649494
5.796552
5.785823
5.646944
5.523562
5.443692
5.749464
5.689859
5.908608
5.865693
6.100535
6.104708
6.236434
6.293654
6.198883
6.524920
6.474853
6.522536
6.564856
6.737709
6.938577
6.750822
7.233620
7.242560
7.496476
7.240772
6.979704
7.314682
6.839633
6.918907
6.900430
7.099509
6.911755
##ZVALUE=330
0.795722
0.732541
0.629425
0.756979
0.667572
0.748634
0.792742
0.565648
0.688434
0.783801
0.757575
0.806451
0.777841
0.724792
0.743866
0.728965
0.805855
0.845790
0.789762
0.942945
0.821948
1.019835
0.900626
1.089573
0.969768
0.985861
0.988841
1.080632
1.199841
1.209974
1.217723
1.245737
1.257658
1.277924
1.432896
1.405478
1.530647
1.677871
1.652837
1.751781
1.970530
2.050996
2.264977
2.527833
2.428889
2.900958
4.425645
13.814569
77.799559
189.314485
465.120673
776.744485
1016.001701
1016.001701
1016.001701
1016.001701
1016.001701
1016.001701
1016.001701
1016.001701
721.903443
415.848494
162.244439
68.578720
18.039942
9.749532
8.833408
9.577870
12.337565
17.153621
27.573705
38.094521
55.161715
68.459511
83.951950
90.534687
93.151927
87.817907
74.389577
61.228871
43.255687
31.837821
21.275878
14.980435
9.780526
7.828474
5.970597
5.580783
5.349517
5.442500
5.330443
5.496740
5.581975
5.511642
5.701780
5.686879
6.135702
5.979538
6.017685
6.284714
6.386638
6.593466
6.387830
6.282926
6.721616
6.684661
7.120967
6.949902
7.313490
6.849766
7.113814
6.786585
6.747842
6.951690
6.752610
6.438494
##ZVALUE=335
0.605583
0.649691
0.712872
0.689626
0.812411
0.698566
0.699759
0.683665
0.906587
0.582933
0.684857
0.776649
0.751615
0.766516
0.715852
0.845790
0.741482
0.818968
0.794530
0.879765
0.763535
0.833869
0.814795
0.992417
1.030564
1.043677
0.928640
1.022816
1.059771
1.108646
0.857711
0.961423
1.067519
1.191497
1.086593
1.315475
1.119971
1.435876
1.545548
1.718998
1.518726
1.727939
1.773834
1.929998
2.302527
2.166629
2.525449
2.634525
3.237724
6.225705
40.744543
116.165876
329.329967
590.835810
1014.972925
1016.001701
1016.001701
1016.001701
1016.001701
1016.001701
1016.001701
1016.001701
820.037723
510.642529
225.022435
100.671649
26.439428
11.330843
8.653998
8.588433
9.696484
11.557937
17.032623
23.368001
36.411881
48.167706
65.830946
77.481866
85.666776
86.078644
79.997778
71.931481
56.444407
44.953823
31.276941
22.871494
14.399886
10.497570
7.220507
6.192923
5.608797
5.398989
5.812645
5.650520
5.848408
5.614758
5.817413
5.744696
5.845428
5.578995
6.180406
5.956888
6.061792
6.336570
6.632805
6.766915
7.026792
6.787777
6.984472
7.134676
7.179976
6.840825
7.079840
6.717443
6.816983
6.374717
##ZVALUE=340
0.692606
0.710487
0.704527
0.624657
0.592470
0.750422
0.595450
0.649691
0.724792
0.653863
0.642538
0.806451
0.572801
0.759959
0.595450
0.622869
0.741482
0.701547
0.776649
0.681877
0.658631
0.654459
0.748634
0.854731
0.856519
0.867844
0.939965
0.993609
0.977516
0.858903
1.009703
1.046658
1.137853
1.045465
1.065731
1.278520
1.248717
1.346469
1.331568
1.328588
1.400709
1.540780
1.375675
1.655817
1.748800
1.834631
1.925826
2.059937
2.331734
2.544522
2.811551
3.997684
18.324852
67.315698
236.287713
466.462970
951.324701
1016.001701
1016.001701
1016.001701
1016.001701
1016.001701
1016.001701
1016.001701
949.201584
594.961047
276.090503
129.865408
34.366846
12.836456
8.895993
8.471608
8.102655
8.768439
11.310577
14.624000
23.130774
32.465458
47.641993
60.053468
73.709488
78.878999
80.229640
76.432824
65.513849
55.645704
41.656494
31.521916
21.303892
15.359521
10.357499
7.951856
6.493926
6.273985
6.259680
5.916953
5.799532
5.983710
5.500913
5.704761
5.581975
5.893707
6.009936
5.984902
6.254911
6.404519
6.986856
6.960630
7.022619
7.081628
7.043481
6.918907
6.782413
6.714463
6.411672
6.309748
##ZVALUE=345
0.585914
0.607967
0.514984
0.551939
0.577569
0.693798
0.711679
0.628829
0.690818
0.614524
0.728965
0.685453
0.652671
0.653863
0.617504
0.675917
0.674725
0.744462
0.693798
0.930429
0.842810
0.842810
0.915527
0.886917
0.784993
0.901818
0.829697
0.886917
0.906587
0.887513
0.895858
1.145601
0.950694
1.010895
0.950694
1.209974
1.135468
1.164675
1.213551
1.250505
1.210570
1.287460
1.283884
1.278520
1.562834
1.568794
1.565814
1.598597
1.949668
2.152920
2.350807
2.246499
2.684593
3.087521
7.740855
34.881830
157.291889
329.984426
705.256462
1016.001701
1016.001701
1016.001701
1016.001701
1016.001701
1016.001701
1016.001701
1016.001701
757.376552
348.615646
168.021917
51.287413
20.233989
9.595752
8.432865
7.576942
7.548928
7.928610
9.013414
13.801455
19.821525
31.537414
41.384697
54.413676
63.875914
71.658492
73.779821
71.407557
65.092444
52.665472
42.748451
30.906796
22.984743
14.912486
11.297464
8.416772
7.089972
6.244779
6.143451
5.988479
5.760789
5.774498
5.806684
6.097555
6.029606
6.620884
6.457567
6.852746
6.722808
6.647706
6.660819
6.474853
6.749630
6.430745
6.206632
6.285906
6.135702
##ZVALUE=350
0.695586
0.625849
0.560880
0.653863
0.494719
0.533462
0.535846
0.706911
0.617504
0.697970
0.642538
0.721812
0.763535
0.805855
0.707507
0.683665
0.810623
0.851750
0.853539
0.883937
0.829697
0.799894
0.890493
0.832677
0.668764
0.766516
0.811815
0.887513
0.764728
0.875592
0.882745
1.004934
0.962615
0.991821
0.908971
1.184940
1.020432
1.191497
1.072884
1.068711
1.179576
1.240969
1.508594
1.399517
1.450777
1.336932
1.373887
1.561642
1.666546
1.593828
1.892447
2.026558
2.113581
2.182722
2.674460
2.827644
4.614592
16.340613
86.716413
207.144618
514.794588
862.601995
1016.001701
1016.001701
1016.001701
1016.001701
1016.001701
1016.001701
1016.001701
870.741606
460.307002
242.663622
79.227686
29.650927
10.635853
8.146763
7.199645
6.783605
6.463528
6.743670
8.969903
11.901855
18.725991
25.495887
37.062764
46.762824
58.417916
64.247847
67.172647
66.961646
59.634447
51.904917
39.611459
31.138659
21.175742
16.093850
11.126995
8.682609
7.100701
6.349683
6.113648
5.999804
5.999804
6.069541
6.248951
6.482601
6.629825
6.398559
6.675720
6.618500
6.534457
6.341934
6.267428
6.059408
6.108880
6.009936
##ZVALUE=355
0.576973
0.649691
0.631809
0.554919
0.627637
0.647902
0.644922
0.753999
0.524521
0.677705
0.697970
0.654459
0.703931
0.690818
0.884533
0.727773
0.720620
0.894666
0.799894
0.849962
0.687838
0.759959
0.762939
0.912547
0.761747
0.909567
0.881553
0.773668
0.902414
0.942945
0.942945
0.970960
1.017451
0.869632
0.917912
1.080632
1.161695
1.094937
1.034737
1.202822
1.188517
1.177788
0.955462
1.240969
1.311898
1.381636
1.341701
1.345873
1.444817
1.599789
1.596808
1.792908
1.975894
1.803637
2.201796
2.335906
2.538562
2.833605
3.287792
6.773472
44.040680
131.190419
371.541977
653.031468
1016.001701
1016.001701
1016.001701
1016.001701
1016.001701
1016.001701
1016.001701
990.161896
574.485660
312.948823
116.300583
46.374798
11.871457
8.048415
6.841421
6.554723
5.971789
5.839467
6.581545
7.547736
10.808706
15.440583
23.638606
31.452775
42.971969
51.146746
59.563518
63.093901
61.591864
57.168603
48.613548
40.809512
30.579567
23.457408
15.825629
12.129545
8.674860
7.452965
6.423593
6.215572
6.388426
6.173849
6.527901
6.700754
6.482601
6.615520
6.223917
6.273985
6.066561
5.702972
5.781651
5.580783
##ZVALUE=360
0.593662
0.672936
0.382662
0.665784
0.647902
0.620484
0.607967
0.617504
0.560880
0.637770
0.631809
0.877976
0.670552
0.730753
0.777841
0.831485
0.794530
0.776649
0.751615
0.715852
0.687838
0.789762
0.793934
0.851750
0.913739
0.991821
0.760555
0.983477
0.991821
0.951886
0.983477
0.913739
0.984669
1.014471
0.955462
1.063943
1.018643
1.066923
1.127720
1.130700
1.146793
1.092553
1.095533
1.095533
1.346469
1.293421
1.462698
1.407862
1.404881
1.511574
1.603961
1.457930
1.739860
1.794696
1.891851
1.962781
2.243519
2.302527
2.525449
2.876520
3.310442
4.213452
19.607544
66.011548
224.526525
445.831418
903.029442
1016.001701
1016.001701
1016.001701
1016.001701
1016.001701
1016.001701
1016.001701
729.559660
433.240533
171.511769
70.154667
17.452836
8.833408
6.875992
6.315708
5.806684
5.565882
5.519986
5.851984
6.941557
8.709431
13.210773
18.814802
28.585792
36.850572
47.034621
52.338839
56.765676
57.455897
54.473877
48.688650
39.663911
32.291412
23.219585
17.697811
12.473464
9.905696
7.943511
7.178783
6.877780
6.669760
6.684661
6.321669
6.128550
6.084442
5.970597
5.402565
5.471706
5.122423
##ZVALUE=365
0.480413
0.629425
0.698566
0.779629
0.755787
0.648499
0.609756
0.633597
0.620484
0.659823
0.658631
0.736713
0.592470
0.693798
0.728965
0.766516
0.658631
0.867844
0.651479
0.767708
0.826716
0.785589
0.912547
0.844598
0.805855
0.992417
0.863671
0.765920
0.889897
0.804663
0.882745
0.995994
0.883937
0.908971
0.911951
0.960827
0.906587
1.087785
1.154542
1.070499
1.062751
0.957847
1.295805
1.065731
1.218915
1.264811
1.200438
1.120567
1.166463
1.372695
1.361966
1.421571
1.333952
1.592636
1.600981
1.832843
1.809597
1.887679
1.891851
2.154708
2.463460
2.591610
3.122687
3.539920
8.427501
31.177998
135.020614
303.197503
714.237690
1016.001701
1016.001701
1016.001701
1016.001701
1016.001701
1016.001701
1016.001701
863.961577
521.605611
225.625634
104.697943
31.200647
11.323690
6.740689
6.205440
5.742908
5.349517
5.250573
5.098581
5.451441
5.988479
8.203983
11.503696
17.599463
23.519993
32.257438
39.949417
47.134757
51.329732
52.960515
51.146746
45.493841
40.022731
31.717420
25.402904
18.214583
14.008880
10.106564
8.258820
7.233620
6.252527
5.922914
5.914569
5.711913
4.990697
4.966855
4.744530
##ZVALUE=370
0.644922
0.695586
0.616908
0.580549
0.712872
0.668764
0.659823
0.735521
0.740886
0.726581
0.757575
0.644922
0.651479
0.684857
0.828505
0.853539
0.735521
0.626445
0.817776
0.742674
0.674725
0.801682
0.785589
0.762939
0.778437
0.762939
0.796914
0.842810
0.924468
0.937581
0.871420
0.888705
0.863671
0.923872
1.047850
0.842810
0.888705
0.993609
0.915527
0.866652
0.994802
0.996590
1.064539
0.982881
1.020432
1.177788
1.181960
1.078844
1.233816
1.182556
1.226664
1.329780
1.406670
1.265407
1.427531
1.380444
1.551509
1.560450
1.631975
1.653433
1.959801
1.930594
2.088547
2.400875
2.778769
2.992749
4.474521
16.078949
90.013742
222.005844
518.975854
876.272917
1016.001701
1016.001701
1016.001701
1016.001701
1016.001701
1016.001701
983.465910
651.227832
298.422575
149.967670
51.944852
18.883944
7.044673
6.111860
5.585551
5.313754
5.320907
5.259514
5.341768
5.772710
6.637573
8.356571
11.237860
15.229583
21.772981
27.262568
35.408735
40.848851
47.210455
49.777627
48.324466
45.273900
38.192868
32.211542
24.990439
18.012524
14.492869
11.046529
8.172989
7.221699
6.142855
5.555749
4.984736
4.916787
##ZVALUE=375
0.565648
0.663996
0.543594
0.530481
0.661612
0.507832
0.655651
0.588894
0.671744
0.317693
0.686646
0.531673
0.543594
0.693798
0.573993
0.526905
0.686646
0.575781
0.511408
0.653863
0.499487
0.562668
0.664592
0.645518
0.617504
0.786781
0.718832
0.636578
0.822544
0.870824
0.833869
0.742674
0.801682
0.699759
0.864863
0.868440
0.854731
0.967979
1.057982
0.823736
0.888705
1.075864
0.856519
0.871420
0.986457
1.028776
0.928640
1.057982
1.101494
1.077652
0.902414
1.089573
1.137853
1.124740
1.121759
1.208782
1.361966
1.319647
1.319647
1.352429
1.398921
1.602769
1.851916
1.907945
1.784563
1.981854
2.414584
2.671480
3.410578
8.465648
48.065782
129.547715
354.549885
651.615858
1016.001701
1016.001701
1016.001701
1016.001701
1016.001701
1016.001701
1016.001701
857.214928
457.238555
257.144570
97.497702
38.295984
10.111928
6.362796
5.653501
5.844831
5.697608
6.028414
6.094575
6.341934
6.460547
6.618500
7.693768
9.202957
12.895465
17.283559
24.657845
30.530691
38.422942
43.749809
47.153831
47.617555
45.415759
39.403439
34.298897
26.980639
22.221804
15.890598
12.197495
8.363724
6.992817
5.625486
##ZVALUE=380
0.531673
0.454783
0.575781
0.692606
0.574589
0.564456
0.535846
0.596642
0.516772
0.627637
0.520945
0.507832
0.621676
0.638962
0.485778
0.684857
0.499487
0.458956
0.555515
0.461936
0.529885
0.584722
0.730753
0.560880
0.673532
0.798702
0.746846
0.802875
0.746846
0.967979
0.669956
0.849962
0.844598
0.916719
0.754595
0.852942
0.754595
0.851750
0.915527
0.837445
0.831485
0.908971
0.960827
0.794530
0.963807
0.948906
0.953674
0.954866
1.045465
1.032948
0.968575
0.986457
1.050830
1.170635
1.018643
1.069903
1.275539
1.198649
1.209974
1.298785
1.249909
1.328588
1.324415
1.479983
1.726747
1.745820
2.007484
2.213717
2.523661
2.818704
3.389716
4.747510
26.065707
82.747936
251.672864
489.085913
960.252881
1016.001701
1016.001701
1016.001701
1016.001701
1016.001701
1016.001701
1007.692814
607.526898
351.274610
142.218471
62.815547
16.223788
7.688999
6.610751
6.422997
6.681681
6.577969
6.589890
6.153584
6.242990
5.990863
6.022453
6.290674
8.217692
10.817647
15.940666
21.633506
29.451847
35.099983
41.411519
44.518709
45.667887
44.068694
39.478540
34.338832
27.068853
21.620989
15.764832
10.929704
##ZVALUE=385
0.563860
0.503659
0.552535
0.522733
0.621676
0.557899
0.546575
0.442863
0.498891
0.659823
0.539422
0.598431
0.647902
0.545979
0.600815
0.494719
0.480413
0.466704
0.531673
0.563860
0.671744
0.635982
0.566840
0.838637
0.717640
0.569820
0.796914
0.762939
0.793934
0.715852
0.826716
0.847578
0.844598
0.936985
0.974536
1.031756
0.872612
1.112819
0.896454
1.047850
0.907779
0.853539
0.852942
0.850558
1.007915
0.899434
0.946522
0.917912
1.058578
0.884533
0.909567
1.089573
0.918508
1.211762
1.123548
1.167655
1.111627
1.223683
1.232624
1.240969
1.107454
1.147985
1.302958
1.186728
1.486540
1.341701
1.595616
1.913905
1.939535
2.259612
2.472997
2.571940
2.908707
3.333688
10.848641
39.199591
150.775909
343.443751
768.233538
1016.001701
1016.001701
1016.001701
1016.001701
1016.001701
1016.001701
1016.001701
832.309723
521.975756
231.119990
110.579729
34.931898
12.756586
6.944537
6.764531
6.618500
6.365776
6.132722
5.896688
5.716681
5.170703
5.259514
5.188584
6.153584
6.785989
9.963512
13.192892
18.806458
25.445819
30.162930
36.138892
39.112568
41.016936
40.682554
37.260652
33.316612
26.873946
##ZVALUE=390
0.473857
0.563860
0.421405
0.557899
0.518560
0.439882
0.608563
0.570416
0.370741
0.491738
0.596642
0.568628
0.451803
0.582933
0.465512
0.539422
0.421405
0.458956
0.431538
0.494719
0.647902
0.568628
0.554919
0.561476
0.677705
0.594854
0.695586
0.811815
0.862479
0.841618
0.840425
0.903606
0.927448
1.040697
0.933409
0.947714
1.045465
1.051426
0.965595
0.935793
0.961423
0.915527
1.024604
1.116991
0.954866
0.951886
1.086593
1.149774
0.988841
1.015663
0.993609
0.916719
1.104474
1.160502
1.053810
1.265407
1.024604
1.217723
1.164675
1.214743
1.134872
1.270771
1.217723
1.143813
1.371503
1.416802
1.578927
1.571774
1.830459
2.026558
2.224445
2.299547
2.393723
2.430677
2.653599
3.032684
5.355477
21.002889
101.544857
245.073438
598.865747
959.955454
1016.001701
1016.001701
1016.001701
1016.001701
1016.001701
1016.001701
1016.001701
720.135570
337.347984
168.671608
55.680871
20.662546
8.130670
6.968975
6.198883
6.218553
5.999804
5.610585
5.457997
5.319715
4.955530
4.886985
5.289912
5.971789
6.974936
9.005666
11.449456
15.525818
20.050406
25.777817
30.571818
36.096573
38.125515
38.613677
##ZVALUE=395
0.413656
0.489950
0.478625
0.544786
0.533462
0.487566
0.454783
0.442863
0.453591
0.490546
0.503659
0.557899
0.533462
0.462532
0.494719
0.602603
0.527501
0.477433
0.579953
0.787973
0.713468
0.710487
0.734925
0.656843
0.663996
0.671744
0.679493
0.751615
0.956655
0.925660
0.956655
0.811815
0.820756
0.846982
0.993609
1.029968
0.941753
0.949502
1.043677
1.072884
0.942945
1.041889
1.052618
1.162887
1.135468
1.241565
1.099706
1.070499
1.002550
1.098514
1.108646
1.188517
1.117587
1.166463
1.012683
0.964999
1.078844
1.007915
1.108646
1.137853
1.162887
1.235604
1.181960
1.118779
1.208782
1.337528
1.468658
1.586676
1.675487
1.902580
2.081990
2.224445
2.076626
2.106428
2.051592
2.256632
2.452731
2.537966
3.621578
11.271834
65.965652
164.073706
402.227640
701.773763
1016.001701
1016.001701
1016.001701
1016.001701
1016.001701
1016.001701
1016.001701
958.978534
501.610637
263.091922
94.477534
39.272904
11.333823
7.174611
6.046891
6.044507
5.703568
5.813837
5.800724
5.718470
5.597472
5.505681
5.395412
5.757809
5.603433
6.409883
7.253885
9.296536
12.442470
17.302632
22.190809
27.970672
##ZVALUE=400
0.623465
0.651479
0.671744
0.645518
0.517964
0.503659
0.549555
0.544786
0.453591
0.435710
0.530481
0.516772
0.511408
0.465512
0.471473
0.581741
0.386834
0.614524
0.509620
0.500679
0.490546
0.577569
0.569820
0.624657
0.651479
0.679493
0.634789
0.789762
0.732541
0.690818
0.830889
0.873804
0.857711
0.904799
1.054406
1.059771
1.077652
0.895858
1.116991
1.200438
1.015663
1.249909
1.041889
1.049638
1.111627
1.099706
1.121759
1.044869
0.986457
1.084805
1.194477
1.058578
1.177788
1.089573
1.035929
1.115799
1.107454
1.103878
1.193881
1.093745
1.256466
1.215935
1.018643
1.264811
1.295805
1.392961
1.549721
1.514554
1.625419
1.690984
1.775622
1.848936
1.832843
1.904964
1.884699
1.797676
1.947880
2.044439
2.284646
2.393723
2.900958
5.646944
31.869411
93.533993
270.885825
507.622957
959.878564
1016.001701
1016.001701
1016.001701
1016.001701
1016.001701
1016.001701
1016.001701
628.464818
370.839834
154.062510
69.780946
21.958947
9.089708
6.099939
5.871654
6.038547
5.947948
6.097555
6.391406
6.315708
5.996823
5.719662
5.515814
5.193949
5.104542
5.199909
6.123781
8.171797
11.257529
##END
