##TITLE=7-1
##FORMAT=SPECTACLE-ASCII V-1.2
##DATA TYPE=ULTRAVIOLET SPECTRUM
##SECOND TYPE=ULTRAVIOLET SPECTRUM
##DATE=04/04/18
##TIME=13:32:41
##SPECTROMETER/DATA SYSTEM=SPECTACLE
##XUNITS=NM EM
##YUNITS=ENERGY
##YFACTOR=1
##FIRSTX=220
##LASTX=450
##NPOINTS=116
##3DDATA=Equidistant
##ZUNITS=NM EX
##FIRSTZ=210
##LASTZ=400
##ZPOINTS=39
##XYDATA=(Y..Y)
##ZVALUE=210
20.087957
19.394755
16.641617
14.050603
11.062622
10.870695
10.933876
8.540750
7.947683
6.672740
5.183816
4.458427
4.409552
3.348589
3.632903
4.609823
4.329681
3.950000
4.642606
4.147887
4.505515
5.434752
5.146861
6.327629
7.513762
7.321835
9.649992
10.400414
10.521412
9.976625
12.289882
12.100935
12.426972
12.967587
13.853908
13.013482
13.630986
13.553500
11.724830
12.701750
12.835860
13.471842
12.730956
12.886524
12.218952
11.839867
12.359619
11.811852
12.458563
11.660457
11.411905
11.734962
11.767745
11.065602
11.868477
11.147857
11.725426
10.888577
11.304617
10.666847
9.964705
11.317730
10.755658
10.180473
9.953976
9.568930
11.028647
13.232827
12.261868
14.395714
16.905665
18.594861
19.017458
22.989511
22.529960
24.625659
23.870468
25.917888
23.607612
24.468899
20.601749
19.170642
18.163919
16.298890
12.578964
10.973811
9.445548
9.191632
10.105968
11.720657
12.920499
18.447638
22.120476
29.009581
35.292506
43.996572
49.419999
58.986545
65.337420
71.329474
76.985955
76.922774
76.117516
71.898699
70.877671
67.372918
62.112808
54.843426
47.372580
41.558743
33.438802
27.599931
20.270944
17.410517
17.180443
16.736984
##ZVALUE=215
60.205460
57.152510
44.540763
32.946467
27.426481
20.592809
17.617941
15.497804
15.794635
13.683438
14.498830
10.804534
7.840991
5.661845
4.965663
5.233884
3.858805
3.464818
4.484653
4.520416
5.039573
5.088449
5.465746
5.986691
7.034540
7.308722
8.332729
9.210706
11.904836
10.547638
12.068748
11.635423
14.924407
14.375448
14.165640
12.594461
12.895465
13.480783
13.200641
14.398694
13.242960
13.959408
13.413429
13.536811
13.041496
13.254881
13.761520
13.723969
13.135672
13.333559
12.741685
12.169480
13.674498
14.566779
11.853576
12.533665
12.139678
12.196898
11.933446
12.184978
11.548996
11.892915
10.754466
10.883808
10.975599
11.090636
11.235476
10.780692
12.305975
11.851788
15.427470
17.169714
18.855929
19.399524
19.898415
21.105409
19.938946
21.206737
18.535852
18.065572
17.246604
15.652776
13.577938
13.144612
10.277629
10.962486
8.588433
7.963777
8.074641
8.482933
7.561445
8.208752
9.287000
9.610653
12.933612
16.474724
23.806691
27.745962
39.457679
47.283769
61.364770
68.604946
79.205632
95.188618
105.345845
108.713508
112.381577
113.256574
109.898448
104.773641
100.249648
84.477663
76.036453
66.969991
54.912567
42.708516
##ZVALUE=220
125.742555
131.237507
124.265552
109.756589
93.325973
65.293908
50.818920
34.552813
27.025938
26.339889
25.297999
25.194883
22.183657
18.454790
14.866590
11.174679
9.098649
6.757975
5.796552
5.039573
5.209446
6.051660
5.481839
6.978512
7.522702
7.102489
8.229613
9.181499
10.454655
10.674000
11.519790
12.565851
12.973547
13.050437
13.225675
14.071465
14.799833
15.330911
14.777780
16.083717
15.316606
15.249848
17.019510
14.973879
14.772415
14.645457
15.991926
15.077591
17.186999
16.692877
15.604496
15.480518
15.961528
16.302466
15.041828
14.631748
15.128851
14.632940
13.655424
13.197660
14.918447
14.015436
12.912750
13.273954
12.744665
12.528896
11.722445
12.633801
12.210608
14.593601
16.230941
16.013980
17.739534
20.536780
21.152496
21.763444
20.567775
20.717978
20.441413
18.752813
16.965866
16.702414
14.615655
13.023615
11.193752
10.729432
9.891987
8.310676
8.711815
8.378625
8.972883
8.842945
7.589459
8.435845
8.723736
9.199977
7.965565
9.445548
10.703802
14.123917
21.342635
27.778745
40.244460
53.089857
67.186952
80.108643
102.791786
125.834942
139.365792
160.747766
166.312456
175.668597
174.569488
176.733732
168.859959
154.654980
##ZVALUE=225
163.550973
172.149539
206.079483
223.940611
229.199529
200.665593
175.228715
120.850801
89.176893
61.662793
46.678782
39.324760
39.384961
39.138794
38.233995
33.494830
28.740764
21.198988
16.919971
10.208488
7.736683
5.984902
5.962849
6.677508
6.453991
7.196665
6.591678
7.098913
9.473562
8.724928
9.712577
10.458827
11.445880
12.449622
13.010502
14.347434
14.106631
14.013648
14.978647
15.270710
15.541911
16.669631
18.422604
18.329620
18.286705
17.658472
19.820929
16.854405
18.584728
19.265413
17.440915
18.024445
17.219782
17.791986
17.892718
17.782450
16.706586
16.757846
15.419722
16.877651
15.941858
16.332865
15.262961
14.133453
15.286803
14.085770
14.708638
14.895797
15.146732
16.632676
17.963648
18.207431
19.235611
19.845963
21.160841
21.708608
19.451976
19.610524
19.848943
19.175410
16.273856
14.672875
13.371706
13.479590
12.250543
10.462999
9.958744
9.609461
10.348558
10.417700
9.646416
9.265542
9.862781
9.602904
8.928776
9.627938
9.220839
9.489655
9.241700
8.819699
9.705424
9.638667
11.073947
12.144446
19.414425
27.563572
43.128729
61.553717
77.172518
103.622675
126.239657
153.492689
177.412629
212.515593
237.199664
257.539749
##ZVALUE=230
111.715794
117.492676
195.028782
255.491734
316.740870
367.860794
388.518572
357.096791
316.150784
230.695009
170.503855
101.577640
75.745583
63.399673
59.724450
60.418844
64.146519
57.584643
48.366785
40.631890
31.877756
22.152662
14.105439
10.697842
8.535981
7.900000
7.665753
8.585453
7.540584
8.333921
10.030866
10.459423
10.947585
10.066628
12.621880
12.747645
13.170838
13.894439
16.693473
17.517805
17.749667
18.438697
19.471645
19.698739
20.084977
20.454526
21.410584
19.029975
20.151734
19.424558
17.619729
19.274950
19.188523
18.607974
18.814802
18.878579
17.701983
17.633438
18.670559
17.441511
17.403960
17.923713
16.866922
15.991926
15.432835
14.855862
15.914440
16.025901
16.887784
18.787980
19.068718
21.688938
22.101998
23.074746
23.937821
21.961927
22.336841
21.256804
19.064546
17.986894
18.175840
16.331673
15.570521
14.981627
13.282895
13.074875
13.048649
13.109446
11.470914
11.732578
11.172891
11.135936
11.571646
10.213852
10.357499
10.624528
10.054708
10.116696
10.186434
10.238886
9.944439
10.394454
10.908842
10.727644
11.004806
12.234449
10.412931
11.606812
13.946891
21.227598
30.756593
51.072836
70.547462
103.384852
138.817430
182.136893
##ZVALUE=235
30.786991
32.880902
83.989501
144.526958
226.094723
356.788635
456.332564
565.238595
597.328544
583.638549
508.907437
377.568603
275.215507
171.425939
125.952959
90.004802
81.130862
85.764527
87.535977
86.643696
79.257488
70.983768
53.454638
39.604902
25.711656
19.409657
12.733936
9.735823
8.905530
9.775758
9.594560
10.163784
10.551810
12.582541
13.256669
12.876987
13.587475
15.054941
15.882850
16.439557
16.992688
17.906427
19.687414
20.139813
20.541549
19.297600
20.216703
21.234751
20.222664
19.932985
19.338727
19.411445
17.991662
19.352436
19.821525
18.046498
19.037724
18.130541
17.750859
18.608570
17.598867
19.343495
16.662478
17.674565
16.585588
15.810728
17.357469
18.236637
17.992854
19.835830
19.434690
21.472573
22.988915
23.925900
25.005937
23.534894
21.513700
22.924542
20.776987
18.021464
19.134879
17.735958
17.677546
16.082525
15.270710
13.566613
13.959408
13.485551
12.384653
12.905598
12.496710
13.221502
12.679696
12.786984
12.257695
11.621714
12.229681
11.477470
12.034774
12.296438
13.254881
10.583997
11.566877
12.043715
11.914968
12.370944
12.152791
11.534691
11.947751
12.608767
11.390448
12.978911
13.890862
16.262531
24.510622
41.502714
##ZVALUE=240
3.930926
3.209710
11.861920
32.158494
73.304772
170.898438
289.331675
485.009551
632.552505
799.350739
874.322653
871.793628
784.611702
617.835522
468.873978
291.706920
198.512673
132.790804
110.506415
108.866692
117.554665
121.131539
122.358799
105.974674
90.235472
66.015720
50.598979
37.001967
23.187995
17.439723
12.279749
12.625456
12.314916
11.944771
13.317466
13.293624
15.203953
15.388727
17.007589
16.389489
15.978813
18.230677
18.913746
19.064546
19.836426
21.164417
19.340515
19.641519
19.529462
20.549893
18.775463
20.224452
18.869638
19.956827
18.937588
18.189549
17.569661
18.122792
17.325878
17.851591
16.503930
16.651750
17.685890
18.229485
16.718507
16.815662
15.922785
18.593669
18.852949
19.537807
20.284653
22.840500
23.152828
23.321509
24.306774
25.302768
23.980737
22.090673
20.054579
20.298958
19.334555
18.745661
16.480684
16.796589
16.112924
15.096664
14.596581
15.094876
14.353991
13.847947
13.635755
13.701916
14.536977
14.692545
13.223886
14.285445
13.539791
14.494658
13.298988
13.047457
12.390614
13.417602
14.699697
14.354587
14.257431
13.562441
12.762547
13.556480
13.402700
14.645457
13.648868
12.670755
14.259815
14.186502
13.027787
13.320446
##ZVALUE=245
2.850890
2.544522
2.384782
3.097653
5.748868
23.893714
56.541562
148.188472
270.141959
469.745994
659.267902
887.909532
1006.909013
1016.001701
1001.845598
844.922662
682.860613
451.867580
305.680633
177.689791
125.345588
111.310482
114.840865
131.897926
135.683417
128.418803
116.033554
101.723671
78.421831
58.448911
38.733482
28.154850
18.211603
14.915466
14.045835
14.178753
13.810992
13.967752
14.527440
15.181899
15.964508
15.820861
17.050505
18.808842
16.899705
18.167496
17.976761
17.858744
18.992424
17.516613
16.286969
17.986894
16.871691
16.657710
16.506910
15.736818
16.131997
15.355945
15.557408
15.076995
14.788508
15.243888
15.388727
14.194846
15.041828
14.750957
15.296936
15.273690
17.354488
16.684532
19.153953
17.997622
18.898845
21.202564
21.477938
20.447969
19.996762
19.960999
18.484592
16.928911
16.440749
15.524626
15.610456
15.082955
14.267564
14.193654
12.409687
12.702942
12.801886
14.217496
12.461543
11.698604
12.569427
12.861490
13.356805
13.697743
13.198853
12.706518
12.878776
13.379455
12.071729
12.300611
12.837648
13.041496
14.327765
12.433529
12.326837
12.647510
11.572838
13.079643
12.651682
12.360811
12.709498
12.296438
12.387633
12.191534
##ZVALUE=250
2.302527
2.504587
2.221465
2.333522
2.676845
2.806783
4.089475
15.271902
40.859580
116.416812
227.972865
440.845490
641.816854
899.107456
1016.001701
1016.001701
1016.001701
1010.237932
864.959955
590.059757
401.576757
227.367878
144.968629
107.626915
110.553503
126.239657
139.404535
141.844749
139.623880
126.401782
104.035735
84.163547
59.270859
42.233467
26.804805
22.020936
15.844703
15.224814
15.232563
14.405847
15.783906
15.216470
14.648438
16.222596
16.175508
17.061830
16.835928
16.453862
16.608834
16.187429
16.172528
16.497970
16.406775
16.246438
15.386939
15.860796
14.990568
14.700890
14.718771
13.824701
15.013814
14.573932
13.197660
13.187528
14.320612
13.566613
13.457537
13.779998
12.960434
15.105605
16.131997
16.792417
17.224550
17.243624
18.408895
19.592643
17.298460
16.650558
15.774965
15.935898
14.280677
13.111830
13.829470
11.893511
12.006760
12.137890
10.805726
11.735559
11.137724
10.399818
11.402965
11.542439
11.172891
11.679530
11.392832
10.889769
10.643601
10.516644
10.961890
11.173487
11.282563
11.495948
11.600852
10.773540
11.547804
12.025833
11.933446
11.909604
12.312531
11.759996
12.081861
12.119412
10.964870
11.282563
12.224913
11.207461
##ZVALUE=255
1.855493
1.933575
1.803637
1.948476
1.990795
2.397895
2.501607
2.540946
2.906919
8.220673
26.637912
88.414550
179.133415
377.554893
577.611923
877.208710
1016.001701
1016.001701
1016.001701
1016.001701
1016.001701
812.357664
576.667786
316.833854
197.401643
112.958550
98.361969
105.981827
131.218433
144.580603
155.030489
150.738955
135.062933
118.181705
86.169839
65.340996
44.241548
33.245683
22.374988
18.651485
17.613769
17.726421
17.159581
17.377734
16.519427
17.662644
17.419457
17.519593
17.699599
17.820597
17.151833
15.928745
16.442537
16.280413
15.907884
16.279817
14.595985
15.412569
14.531612
13.928413
14.120936
13.908744
14.383793
13.261437
13.752580
13.036728
11.898875
12.926459
13.674498
13.061762
14.305711
14.247894
15.321970
15.377998
15.738606
15.480518
15.348792
14.083982
13.554692
13.617873
11.980534
12.417436
11.770725
10.180473
10.109544
10.826588
10.221601
9.792447
10.313988
10.193586
8.909702
9.884834
10.591745
10.418892
9.683967
8.834600
8.937716
9.385943
10.049939
9.538531
9.405613
9.885430
10.024905
9.967685
10.437965
10.230541
10.427833
10.656714
10.376573
10.950565
10.679960
11.119843
11.380911
10.535717
11.367798
10.327697
##ZVALUE=260
1.847744
1.652837
2.080798
1.436472
1.443624
1.946688
1.697540
2.244711
2.428889
2.530813
2.882481
4.398823
14.147758
60.094595
130.488873
302.698612
497.781634
817.794800
1016.001701
1016.001701
1016.001701
1016.001701
1016.001701
999.721885
767.462850
448.763967
285.176635
149.853826
102.756619
92.263818
112.966895
134.425759
154.600739
160.910487
156.108737
145.727992
120.759606
98.056793
69.061518
50.854683
38.150549
26.125908
23.855567
21.042824
19.468665
19.140840
19.777417
20.631552
20.735860
19.954443
19.490719
18.706918
17.931461
18.570423
18.064976
17.167926
17.228723
16.283989
15.371442
15.129447
14.750957
14.790893
13.533831
13.761520
12.798905
12.619495
13.344884
12.554526
13.142824
13.042688
13.417602
14.044642
14.162660
14.683604
14.564991
14.156699
13.672709
12.828708
12.362599
12.231469
11.300445
11.008978
9.769797
10.044575
10.108948
10.738969
9.239912
9.378791
9.217858
9.494424
9.427667
8.924603
9.084940
8.918643
9.113550
9.410977
9.064674
9.204745
9.589791
8.982420
9.152889
9.537935
9.954572
10.272861
9.522438
9.375811
10.113716
9.699464
10.477901
10.041595
9.929538
9.866953
9.742975
10.679960
9.967685
10.014772
##ZVALUE=265
1.634955
1.305938
1.680851
1.623631
1.566410
1.684427
1.622438
1.829863
1.901984
1.969934
2.308488
2.488494
2.252460
3.172755
7.276535
37.625432
92.736483
236.197710
413.401723
770.219564
1016.001701
1016.001701
1016.001701
1016.001701
1016.001701
1016.001701
972.509384
693.379641
380.322933
227.891803
118.259788
86.182952
95.568895
118.118525
145.476460
161.597729
169.341564
165.546536
145.236850
125.145912
97.738504
74.170828
53.871870
40.467978
29.560924
27.091503
24.122000
24.114847
22.975802
22.696853
22.452474
21.261573
21.610856
19.865632
19.701719
19.802451
18.648505
17.829537
16.861558
17.353892
16.348958
14.792681
15.050769
14.994740
14.599562
14.293790
13.869405
13.378859
13.054609
13.536811
14.627576
13.823509
14.686584
14.010668
13.821721
13.942719
12.609959
12.092590
11.800528
11.650920
10.180473
10.496974
9.917617
9.243488
8.306503
8.127689
9.169579
8.744597
8.780956
8.342862
8.520484
8.870959
8.808970
8.612871
8.622408
8.404851
8.105636
8.544922
8.923411
9.121895
8.708835
8.914471
8.615851
9.127855
8.405447
9.049773
9.386539
9.299517
9.369850
9.669662
9.767413
9.517670
9.348989
9.367466
9.376407
8.732677
##ZVALUE=270
1.371503
1.375675
1.506805
1.403689
1.344681
1.457930
1.620650
1.394749
1.624823
1.847744
1.759529
1.856685
2.170801
2.281666
2.397895
2.601743
3.884435
17.560720
55.011511
166.221857
321.273804
631.870031
937.510729
1016.001701
1016.001701
1016.001701
1016.001701
1016.001701
1016.001701
930.836797
555.129051
344.447494
165.326595
94.743967
78.219771
92.881918
123.593807
147.204995
170.846581
176.422000
173.237920
153.735876
135.381818
103.894472
81.843734
56.085587
43.549538
34.047961
29.636621
27.087927
24.844408
24.869442
24.796724
23.798943
22.187829
22.048950
21.068454
20.283461
18.950701
18.500686
17.747879
16.734600
15.692711
15.541911
14.694929
14.822483
14.697909
14.569759
13.496876
13.936758
13.988614
13.592839
13.935566
14.494658
14.478564
13.835430
13.008714
11.271834
12.798905
11.168718
11.152625
10.461807
9.791851
9.317994
9.275675
9.380579
8.032918
8.818507
8.716583
8.554459
8.562803
8.544922
8.039474
8.444786
7.996559
8.333921
7.968545
8.376837
8.561611
9.061694
8.387566
8.706450
8.921623
9.109974
9.081960
8.924603
9.187460
8.816719
9.302497
8.713603
8.988976
9.156466
8.829832
8.656979
9.213686
8.343458
##ZVALUE=275
1.233816
1.366735
1.316667
1.530647
1.201630
1.327991
1.300573
1.442432
1.653433
1.519918
1.638532
1.700521
1.610518
1.816750
2.094507
2.150536
2.470613
2.312660
2.734661
9.584427
37.183762
127.497911
263.023973
557.510853
851.297975
1016.001701
1016.001701
1016.001701
1016.001701
1016.001701
1016.001701
1016.001701
737.549663
460.695624
214.539766
119.537711
69.693923
72.625875
99.946856
126.268864
151.647925
169.692636
178.372860
176.424980
154.031515
135.449767
103.637576
83.871484
59.466958
46.214461
34.626722
30.418634
25.783777
23.985505
23.495555
22.452474
22.397637
21.331906
20.275712
19.762516
18.687844
17.922521
16.998649
16.080737
16.037822
15.707612
14.249682
14.967918
14.050603
13.743639
14.525652
14.522672
14.606714
14.451742
14.655590
13.511777
13.008714
12.399554
11.489987
11.417866
11.081696
10.560751
9.492636
9.097457
8.928776
8.730888
8.588433
8.344650
7.887483
8.252859
8.035898
7.747412
7.798672
8.028746
8.072853
8.074641
8.000731
8.118749
7.898808
8.366704
8.375645
7.839799
7.733703
7.844567
7.855892
8.577704
8.130670
8.307695
8.477569
8.529425
9.069443
8.621812
8.539557
8.146763
8.774996
8.421540
##ZVALUE=280
1.322627
1.232624
1.077652
1.233816
1.149774
1.212955
1.328588
1.325607
1.345873
1.437664
1.459718
1.477599
1.783967
1.549721
1.535416
1.826882
1.737475
2.087951
2.193451
2.604723
2.617836
5.464554
28.546453
91.215968
252.925754
442.107916
774.213672
1016.001701
1016.001701
1016.001701
1016.001701
1016.001701
1016.001701
1016.001701
921.180844
620.374680
314.549804
171.715617
78.115463
59.571862
74.103475
94.047785
125.197768
147.499442
166.772604
174.789429
165.275931
151.919723
125.514865
102.729797
73.603988
57.966709
39.958954
31.872988
25.462508
22.818446
20.148754
19.342899
19.214749
18.453598
17.590523
17.214417
16.638637
16.375780
15.224814
15.523434
14.428496
14.362931
13.931990
14.114976
14.469624
14.306903
13.910532
13.814569
13.607740
13.857484
12.700558
12.682676
11.663437
10.784864
10.644794
10.025501
9.913445
9.699464
9.525418
8.809566
9.056926
9.147525
8.522868
8.264780
8.541942
7.736683
8.139610
8.145571
7.862449
7.978678
7.819533
7.952452
7.444620
8.190870
7.732511
7.806420
8.581877
8.472800
7.872581
8.301735
8.180737
8.771420
8.061528
8.596778
8.528829
8.155704
7.976890
7.890463
7.835627
7.736683
##ZVALUE=285
0.945926
1.021624
1.202822
1.213551
1.241565
1.174808
1.302958
1.163483
1.277924
1.335740
1.389980
1.460910
1.288652
1.618862
1.549721
1.449585
1.592636
1.683831
1.857877
2.155900
2.166629
2.280474
2.946854
3.411770
10.005832
60.898662
142.913461
278.246403
580.541492
889.000893
1016.001701
1016.001701
1016.001701
1016.001701
1016.001701
1016.001701
1016.001701
860.822797
466.510653
266.716480
139.642954
60.150623
49.051642
65.471530
85.876584
116.936564
136.771798
156.775713
162.138939
160.990953
143.357515
126.558542
96.263885
73.917508
50.560832
36.649704
24.932623
20.097494
17.089844
15.625954
15.656948
14.840961
14.204979
13.913512
13.357997
13.711452
13.907552
12.599826
12.609959
13.101697
12.882948
13.513565
13.108850
13.194680
13.327599
12.195706
11.996627
12.344718
10.754466
10.492802
9.850860
9.897947
9.545684
9.377599
9.091496
9.064674
8.584857
8.497834
8.653998
8.466840
8.312464
8.324981
7.701516
7.788539
7.878542
7.739663
7.576942
7.725954
7.646680
8.155704
7.877946
7.945895
7.664561
8.166432
7.895827
7.914901
7.939935
8.151531
8.106828
7.957816
8.012652
7.816553
7.711649
7.432699
7.270575
7.707477
##ZVALUE=290
1.002550
1.064539
0.975728
0.987649
1.137853
1.224875
1.240969
1.163483
1.106858
1.274943
1.383424
1.176596
1.156926
1.312494
1.247525
1.381636
1.436472
1.564622
1.639724
1.899600
2.027750
2.146959
2.249479
2.478957
2.567768
3.182888
4.100800
16.574860
86.618662
198.684931
453.353524
731.570721
1016.001701
1016.001701
1016.001701
1016.001701
1016.001701
1016.001701
1016.001701
993.188024
598.426461
354.182720
149.490833
72.057843
35.351515
38.740635
57.370663
77.138543
104.494691
125.007629
143.561959
151.890516
148.352981
137.392879
115.863681
93.048811
63.977838
48.056841
31.096935
22.783875
16.070604
13.381839
11.789799
11.311769
11.168718
11.037588
11.564493
11.395812
11.622906
11.568666
12.259483
11.917949
12.294650
12.037754
11.666417
11.776686
10.918975
10.918975
10.295510
9.898543
9.672642
9.440780
8.878708
8.775592
8.670688
8.599758
8.908510
8.486509
8.298755
7.890463
8.232594
8.137822
7.537603
7.805824
7.829666
7.957816
7.630587
7.801652
7.252693
7.386804
7.633567
7.546544
7.794499
7.568598
7.799864
7.483959
7.630587
7.686615
7.571578
7.889867
7.795691
7.385612
7.736683
7.422566
7.578731
7.221699
##ZVALUE=295
1.022816
0.987649
0.996590
0.982881
0.797510
0.982881
1.049638
1.061559
1.170635
1.170635
1.111627
1.136661
1.229644
1.057982
1.173615
1.271963
1.102686
1.513958
1.445413
1.631975
1.642704
1.787543
1.991987
1.899600
2.005696
2.482533
2.723932
2.966523
3.347993
6.949902
46.482682
130.439997
343.074799
610.381961
1016.001701
1016.001701
1016.001701
1016.001701
1016.001701
1016.001701
1016.001701
1016.001701
815.019608
424.775481
229.637623
80.960989
38.112998
26.613474
32.997727
47.352910
71.609616
92.292428
118.161440
132.070780
142.151713
139.744878
125.774741
107.870698
83.284974
65.106750
42.482615
29.845834
19.329786
14.279485
10.986924
10.525584
9.915829
9.540915
9.915829
9.911656
10.824800
10.674000
10.796785
11.568666
10.843873
10.714531
10.467768
9.718537
10.175705
9.423494
9.048581
9.238720
8.885860
8.574724
8.506775
8.277893
8.033514
8.206964
8.119941
8.070469
7.780790
7.907748
7.424951
7.612705
7.855892
7.667542
7.621646
7.365942
7.625818
7.618666
7.567406
7.189512
7.376671
7.059574
7.205606
7.697940
7.959604
7.808805
7.789731
7.417798
7.327795
7.644892
7.487535
7.358789
6.892681
7.130504
##ZVALUE=300
1.039505
0.947714
1.015663
1.025796
1.120567
1.056790
1.038909
0.942945
0.819564
1.141429
0.950694
1.037717
0.990629
1.122952
1.105666
1.260638
1.138449
1.236796
1.349449
1.429915
1.269579
1.395941
1.607537
1.713634
1.847744
2.079606
1.981854
2.082586
2.343655
2.680421
2.918839
3.620982
20.901561
77.156425
249.071717
458.145738
878.685713
1016.001701
1016.001701
1016.001701
1016.001701
1016.001701
1016.001701
1016.001701
968.473554
640.711784
322.870612
169.534683
59.059858
25.552511
22.074580
28.434992
45.879483
61.737895
88.019967
107.011795
126.706958
134.361982
133.120418
123.640895
104.001760
84.379911
60.151815
43.683648
27.684569
19.526482
13.029575
10.435581
9.574890
9.417534
9.332895
9.450912
10.113716
9.922981
9.701848
9.955764
9.937882
9.313822
9.240508
8.587837
8.680820
8.759499
8.422732
8.254647
8.553863
8.079410
8.379817
8.010864
8.223653
7.723570
8.120537
7.462502
7.490516
7.550716
7.364750
7.547736
7.320642
7.407665
7.492900
7.342696
7.407665
7.585883
7.603765
7.655621
7.535815
7.784963
7.472634
7.351637
7.816553
7.062554
6.980896
7.369518
6.779432
7.522702
6.906986
7.060766
##ZVALUE=305
0.933409
0.932813
1.006722
0.912547
0.872612
0.878572
0.802875
1.016855
0.906587
0.895858
1.142621
0.866652
1.045465
1.059771
0.914931
1.157522
1.146793
1.096725
1.186728
1.227856
1.296997
1.280904
1.428723
1.377463
1.579523
1.775622
1.696944
1.826882
2.008677
1.980662
2.482533
2.564788
2.750754
2.962947
8.977652
41.639805
166.753531
348.043442
719.767809
1011.560559
1016.001701
1016.001701
1016.001701
1016.001701
1016.001701
1016.001701
1016.001701
821.897984
426.063538
234.617591
87.896585
37.123561
16.611814
18.398762
27.715564
40.262938
62.219501
81.558824
102.655888
116.295815
127.480626
127.500892
114.365816
100.704432
77.685714
60.423613
39.641857
28.106570
17.167926
13.077855
10.003448
9.893775
9.385943
9.569526
9.251833
9.162426
8.815527
9.043813
8.559823
8.557439
8.265972
8.523464
8.337498
8.292794
8.280873
7.977486
7.697940
7.678866
7.530451
7.913709
7.851720
7.538795
7.416606
7.761717
7.268786
7.290840
7.125735
7.177591
7.352829
7.522702
7.338524
7.369518
7.457733
7.370710
7.332563
7.633567
7.359982
7.723570
7.433891
7.478595
7.402897
7.441640
7.284880
7.207990
6.902814
7.008910
##ZVALUE=310
0.813603
0.797510
0.866652
0.861883
0.774860
0.924468
0.972748
0.849962
1.051426
0.919700
0.726581
1.034737
0.998974
0.795722
0.952482
1.040697
0.928640
0.988841
1.107454
1.202822
1.064539
1.178980
1.205802
1.313686
1.213551
1.382828
1.624823
1.519918
1.537800
1.718998
1.866817
2.031922
2.029538
2.410412
2.708435
2.786517
3.811717
14.503598
85.661411
205.045938
480.705500
786.147714
1016.001701
1016.001701
1016.001701
1016.001701
1016.001701
1016.001701
1016.001701
999.504924
602.977872
359.632969
148.163438
65.800548
21.067858
13.962984
17.647743
23.783445
36.731958
52.041411
74.392557
91.626644
109.946728
119.516850
119.466782
112.922788
95.186830
80.105662
56.082606
40.855408
26.063919
18.970966
13.516545
10.667443
9.575486
9.125471
9.008646
8.385777
8.115768
8.090734
8.132458
7.988811
8.190870
7.928610
7.921457
8.342862
8.043647
7.809997
7.780790
7.837415
6.993413
7.570982
7.218719
7.623434
7.298589
7.486939
7.506609
7.486939
7.550716
7.211566
7.301569
7.390976
7.260442
7.263422
7.607937
7.272959
7.833838
7.492900
7.961988
7.734895
7.145405
7.497668
7.461905
7.150769
6.923676
7.153749
##ZVALUE=315
0.634789
0.749826
0.812411
0.790954
0.854731
0.850558
0.709891
0.786781
0.892878
0.943542
0.879765
0.695586
0.892878
0.952482
0.751615
0.908971
1.020432
0.948906
1.023412
0.926852
1.059771
1.096725
1.162887
1.091957
1.281500
1.325607
1.351833
1.403689
1.507998
1.592636
1.698732
1.610518
1.817942
2.018809
2.102852
2.236962
2.407432
2.655983
3.055930
5.861521
38.367510
113.947988
326.046944
572.161674
993.976593
1016.001701
1016.001701
1016.001701
1016.001701
1016.001701
1016.001701
1016.001701
760.837793
473.650694
216.854811
99.300742
27.695894
13.732910
12.738705
14.787912
23.012757
31.761527
49.778819
65.856576
87.222457
100.510716
112.195611
113.237500
104.333758
90.741515
70.498586
55.671930
38.057566
27.449727
17.588735
13.152957
9.881854
8.406639
7.542968
7.438660
7.741451
7.217526
7.648468
7.406473
7.567406
7.475615
7.380843
7.613897
7.144809
7.736683
7.479787
7.039905
7.138848
7.205606
7.242560
7.476807
7.226467
7.073879
7.295609
7.241964
7.281899
7.370710
7.358789
7.277727
7.575750
7.947683
7.408857
7.241964
7.410645
7.651448
7.451773
7.546544
7.179976
7.014871
7.025599
6.848574
##ZVALUE=320
0.631809
0.652671
0.730753
0.820756
0.638962
0.892878
0.889897
0.717640
0.881553
0.839829
0.832677
0.969768
0.900626
0.934601
0.825524
0.826716
0.906587
0.820756
0.786781
1.008511
1.005530
1.028776
1.032948
0.985861
1.072884
1.060963
1.088977
1.102686
1.363754
1.229644
1.486540
1.534820
1.571774
1.709461
1.608729
1.891851
1.880527
2.097487
2.407432
2.474785
2.734661
3.408790
15.118718
55.046678
193.846822
383.510590
750.396848
1016.001701
1016.001701
1016.001701
1016.001701
1016.001701
1016.001701
1016.001701
966.011882
628.899932
288.660526
148.949623
50.371885
19.802451
10.449886
10.946989
13.875961
18.998981
30.479431
42.495728
63.091516
78.531504
97.355843
105.477571
105.681419
100.929737
86.507797
72.492957
51.675439
38.700700
24.011731
16.647577
11.349916
9.334683
7.608533
7.482767
7.341504
6.765723
7.200837
7.050633
6.855726
7.026792
6.829500
7.299781
7.056594
6.997585
7.173419
7.137656
7.217526
7.057786
7.232428
7.276535
7.082820
7.051826
7.195473
7.282495
7.371902
7.276535
7.484555
7.343888
7.517934
7.572770
7.476807
7.601976
7.145405
7.349849
7.268786
7.049441
7.163882
7.016659
##ZVALUE=325
0.580549
0.699759
0.665784
0.675917
0.777841
0.609756
0.753999
0.657439
0.798702
0.796914
0.789762
0.729561
0.714660
0.717640
0.603795
0.703931
0.790954
0.778437
0.842810
0.960827
1.025796
0.964999
0.962615
0.871420
0.926852
1.116991
1.053810
1.079440
1.135468
1.315475
1.208782
1.306534
1.338720
1.298785
1.642704
1.592636
1.603961
1.680851
1.840591
2.026558
2.263784
2.027750
2.738833
3.110766
7.508993
30.216575
114.490986
247.192383
549.232960
860.652924
1016.001701
1016.001701
1016.001701
1016.001701
1016.001701
1016.001701
1016.001701
745.660067
392.158031
212.012529
75.195432
29.093623
10.585785
9.480715
10.270476
13.175607
19.173622
26.999712
44.702888
58.853626
79.056621
90.097785
99.622607
100.106597
91.081858
80.348849
63.700676
50.040483
32.802820
23.127794
14.450550
10.813475
8.437634
7.644892
7.021427
6.959438
6.840825
6.542802
6.917715
6.778836
6.941557
6.671548
6.724596
6.735921
6.841421
7.013679
6.656647
6.947517
7.134676
7.203817
7.023811
7.318854
7.158518
7.245541
7.165670
7.281899
7.430911
7.250905
7.474422
7.551908
7.783771
6.999969
7.301569
6.786585
6.833673
7.119775
##ZVALUE=330
0.618696
0.625849
0.708699
0.703931
0.547767
0.607967
0.713468
0.680685
0.830889
0.651479
0.767708
0.794530
0.625849
0.796914
0.713468
0.753999
0.926852
0.662804
0.887513
0.687838
0.778437
0.929832
0.800490
0.914931
0.976920
1.083612
1.085997
0.997782
1.066923
1.075864
1.058578
1.174808
1.215935
1.283884
1.340508
1.207590
1.269579
1.338720
1.528859
1.769662
1.712441
1.995564
1.937747
2.212524
2.467632
2.693534
3.997684
12.786984
64.444542
160.538554
394.444466
656.984448
1016.001701
1016.001701
1016.001701
1016.001701
1016.001701
1016.001701
1016.001701
929.358602
508.835912
286.023617
111.119747
46.940446
13.834834
9.352565
8.753538
9.221435
12.628436
18.179417
29.110909
39.247870
56.486726
71.467757
86.141825
92.544556
92.875957
86.996555
73.218942
61.125755
43.322444
32.109618
21.619797
15.769601
10.816455
8.634925
7.654428
6.886721
6.571412
6.233454
6.305575
6.706715
6.550550
6.503463
6.668568
6.244779
6.795526
6.703734
6.720424
6.831884
6.973743
7.009506
7.153749
6.803870
7.306933
7.233620
7.509589
7.053614
7.125735
7.224679
7.392764
7.510781
7.388592
7.237792
7.177591
6.866455
##ZVALUE=335
0.603795
0.602603
0.659823
0.462532
0.628829
0.777841
0.531673
0.767708
0.448823
0.466704
0.726581
0.659823
0.718832
0.621676
0.674725
0.569820
0.622869
0.759959
0.674725
0.822544
0.695586
0.910759
1.037717
0.738502
0.945926
0.732541
1.045465
1.179576
0.814795
0.879765
0.983477
0.883937
0.989437
1.142621
1.117587
1.026988
1.200438
1.258850
1.464486
1.414418
1.322627
1.523495
1.463890
1.788735
1.967549
1.955628
2.256632
2.400875
2.908707
6.146431
36.846399
99.855661
280.024409
498.110652
911.438465
1016.001701
1016.001701
1016.001701
1016.001701
1016.001701
1016.001701
1016.001701
628.491640
380.445719
160.691738
70.609450
19.670725
9.802580
8.226633
8.473992
9.586811
11.473894
17.160773
24.778843
38.547516
49.886703
66.419840
78.864694
86.658001
86.355805
81.051588
71.343780
56.153536
46.131611
31.081438
22.942424
15.181899
11.286736
8.409619
7.204413
6.463528
6.306767
6.418824
6.516576
6.148815
6.265640
6.638765
6.517768
6.749630
6.647706
6.907582
6.717443
7.122755
6.936789
7.221699
7.021427
7.174611
7.060766
7.330775
7.286668
7.454753
7.232428
7.440448
7.148981
6.885529
7.121563
##ZVALUE=340
0.623465
0.649691
0.554919
0.547767
0.628829
0.592470
0.617504
0.632405
0.630617
0.849962
0.725985
0.588894
0.642538
0.653863
0.742674
0.765920
0.595450
0.726581
0.640750
0.718832
0.721812
0.786781
0.813603
0.825524
0.815988
0.892878
0.785589
0.761747
0.768900
0.820756
0.893474
0.938773
0.952482
1.089573
1.161695
1.013875
1.265407
1.080632
1.069903
1.193881
1.245737
1.336932
1.377463
1.536608
1.488924
1.724958
1.860857
1.952648
2.022982
2.383590
2.521873
4.132986
14.110804
70.800781
171.865821
426.153541
709.090829
1016.001701
1016.001701
1016.001701
1016.001701
1016.001701
1016.001701
1016.001701
841.928720
444.492698
241.118670
85.625648
32.856464
10.967851
8.379817
8.209944
8.058548
9.161830
11.239648
16.848445
24.053454
36.065578
47.675967
63.588619
73.514581
80.650449
80.680847
75.171590
67.816973
54.487586
43.521523
31.799674
23.299456
14.713407
10.866523
8.285642
7.280707
6.610751
6.329417
6.531477
6.229877
6.501675
6.491542
6.405711
6.403923
6.707907
6.875992
7.011890
7.198453
6.853938
7.038713
6.832480
7.060766
7.374883
7.089972
7.173419
7.093549
7.131696
7.043481
7.142425
##ZVALUE=345
0.605583
0.680685
0.712872
0.548959
0.570416
0.506639
0.471473
0.666976
0.659823
0.562668
0.542998
0.780821
0.776649
0.701547
0.664592
0.708699
0.749826
0.680685
0.660419
0.530481
0.645518
0.779629
0.700951
0.800490
0.820756
0.810623
0.727773
0.768900
0.873804
0.789762
0.929832
0.942945
0.933409
0.904799
1.043677
1.003742
0.955462
1.041889
1.048446
1.148582
1.165867
1.074672
1.191497
1.155734
1.314878
1.312494
1.571774
1.527667
1.742840
1.919866
2.076626
2.154708
2.350807
2.586842
7.068515
29.463768
123.940706
257.790685
545.787811
842.751861
1016.001701
1016.001701
1016.001701
1016.001701
1016.001701
1016.001701
962.159634
638.834834
293.153524
141.111612
42.284727
16.986728
8.996725
7.981658
7.176995
7.511973
7.830858
9.708405
14.534593
20.796657
32.866597
43.225884
56.597590
65.236688
73.280931
75.612664
72.044730
64.726472
53.015947
43.532848
30.739903
22.977591
15.396476
11.142492
8.338690
7.085800
6.855726
6.430745
6.354451
6.409883
6.283522
6.521940
6.763935
6.698966
6.772876
6.981492
6.779432
7.028580
6.982684
6.991625
7.258654
7.101893
7.055998
6.993413
6.947517
6.878972
##ZVALUE=350
0.638962
0.548959
0.561476
0.487566
0.629425
0.574589
0.591874
0.449419
0.636578
0.615716
0.797510
0.617504
0.664592
0.676513
0.802875
0.563860
0.692606
0.745654
0.657439
0.757575
0.792742
0.747442
0.747442
0.650883
0.560880
0.773668
0.751615
0.744462
0.797510
0.977516
0.849962
0.991821
0.858903
0.877976
0.912547
0.937581
0.836849
0.940561
0.810623
0.976920
1.141429
1.095533
1.140833
1.138449
1.205802
1.238585
1.303554
1.213551
1.463890
1.590848
1.601577
1.674891
1.726747
2.072453
2.092719
2.395511
3.992915
14.371872
69.298744
160.449743
390.703678
653.206706
1016.001701
1016.001701
1016.001701
1016.001701
1016.001701
1016.001701
996.512771
709.269643
374.617577
200.767517
66.164732
24.779439
9.420514
7.478595
6.672740
6.484985
6.466508
7.008910
9.340644
13.040900
19.768476
27.181506
39.146543
48.719645
60.159564
66.064596
68.547726
66.290498
59.126616
51.397681
38.616657
30.495524
20.749569
15.751719
10.769963
8.988976
7.462502
7.096529
6.406903
6.432533
6.420612
6.524920
6.424785
6.500483
6.793737
7.110834
6.683469
6.875992
6.842613
6.758571
6.820560
6.720424
6.608963
6.510615
##ZVALUE=355
0.570416
0.402927
0.590682
0.602603
0.641942
0.734925
0.665784
0.552535
0.750422
0.773668
0.568628
0.845790
0.731945
0.649691
0.686646
0.562668
0.661612
0.547767
0.670552
0.696778
0.805855
0.751615
0.722408
0.733733
0.711679
0.793934
0.875592
0.792742
0.934601
0.927448
0.800490
0.936985
0.689626
0.940561
0.764728
0.716448
0.795722
0.909567
0.924468
1.122952
1.046658
0.933409
1.056790
1.166463
1.139641
1.148582
1.290441
1.280904
1.280904
1.366735
1.563430
1.417994
1.668930
1.671910
1.879930
2.177954
2.230406
2.150536
2.920628
6.526709
38.170815
103.220940
280.230045
498.178601
908.282995
1016.001701
1016.001701
1016.001701
1016.001701
1016.001701
1016.001701
849.539638
453.227758
248.623490
99.763870
40.098429
11.254549
7.637739
6.481409
6.398559
5.751848
6.220937
6.928444
7.963777
11.595488
16.235709
25.324821
32.901764
45.018792
52.500963
60.403943
62.282681
61.025620
55.828691
47.036409
39.532781
29.466748
22.693872
16.070604
12.152791
9.075999
7.686615
6.542802
6.630421
6.448627
6.312728
6.407499
6.475449
6.643534
6.621480
6.445646
6.645918
6.646514
6.438494
6.442666
6.074905
##ZVALUE=360
0.764728
0.576973
0.544786
0.628829
0.720620
0.507832
0.628829
0.609756
0.550747
0.702739
0.521541
0.516772
0.602603
0.747442
0.655651
0.732541
0.862479
0.815988
0.812411
0.654459
0.691414
0.834465
0.684857
0.675917
0.713468
0.753999
0.678897
0.823736
0.842810
1.068711
0.912547
0.903606
1.046658
0.852942
1.071692
0.968575
0.812411
1.002550
0.958443
1.095533
0.947714
1.112819
1.017451
1.054406
0.996590
1.217723
1.244545
1.134872
1.132488
1.355410
1.368523
1.487732
1.603961
1.461506
1.426935
1.747608
1.808405
2.058744
2.218485
2.349615
2.648830
3.586411
17.560720
54.923892
174.866915
340.724587
679.518580
980.484486
1016.001701
1016.001701
1016.001701
1016.001701
1016.001701
990.129709
600.845814
356.828570
141.181946
57.844520
14.718771
7.847548
6.676912
6.171465
5.820990
5.675554
5.638599
5.972981
7.190704
9.255409
14.139414
19.872785
29.557943
37.030578
46.226978
52.603483
55.895448
56.879520
53.840876
47.727823
38.809776
31.521916
22.468567
17.172694
12.177825
9.778738
7.486939
7.024407
6.568432
6.300807
6.291866
6.147623
6.173849
6.080866
6.001592
6.038547
6.091595
5.688667
##ZVALUE=365
0.526905
0.510812
0.775456
0.535846
0.589490
0.484586
0.629425
0.657439
0.633597
0.673532
0.661612
0.762939
0.720620
0.766516
0.695586
0.739694
0.611544
0.549555
0.622869
0.619888
0.672936
0.719428
0.711679
0.609756
0.764728
0.712872
0.745654
0.701547
0.862479
0.687838
0.905991
0.781417
0.881553
0.927448
0.886917
0.942945
0.959635
0.882745
0.936985
0.986457
0.888705
1.010895
0.917912
1.054406
1.035929
1.086593
1.095533
1.126528
1.006722
1.202822
1.123548
1.283884
1.355410
1.416802
1.552701
1.587868
1.519918
1.707673
1.887679
1.898408
1.982450
2.241731
2.617836
2.794862
7.432699
27.214885
107.326508
233.594775
537.391901
849.657655
1016.001701
1016.001701
1016.001701
1016.001701
1016.001701
1016.001701
738.318563
450.361967
197.323561
90.176463
24.125576
9.563565
6.306767
6.102920
5.662441
5.327463
5.135536
5.031824
5.568862
5.869865
8.162856
11.235476
17.074943
23.065805
32.832623
39.745569
46.484470
50.884485
52.634478
50.601959
44.958591
39.240718
30.684471
24.526715
17.420650
13.443828
9.543896
7.521510
6.906986
6.391406
5.862713
5.786419
5.845428
5.557537
5.560517
5.442500
##ZVALUE=370
0.593662
0.602603
0.512600
0.589490
0.576973
0.599623
0.574589
0.588894
0.583529
0.703931
0.621676
0.633597
0.552535
0.702739
0.686646
0.500679
0.479817
0.562668
0.692606
0.757575
0.708699
0.652671
0.540614
0.625849
0.605583
0.695586
0.664592
0.716448
0.817776
0.636578
0.811815
0.706911
0.763535
0.717640
0.769496
0.846982
0.866652
0.827909
0.798702
0.973940
0.850558
0.894666
0.853539
0.896454
1.091957
1.036525
1.034737
0.955462
1.037717
1.017451
0.998974
0.976920
1.130700
1.123548
1.345873
1.150966
1.241565
1.343489
1.550913
1.542568
1.523495
1.680851
1.875758
1.973510
2.163649
2.569556
4.233718
15.023947
77.030659
183.630586
435.400605
693.132877
1016.001701
1016.001701
1016.001701
1016.001701
1016.001701
1016.001701
828.912854
535.677671
248.025656
125.766993
43.653846
16.597509
6.490946
5.675554
5.385876
5.160570
5.200505
4.722476
4.861951
5.084872
6.077886
7.260442
10.779500
14.587641
20.791888
27.628541
36.110878
42.155981
47.683716
49.744844
48.781633
44.681430
37.750602
31.676888
24.042726
17.285943
13.247728
9.906888
8.148551
6.601810
6.035566
5.540848
5.294681
5.005598
##ZVALUE=375
0.456572
0.612736
0.642538
0.583529
0.639558
0.574589
0.495911
0.566840
0.499487
0.461936
0.499487
0.625849
0.640750
0.594854
0.748634
0.654459
0.587702
0.741482
0.594854
0.563860
0.604987
0.563860
0.629425
0.704527
0.647902
0.570416
0.689626
0.484586
0.656843
0.751615
0.641942
0.620484
0.752807
0.711679
0.693798
0.874996
0.700951
0.798702
0.794530
0.951886
0.838637
0.881553
0.889897
0.995994
0.898838
0.738502
0.914931
0.806451
0.935793
0.813603
0.931621
0.838637
0.924468
0.968575
1.051426
1.013875
1.227856
1.007915
1.033545
1.177788
1.369715
1.444817
1.561642
1.551509
1.563430
1.667738
2.120733
2.283454
2.946854
7.715821
44.091940
110.834837
283.677578
506.101847
900.429487
1016.001701
1016.001701
1016.001701
1016.001701
1016.001701
978.827477
693.890452
381.757617
212.252736
78.723431
30.576587
8.406639
5.828738
5.380511
5.233884
4.711747
4.784465
4.557967
4.448891
4.795790
4.978776
6.428957
8.335710
12.409687
16.770959
24.391413
30.276775
38.278699
42.742491
46.503544
46.658516
43.393970
37.808418
32.531619
25.660992
20.788908
14.877915
11.288524
8.209944
6.728768
5.866885
##ZVALUE=380
0.499487
0.484586
0.358820
0.510812
0.459552
0.502467
0.526905
0.663996
0.444651
0.353456
0.456572
0.446439
0.596642
0.591874
0.628829
0.600815
0.465512
0.510812
0.522733
0.561476
0.503659
0.581741
0.674725
0.681877
0.645518
0.749826
0.755787
0.672936
0.635982
0.724792
0.706911
0.716448
0.738502
0.719428
0.873804
0.958443
0.764728
0.791550
0.874996
0.839829
0.962615
0.913739
0.807643
0.820756
0.890493
0.857711
0.913739
0.888705
1.053810
0.973940
1.098514
0.874996
0.917912
0.790954
0.978708
0.858903
1.008511
1.047850
0.952482
1.146793
1.041889
1.125932
1.319647
1.228452
1.358986
1.287460
1.610518
1.864433
2.160668
2.140999
2.567768
4.340410
22.026896
69.291592
209.864974
393.157601
765.209794
1016.001701
1016.001701
1016.001701
1016.001701
1016.001701
1016.001701
858.289003
503.687859
296.161771
120.869875
52.970648
13.514757
6.112456
5.023479
5.059838
4.962683
4.784465
4.594922
4.652739
4.396439
4.391670
4.647970
5.577803
7.768869
10.355711
15.382767
20.173788
28.358698
36.425591
40.787458
43.629408
44.332743
41.940808
38.475990
32.663941
27.608871
20.667911
15.634894
10.841489
##ZVALUE=385
0.433922
0.434518
0.550747
0.476837
0.484586
0.661612
0.454783
0.593662
0.483990
0.667572
0.526905
0.505447
0.394583
0.467896
0.543594
0.442863
0.452995
0.481606
0.386834
0.528693
0.565648
0.505447
0.599623
0.547767
0.610948
0.554919
0.826716
0.762939
0.729561
0.903606
0.617504
0.943542
0.634789
0.903606
0.800490
0.832677
1.017451
0.974536
1.001954
0.947714
0.976920
1.059771
0.960827
0.914931
1.093745
0.801682
0.923872
0.938773
0.793934
0.882745
0.854731
0.978708
0.729561
0.849962
0.828505
0.984669
1.041889
1.143813
1.000762
1.037717
1.111627
1.023412
1.079440
1.192689
1.163483
1.234412
1.447797
1.384616
1.732707
1.842976
2.202988
2.081990
2.400875
2.757907
10.112524
35.815835
132.947564
285.347700
596.647859
900.256634
1016.001701
1016.001701
1016.001701
1016.001701
1016.001701
993.320942
643.349886
410.737991
189.192891
91.199875
28.842688
9.487867
5.296469
4.618764
4.797578
4.621744
4.419684
4.181862
4.208684
4.260540
4.292727
4.210472
5.109906
6.330609
8.978844
12.497902
18.109679
24.524927
29.383898
35.509467
38.884878
41.066408
40.512681
36.888719
33.086538
26.326776
##ZVALUE=390
0.387430
0.355840
0.584722
0.389814
0.482798
0.477433
0.459552
0.351667
0.417829
0.530481
0.492930
0.617504
0.519753
0.503659
0.439882
0.530481
0.588894
0.492930
0.534654
0.508428
0.661612
0.324845
0.565648
0.475645
0.566840
0.686646
0.734925
0.733733
0.731945
0.904799
0.941753
0.868440
0.828505
0.941753
0.904799
0.907779
0.955462
1.084805
1.042485
1.033545
1.062751
0.898838
1.082420
0.911951
0.921488
1.014471
1.128912
0.929832
1.172423
0.969768
0.845790
0.982881
0.920892
0.894666
0.967979
1.021624
0.861883
0.983477
0.865459
1.167655
1.094937
1.074672
1.176000
0.996590
1.109838
1.264811
1.394749
1.388788
1.552701
1.728535
1.919866
2.055764
2.193451
2.085567
2.094507
2.453923
4.764795
20.145774
94.279647
216.332674
498.552918
780.419707
1016.001701
1016.001701
1016.001701
1016.001701
1016.001701
1016.001701
836.323500
561.236739
282.827020
143.138766
47.232509
16.488433
5.726814
5.270839
4.714727
4.753470
4.732609
4.789829
4.531741
4.413724
4.327893
4.300475
4.214644
4.770756
5.879998
8.260608
10.963678
14.615655
20.344853
24.868846
31.665564
35.609603
38.358569
38.652420
##ZVALUE=395
0.537634
0.390410
0.470877
0.552535
0.459552
0.483990
0.403523
0.482798
0.527501
0.431538
0.365973
0.559688
0.408888
0.540614
0.418425
0.526905
0.614524
0.377893
0.591874
0.384450
0.506639
0.535846
0.382662
0.577569
0.659823
0.624657
0.803471
0.755787
0.706911
0.721812
0.869632
0.824928
0.901818
0.840425
1.010895
1.119971
0.979900
1.081824
0.940561
0.970960
1.097918
1.062751
1.031756
1.032948
1.145601
1.041889
1.042485
0.951886
1.046658
1.099706
0.959635
1.169443
1.040697
1.189709
1.124740
0.989437
0.978708
1.072884
0.956655
1.061559
1.024604
1.110435
1.051426
1.084805
1.164675
1.220703
1.231432
1.417994
1.582503
1.737475
1.827478
1.798868
1.822710
1.833439
1.851916
1.948476
2.035499
2.270937
3.194809
10.423660
60.591698
145.414472
343.662500
576.485991
968.860984
1016.001701
1016.001701
1016.001701
1016.001701
1016.001701
1002.621651
727.989674
380.361676
202.619433
72.220564
29.760599
8.491874
5.317926
4.706979
4.751682
4.722476
4.709959
4.607439
4.602671
4.730821
4.508495
4.497766
4.482865
4.660487
5.283952
6.800890
9.016991
12.788773
16.997457
23.199916
29.067993
##ZVALUE=400
0.640750
0.546575
0.504851
0.534654
0.486970
0.547767
0.467896
0.522733
0.439882
0.606775
0.469685
0.344515
0.462532
0.537634
0.516772
0.528693
0.450611
0.461936
0.492930
0.514984
0.457764
0.544786
0.612736
0.571609
0.718832
0.642538
0.533462
0.843406
0.850558
0.708699
0.918508
0.859499
0.897646
0.882745
0.957847
1.017451
0.929832
1.049638
1.085997
1.058578
1.261830
0.984669
1.086593
1.165867
1.165867
1.064539
1.097918
1.270771
0.932813
1.008511
0.975728
0.990629
1.030564
1.018643
1.183748
1.028776
1.142621
0.956655
0.990629
0.921488
1.030564
0.996590
1.126528
1.120567
1.070499
1.116991
1.429915
1.314878
1.602769
1.455545
1.637936
1.653433
1.701713
1.668930
1.705885
1.504421
1.641512
1.820922
2.194643
2.151728
2.499819
5.205870
28.657913
81.465840
233.908892
428.648591
798.179507
1016.001701
1016.001701
1016.001701
1016.001701
1016.001701
1016.001701
869.387984
499.525666
300.535560
130.049586
58.379769
15.527606
6.806850
4.889965
5.050898
4.971623
4.963875
5.153418
4.980564
4.866719
4.842877
4.587770
4.527569
4.318953
4.263520
4.701614
6.175637
7.650852
11.123419
##END
