##TITLE=7-2
##FORMAT=SPECTACLE-ASCII V-1.2
##DATA TYPE=ULTRAVIOLET SPECTRUM
##SECOND TYPE=ULTRAVIOLET SPECTRUM
##DATE=04/04/18
##TIME=13:36:30
##SPECTROMETER/DATA SYSTEM=SPECTACLE
##XUNITS=NM EM
##YUNITS=ENERGY
##YFACTOR=1
##FIRSTX=220
##LASTX=450
##NPOINTS=116
##3DDATA=Equidistant
##ZUNITS=NM EX
##FIRSTZ=210
##LASTZ=400
##ZPOINTS=39
##XYDATA=(Y..Y)
##ZVALUE=210
23.840666
21.001697
15.435815
14.344454
11.347532
11.270642
9.435415
8.596778
8.662939
6.800890
5.569458
3.741980
4.085898
4.763603
4.333854
3.988743
4.540682
5.037785
5.111694
5.734563
6.310940
6.112456
6.349683
7.285476
8.187890
8.861423
10.462999
10.263920
11.780858
12.599826
13.262630
13.828874
13.323426
14.705658
16.137958
14.827847
15.608668
15.030503
14.059544
15.318990
14.797449
15.601516
14.835000
14.784932
14.763474
15.778542
15.679598
14.598966
13.511777
14.265776
14.083982
14.521480
15.292764
14.361739
13.521910
15.318990
14.421940
12.916923
13.821721
13.960600
12.541413
13.356805
13.580918
14.603734
12.782812
13.984442
14.822483
16.262531
17.204881
19.676685
23.655891
25.456548
27.880669
33.470988
37.087798
35.901666
36.429763
35.239458
34.234524
32.913685
29.168725
27.812719
23.132563
20.928979
18.226504
16.453862
13.661981
13.572574
13.868809
14.257431
18.696785
23.683906
29.325485
36.732554
49.441457
54.915547
65.440536
71.469545
86.264610
88.478923
94.980001
95.439553
91.412663
85.657835
84.974766
82.023740
72.791576
66.043735
59.443712
49.677491
39.037466
30.257702
25.566816
20.119548
19.488931
18.447638
##ZVALUE=215
75.234771
74.355602
56.804419
42.819977
30.836463
22.866726
18.985868
17.253757
15.083551
16.184449
13.467669
11.392832
8.641481
7.398725
6.824732
5.267859
4.528761
5.329847
4.720688
6.034970
6.526709
6.470680
7.110834
7.443428
8.911490
9.300709
11.856556
11.009574
13.395548
13.371706
14.178753
14.913678
14.885664
13.888478
17.021894
15.743971
15.905499
15.435815
17.444491
16.801953
16.914606
16.960502
17.663836
17.114878
16.290545
16.396642
17.438531
16.011596
15.673637
16.493797
16.370416
16.596913
17.550588
15.410781
15.652776
15.704632
16.296506
16.225576
16.492605
16.776919
15.344620
15.818477
16.008615
15.095472
15.515685
16.357899
16.991496
18.359423
18.988848
22.819638
26.239753
27.268529
32.382607
34.015775
34.876466
34.213662
36.839843
35.727620
32.843947
31.988621
29.292703
25.885701
23.419857
19.584894
17.651916
17.121434
14.390945
13.020635
12.408495
11.803508
11.845827
11.442900
13.731718
13.426542
19.842982
22.652745
31.474829
42.186975
53.768754
63.079000
88.464618
95.457435
113.881826
125.961900
134.285688
138.212442
148.740411
139.622688
138.863921
131.173730
126.198530
116.523504
101.784468
87.914467
71.624517
53.710938
##ZVALUE=220
166.753531
163.390636
158.948898
145.141482
121.255517
83.190799
61.740875
43.276548
29.762983
27.292967
26.400685
24.461746
23.567677
19.963980
17.148852
12.491941
10.414720
7.878542
7.333755
6.280541
7.629991
6.807446
7.893443
8.087754
9.407997
9.024739
10.380745
11.084676
11.435747
11.160970
13.657808
15.275478
15.130639
15.432835
18.257499
17.125607
16.454458
19.205809
20.073652
19.417405
19.210577
20.140409
18.920898
20.663738
19.587874
19.948483
20.114779
19.383430
20.648837
20.191669
20.528436
20.645857
20.127892
19.496679
19.669533
18.504858
18.703938
19.252896
19.870996
18.273592
20.042658
19.165874
17.685890
17.462969
18.130541
17.866492
16.562939
18.163919
19.340515
22.516847
26.673675
30.532479
28.989911
34.934878
36.680698
36.792755
39.178729
37.820935
35.166740
33.715963
30.803680
27.858615
25.369525
22.018552
18.385649
16.600490
14.281869
13.799667
13.664961
12.012720
13.302565
12.320876
13.140440
12.571812
11.818409
12.348890
12.384653
13.585687
15.491843
17.820597
28.059483
36.006570
51.278472
66.380501
87.375641
108.111501
128.979683
157.585740
178.322792
196.977854
208.895802
219.329000
225.894451
216.333866
213.564634
198.330879
##ZVALUE=225
204.245448
205.254555
250.610709
279.649496
283.784866
256.796479
216.522813
164.863467
117.601752
75.379610
54.446459
43.098927
39.251447
38.406849
38.294792
35.116673
29.244423
21.004677
17.948747
10.451674
10.166764
7.526875
8.014441
7.712841
8.463860
8.657575
10.306835
10.489821
11.860728
11.391640
12.112856
13.346672
14.805794
15.456676
15.581846
16.971827
17.012954
19.190907
18.751621
20.948648
19.875765
21.750927
20.781755
21.041632
21.280646
23.719668
21.568537
22.715926
22.292733
23.132563
22.386909
23.079515
22.379756
22.386909
20.910501
22.376776
21.722913
20.141602
22.698641
21.744967
20.845532
19.585490
19.102693
21.353960
19.739866
20.983815
19.066930
19.734502
21.128654
23.396611
26.253462
29.404759
31.528473
32.347441
33.440590
31.498671
31.032562
29.870868
29.302835
27.586818
25.075674
23.696423
22.044778
20.054579
17.302632
16.732812
15.305877
14.117956
14.462471
14.101863
14.806986
13.902783
13.136864
12.792945
12.540817
14.959574
12.635589
11.170506
12.698770
12.857914
12.543797
13.137460
15.234947
16.590953
23.585558
35.693645
50.943494
69.986582
92.548728
127.635598
154.418945
195.250511
228.784680
271.106958
299.643874
330.590606
##ZVALUE=230
137.897730
147.050619
240.615606
331.043601
409.690738
480.475426
497.182608
467.051864
406.900644
308.580399
221.401453
131.811500
92.139840
68.243742
62.393546
65.165758
61.462522
56.688786
52.602887
40.385723
30.876994
22.468567
17.161965
11.616945
10.563731
8.850694
9.666681
11.100769
10.521412
11.950731
12.610555
13.735890
14.523864
14.320612
16.320944
18.158555
18.386841
19.087791
20.091534
21.243691
22.226572
24.156570
23.927689
25.453568
23.142695
25.405884
24.198890
22.898912
22.938848
23.497939
24.272799
23.712516
24.510622
25.403500
23.545623
22.215843
23.438931
24.798512
22.390485
23.454428
23.275614
21.280646
19.958615
20.123720
20.708442
21.615624
22.210479
22.214651
24.053454
25.721788
28.964877
31.508803
31.012893
32.946467
35.209656
34.130812
33.494830
30.602813
29.219985
28.436780
26.470423
24.637580
21.857619
20.555854
18.807650
16.667843
16.869903
16.549826
16.034842
15.737414
15.422702
13.869405
13.732910
14.891624
13.667941
14.324784
13.276935
15.005469
14.963746
13.529658
14.272928
15.529990
14.235973
13.361573
14.500618
14.096498
12.711883
17.663836
19.883513
27.402639
40.918589
63.145757
88.352561
142.690539
183.307528
240.857005
##ZVALUE=235
35.672784
37.139654
98.134875
184.914470
297.770500
474.441648
627.136827
765.411854
823.118687
804.492831
728.978515
561.321974
409.814715
250.284672
173.844695
108.880997
88.630915
86.944699
93.901753
85.288882
82.419515
70.616603
56.588650
39.340854
29.115677
19.016862
14.866590
13.267994
11.575818
12.205839
12.595654
13.061762
14.599562
14.699697
15.202761
16.765594
17.016530
18.611550
21.115541
22.313595
22.398829
22.618771
22.996664
21.821856
23.178458
20.968914
23.684502
23.528934
26.577711
25.319457
25.470853
23.876429
24.126768
21.825433
23.663640
23.112893
23.091435
22.224784
22.701621
22.313595
21.681786
20.284653
21.548867
20.680428
22.986531
21.316409
21.904707
23.266673
23.967624
25.432706
28.710961
30.142665
31.201839
34.881830
37.446618
37.095547
35.225749
33.551455
31.870604
31.709671
27.665496
26.789904
24.410486
21.447539
20.617843
18.906593
18.752813
18.524528
18.356442
17.107725
18.551946
16.206503
16.645789
15.988946
16.510487
15.374422
16.223788
17.356873
17.070770
16.167760
17.029643
16.071796
14.692545
15.764832
15.877485
15.714765
16.215444
16.012788
15.459657
14.939904
16.501546
16.298890
18.212795
20.923615
32.672882
53.704977
##ZVALUE=240
3.489852
3.637671
13.803840
39.569736
89.934468
205.385685
354.560018
600.924492
823.647976
1000.818610
1016.001701
1016.001701
1016.001701
835.561752
645.976663
403.355956
272.996426
158.349872
119.362473
109.628439
115.773678
123.088956
123.248696
109.216571
85.764527
69.907904
50.985813
36.709905
25.262833
20.065904
15.712976
14.399886
13.894439
14.915466
16.122460
17.358661
17.444491
19.257665
20.795465
19.224882
20.152926
22.516847
22.406578
23.923516
22.576451
23.421645
24.684668
24.460554
25.982857
25.093555
24.840832
21.559000
24.038553
22.829771
24.025440
22.630692
22.175908
23.047924
23.699999
21.677613
22.693872
22.762418
25.202632
21.304488
19.921660
20.924807
21.001697
22.988915
25.133491
27.238727
27.638674
30.241609
32.474995
34.845471
36.911964
36.528707
34.987926
35.109520
32.113791
32.378435
28.222799
25.039911
25.526881
22.556782
22.461414
21.700859
20.996928
18.882751
19.684434
17.669797
17.572641
18.345714
17.653704
17.895699
17.296672
17.096996
16.518831
18.866658
17.336607
17.696619
18.164515
17.893910
17.359853
16.676784
16.703606
17.973781
16.511679
17.049909
15.908480
18.079877
16.228557
16.974807
15.751719
16.808510
17.333627
15.521646
##ZVALUE=245
3.091693
2.594590
3.621578
3.966689
6.027818
27.379990
62.969923
174.688697
313.767791
559.263825
791.133642
1016.001701
1016.001701
1016.001701
1016.001701
1016.001701
837.622881
567.466021
378.367901
205.729604
135.924816
112.582445
121.211410
131.622553
137.084723
129.194856
117.955804
102.165937
79.237819
61.889887
40.903687
30.628443
21.029711
18.395782
15.314817
16.087890
16.401410
14.982820
18.261671
19.565821
19.038916
19.444823
21.111965
19.733906
19.746423
20.641685
21.598935
20.010471
20.823479
20.011663
21.730661
20.000935
19.348860
21.160841
21.269917
18.778443
20.092726
18.576980
18.588901
19.311905
17.789602
19.062757
19.288659
18.545985
17.818809
18.750429
18.895864
20.686984
19.963980
22.643805
24.471879
24.075508
27.163625
28.349757
28.538704
28.474927
29.107928
26.159883
24.882555
22.433996
23.270845
20.354986
19.209981
18.420815
16.997457
16.052723
16.865730
16.358495
15.815496
16.638637
15.356541
15.769601
14.357567
15.286803
16.009808
14.830828
15.477538
14.207959
16.744733
15.201569
15.660524
15.955567
15.134811
15.574694
15.385747
14.436841
14.808774
16.322732
15.227795
16.055703
15.223622
14.529824
15.427470
16.059875
16.735792
15.713573
##ZVALUE=250
2.707839
2.044439
2.197623
2.734661
2.731681
2.760887
4.197955
18.134713
48.420429
137.082934
266.689658
533.374548
784.679651
1016.001701
1016.001701
1016.001701
1016.001701
1016.001701
1016.001701
738.172531
509.397984
274.663568
171.817541
110.141635
111.429691
131.982565
139.213800
145.945549
138.271451
127.193928
107.537508
85.760951
61.575770
44.776797
30.608773
21.202564
18.438697
15.996695
17.721653
16.787648
17.306805
18.086433
18.184781
19.469857
19.635558
19.380450
19.231439
18.678904
18.640757
18.976927
18.386841
19.708872
18.741488
18.729568
19.785762
18.124580
17.303824
18.822551
17.573833
16.308427
17.518997
17.099977
17.718673
17.086864
17.814636
16.047955
16.214848
18.691421
17.987490
19.432902
19.477606
20.701885
23.147464
22.823811
23.521781
25.274754
22.460818
21.013618
21.241903
19.412637
17.734766
17.468929
16.557574
15.722513
15.976429
14.288425
13.523698
13.924837
13.501644
13.936758
13.676882
13.037920
13.525486
13.511777
13.085604
12.962818
12.950897
12.425780
12.814999
14.204979
12.809634
13.970733
13.421774
12.989640
13.730526
13.040900
12.997985
14.641881
14.558434
13.772845
13.140440
13.261437
13.733506
13.684630
12.644529
12.739897
##ZVALUE=255
2.284646
1.729727
2.136827
2.297759
2.513528
2.318621
2.318621
2.707839
3.175735
9.410977
29.401779
101.073980
205.878615
447.300673
686.855912
1012.112498
1016.001701
1016.001701
1016.001701
1016.001701
1016.001701
988.347530
689.358711
417.266488
204.469562
129.053593
100.073814
110.825896
133.980513
150.136948
154.076815
151.937604
131.320953
113.234520
89.406967
67.661405
45.774579
33.717752
25.368929
21.008849
19.298792
19.582510
18.529892
19.554496
20.289421
18.484592
19.122958
19.468665
20.167828
18.297434
18.700957
19.731522
18.721819
18.635988
19.107461
18.139482
17.913580
17.899871
17.748475
16.322732
16.482472
17.441511
16.119480
15.900731
16.471744
15.546679
14.581680
15.523434
16.662478
17.052889
18.233657
18.182993
18.626451
19.162893
20.076632
19.546747
19.038916
18.453598
16.451478
16.709566
16.475916
15.080571
13.861656
13.112426
11.952519
12.702942
11.782646
10.978580
11.879802
11.632442
11.659861
11.091828
11.611581
11.534691
11.902452
12.419820
12.288690
11.523962
11.365414
11.598468
13.035536
12.073517
12.361407
12.017488
11.774898
11.799932
12.527704
13.356805
12.888908
13.243556
12.586713
11.503696
11.575818
12.941957
11.958480
11.042953
##ZVALUE=260
2.089739
1.984835
1.813769
2.078414
1.951456
2.192855
2.163649
2.031922
2.247691
2.402663
3.088713
5.033612
15.938878
65.599680
141.266584
342.092514
571.869612
962.134600
1016.001701
1016.001701
1016.001701
1016.001701
1016.001701
1016.001701
929.682851
544.312000
341.738462
235.288739
112.379789
95.511675
115.488768
137.130618
156.913996
162.162781
157.558918
146.886706
119.476914
99.367499
68.839788
54.146647
38.821697
30.995607
23.813844
23.114681
21.382570
21.725893
21.555424
22.017956
21.983981
20.746589
21.437407
21.389723
21.276474
20.287633
20.815730
20.119548
19.251704
18.528700
18.273592
17.769933
17.008781
16.771555
17.168522
16.125441
15.979409
15.120506
14.927983
14.875531
15.927553
16.757846
16.712546
17.652512
18.242598
17.441511
17.765760
17.986894
17.975569
16.422868
15.726686
14.398694
14.132857
13.816953
13.164878
12.063980
12.065768
11.426806
10.943413
10.731816
10.691881
10.916591
10.527968
9.827614
10.035634
10.873675
11.343956
10.522604
11.170506
10.309815
10.096431
11.050701
11.289716
10.810494
10.878444
11.925697
10.293722
10.827780
11.800528
11.680722
11.587739
11.236668
11.388659
11.452436
11.681914
11.437535
11.541843
11.710525
##ZVALUE=265
1.598597
1.715422
1.807809
1.780987
1.781583
1.758933
2.124906
1.754761
2.072453
2.314448
2.341866
2.413988
2.904534
3.482699
9.048581
42.609572
103.121996
266.817808
479.804873
904.096961
1016.001701
1016.001701
1016.001701
1016.001701
1016.001701
1016.001701
1016.001701
881.099701
502.719879
296.994448
142.133832
96.455812
95.189810
121.776462
146.865845
162.456632
170.177817
169.253945
149.534941
129.086971
99.798441
78.780651
56.650639
43.592453
33.198595
30.800700
27.443767
26.313663
26.801825
25.286674
25.858879
26.099682
25.510788
24.257898
24.010539
22.026896
22.399426
22.416711
22.415519
20.091534
19.508600
20.243526
18.968582
18.356442
18.204451
17.230511
16.588569
17.307997
16.177893
16.757846
17.257929
18.261671
18.145442
18.681884
19.135475
17.537475
17.006993
15.940666
14.939904
14.438629
13.651848
13.085604
12.036562
11.563897
11.760592
11.239648
10.790825
10.845661
10.803938
9.822845
10.499954
10.113716
10.732412
10.382533
10.016561
10.056496
9.790659
10.163784
9.950995
11.038780
10.697842
10.405779
10.667443
10.080934
11.023879
11.099577
10.532737
10.716915
10.523796
11.236668
10.807514
11.328459
10.543466
11.058450
10.766983
11.489987
##ZVALUE=270
1.585484
1.658797
1.581907
1.562834
1.802444
1.620650
1.702905
1.734495
1.773834
2.103448
1.736879
2.345443
2.326965
2.657771
2.609491
3.040433
4.248023
19.505620
61.260462
192.847848
374.093056
749.777555
1016.001701
1016.001701
1016.001701
1016.001701
1016.001701
1016.001701
1016.001701
1016.001701
706.768632
431.256890
206.427574
112.486482
82.551837
97.506642
129.628778
150.574446
174.602866
179.213881
174.344778
162.111521
135.247707
111.745596
83.130598
64.631701
48.735738
40.624738
33.704638
31.215549
30.094981
29.003620
27.799606
27.393699
26.703477
25.914907
25.789738
24.433732
23.452640
22.614598
21.518469
21.757483
20.352602
19.972920
18.935800
18.451810
18.517971
17.743707
18.086433
17.985702
18.092990
18.529892
19.075871
18.846989
18.302798
17.705560
16.439557
16.150475
14.681816
13.871789
13.277531
12.927651
11.997819
11.282563
10.789633
11.561513
10.208488
10.436773
10.223985
10.183454
9.901524
9.856820
9.990931
10.142922
9.583831
10.031462
10.053515
9.925961
9.486675
9.740591
10.264516
9.935498
10.138750
11.018515
10.387897
10.444522
10.749698
10.882616
10.245442
10.777712
10.690689
10.291934
10.550618
10.960698
10.734797
9.986758
##ZVALUE=275
1.472831
1.523495
1.330972
1.516938
1.521707
1.492500
1.647472
1.710653
1.551509
1.743436
1.883507
1.736879
2.012849
1.960993
2.315640
2.223849
2.780557
2.874732
2.931952
9.939671
34.980774
131.391883
280.125737
631.876588
970.037580
1016.001701
1016.001701
1016.001701
1016.001701
1016.001701
1016.001701
1016.001701
949.283838
579.985976
266.957879
141.517520
75.490475
77.226758
103.958845
128.010511
157.292485
173.257589
182.051659
175.874829
160.074830
138.780475
110.229850
86.490512
62.887669
49.675703
38.240552
32.984614
30.868649
28.775930
28.215647
26.809573
27.333498
25.420785
24.079680
23.838878
22.733808
22.021532
21.569729
19.728541
19.684434
19.534826
18.339753
17.348528
18.088818
17.949939
18.010736
17.833710
18.334985
17.675757
17.785430
16.842484
16.357899
15.214682
14.878511
14.332533
13.175607
12.980700
11.850595
12.128949
11.582971
10.987520
10.533929
9.891987
10.376573
9.858608
9.755492
9.429455
9.695888
9.203553
9.128451
9.090900
9.522438
9.412766
9.709597
9.677410
9.715557
9.939671
9.730458
10.347962
10.365844
10.328889
9.869933
10.137558
9.945631
10.023713
9.968877
9.750724
9.456873
10.331869
9.936690
9.142756
##ZVALUE=280
1.191497
1.106858
1.332760
1.441836
1.576543
1.244545
1.418591
1.425743
1.474619
1.752973
1.737475
1.673698
1.791716
1.701713
1.988411
1.981854
1.932979
2.376437
2.387762
2.699494
3.040433
5.181432
20.409822
95.795989
215.420723
496.882796
800.252557
1016.001701
1016.001701
1016.001701
1016.001701
1016.001701
1016.001701
1016.001701
1016.001701
725.452900
357.596874
185.008645
83.228946
63.331723
77.619553
99.084973
128.807425
150.241852
169.377923
177.893639
169.049501
156.108737
129.158497
106.025934
79.350471
61.210990
42.397976
34.495592
27.721524
24.741888
23.631454
22.746921
22.314787
21.442771
20.979643
19.746423
19.268990
18.744469
18.129945
18.347502
17.443895
17.604828
16.459823
16.358495
17.016530
17.301440
16.068816
16.782880
16.422868
15.716553
15.041828
15.507936
14.004707
12.975931
12.341738
12.151599
11.427999
11.091828
10.650754
10.934472
9.827614
10.097623
9.745955
9.746552
9.734631
9.194613
9.731650
9.716749
8.875728
9.784698
9.288788
9.351969
9.285808
9.116530
8.847713
9.383559
9.322762
9.675622
9.522438
9.148717
9.583831
9.616613
9.325743
9.659529
9.652972
8.971691
9.448528
8.919835
9.390712
8.901954
##ZVALUE=285
1.158714
1.205802
1.174808
1.163483
1.257658
1.316667
1.171827
1.422763
1.352429
1.262426
1.487732
1.572967
1.456738
1.482964
1.810789
1.671910
1.967549
1.874566
1.940727
2.158880
2.512932
2.727509
3.136992
3.984571
8.935928
50.587654
127.464533
263.302922
585.860610
941.893458
1016.001701
1016.001701
1016.001701
1016.001701
1016.001701
1016.001701
1016.001701
956.678987
502.128601
284.643769
119.139552
63.251853
51.519871
64.168572
92.825890
114.725828
141.259432
157.607794
164.397955
159.948468
144.740939
123.869777
98.093748
76.862574
54.330826
40.113926
27.195811
23.083687
19.826889
18.134713
17.758608
17.007589
16.891956
16.900897
16.320944
16.173720
15.815496
15.354753
15.609860
15.759468
16.149879
15.742779
15.841722
15.571713
15.675426
14.315844
14.206767
13.608932
13.313890
12.837648
11.459589
11.793971
11.146665
10.705590
10.195971
10.752678
10.198951
10.073781
9.873509
9.552836
9.248853
9.653568
8.991957
9.603500
8.681417
9.141564
9.201765
8.982420
9.222627
9.077787
9.137988
9.145737
9.026527
8.889437
9.130836
9.123683
9.078979
9.125471
9.372830
8.740425
8.948445
8.669496
8.801818
8.944869
8.295774
8.792877
##ZVALUE=290
1.084805
1.008511
1.215935
1.281500
1.186728
1.176596
1.218915
1.236796
1.223683
1.399517
1.484752
1.307726
1.338720
1.465678
1.623631
1.730919
1.761913
1.703501
1.916885
1.780987
2.046824
2.150536
2.327561
2.805591
3.013611
3.247857
4.327893
13.815761
68.855882
169.996619
422.372818
726.789832
1016.001701
1016.001701
1016.001701
1016.001701
1016.001701
1016.001701
1016.001701
1016.001701
711.154938
411.490798
171.785951
80.874562
38.733482
40.941834
59.034824
79.211593
108.333826
125.712752
146.531463
153.579712
151.083469
139.305592
115.932822
94.629526
65.618753
49.039721
32.265782
24.952888
18.443465
15.887618
14.502406
13.684630
13.390779
13.846755
13.390779
13.516545
13.963580
13.500452
14.139414
13.909936
14.418960
13.854504
14.108419
14.043450
13.296604
12.591481
12.052655
11.822581
11.221766
10.828972
10.511875
10.105968
10.147691
9.924769
9.646416
9.686947
9.578466
9.790659
9.051561
9.336472
8.674860
9.342432
8.660555
8.908510
9.049773
8.781552
9.156466
8.900762
8.708835
8.913875
9.271502
9.146929
9.105802
9.032488
8.674860
8.565784
9.000897
8.784533
8.498430
8.638501
8.021593
8.208752
8.250475
8.297563
##ZVALUE=295
1.062751
1.099706
1.158714
1.166463
1.174808
1.188517
0.982881
1.251698
1.145601
1.115799
1.111627
1.236796
1.169443
1.268983
1.421571
1.452565
1.593828
1.448989
1.727939
1.764894
1.913905
1.917481
2.034903
2.037883
2.119541
2.649426
2.818704
3.213882
3.358722
6.401539
35.877824
104.041696
295.080543
570.552945
1016.001701
1016.001701
1016.001701
1016.001701
1016.001701
1016.001701
1016.001701
1016.001701
934.737921
574.432015
250.911713
118.092895
42.922497
27.654767
36.506653
50.695539
73.942542
93.851686
119.291544
133.811831
143.355727
141.416788
128.317475
109.502673
84.024668
65.780878
44.960976
30.998588
19.690990
16.154647
12.954473
12.257695
11.431575
11.724830
11.421442
11.965632
12.491941
12.417436
12.753606
12.595654
13.008714
12.307763
12.118816
11.178851
11.204481
11.054873
10.828972
10.708570
10.082722
9.753704
9.889603
9.678602
9.619594
8.909702
9.472966
9.240508
8.872747
8.691549
9.157658
9.157658
8.719563
8.484721
8.798838
8.694530
8.438826
8.070469
8.535981
8.921623
8.647442
8.424520
8.517504
8.973479
8.485913
8.722544
8.535981
8.233786
8.546710
8.587837
8.788705
8.301735
8.165836
7.789731
##ZVALUE=300
0.868440
0.909567
1.109838
1.054406
1.056790
0.918508
0.954866
0.906587
1.127720
1.028776
1.076460
1.073480
1.166463
1.305938
1.063943
1.165867
1.257658
1.234412
1.364946
1.699924
1.482964
1.772642
1.687407
1.859665
2.016425
1.994967
2.369881
2.468824
2.609491
2.885461
3.504753
4.172921
17.265677
60.568452
207.443833
405.570865
844.153762
1016.001701
1016.001701
1016.001701
1016.001701
1016.001701
1016.001701
1016.001701
1016.001701
786.820650
388.069749
202.553868
68.750978
30.264854
22.932887
29.869676
46.166778
63.575506
89.501739
105.804801
128.099918
134.310722
134.905577
124.937892
104.540586
85.673928
61.132908
45.298934
29.174685
20.718575
14.685988
11.914968
10.597706
10.734797
11.225939
11.531711
11.469722
11.311769
11.340976
11.314750
10.959506
10.388494
10.144711
10.185838
10.208488
9.757876
9.922981
9.575486
9.574890
9.064674
9.259582
9.069443
8.737445
8.884668
8.594990
8.570552
8.895993
8.890629
8.643866
8.559823
8.395910
8.424520
8.156896
8.135438
8.496642
8.596778
8.400679
8.654594
8.451939
8.671880
8.074641
8.709431
8.623600
8.535981
8.614659
8.196831
8.543730
8.128881
8.236766
8.133650
##ZVALUE=305
0.989437
0.873804
0.947714
0.926852
0.897646
0.871420
1.213551
0.949502
1.075864
0.937581
1.214743
1.181960
1.026988
1.281500
1.211762
1.306534
1.214743
1.295805
1.338720
1.083612
1.370907
1.486540
1.503825
1.680851
1.531839
1.830459
2.152920
2.090931
2.174973
2.325773
2.673864
2.685785
3.128648
3.469586
8.605719
33.126473
134.655833
295.623541
666.659474
1009.039879
1016.001701
1016.001701
1016.001701
1016.001701
1016.001701
1016.001701
1016.001701
950.472951
584.460497
315.532684
116.229653
47.269464
18.704534
19.818544
29.174685
41.555762
62.130690
81.459880
104.618669
118.454695
128.150582
126.741529
116.408467
101.306438
78.551769
61.637759
40.697455
29.137731
18.792748
13.867617
11.905432
10.938644
11.090636
10.837913
10.549426
10.648966
10.320544
9.622574
9.601712
9.570718
9.303689
9.792447
9.391904
9.253621
8.934736
9.097457
8.828640
9.194613
9.020567
8.897781
8.873940
8.417964
8.518696
8.230805
8.647442
8.185506
8.356571
8.393526
8.504987
8.343458
8.578897
8.283854
8.966923
8.454919
8.682609
8.393526
8.379817
8.581877
8.280873
8.951426
8.258820
8.304715
8.449554
8.163452
8.085966
8.348823
##ZVALUE=310
0.780821
0.787973
0.967979
0.999570
0.790954
0.809431
0.997782
0.807643
0.870824
0.969768
0.922680
1.044869
0.983477
0.878572
1.009703
1.226664
1.225471
1.115799
1.319647
1.269579
1.205802
1.470447
1.224875
1.307726
1.483560
1.460910
1.729727
1.700521
1.858473
1.841784
2.087951
2.066493
2.431870
2.907515
2.894998
3.457665
4.315972
13.735890
73.811412
178.440809
442.343950
768.273473
1016.001701
1016.001701
1016.001701
1016.001701
1016.001701
1016.001701
1016.001701
1016.001701
749.683976
437.824726
180.457830
80.083013
24.060607
15.282631
18.203855
25.101900
38.863420
51.310658
75.319409
93.104839
110.805631
119.220614
120.227933
114.457607
96.453428
79.778433
56.054592
41.417480
27.147532
19.812584
14.636517
12.272596
10.459423
10.090470
9.301901
9.678602
8.884668
9.218454
8.889437
8.931756
8.791685
8.792877
8.644462
8.697510
8.648634
8.494854
8.692741
8.654594
8.633733
8.441806
8.256435
8.087754
7.998943
8.346438
8.112788
8.177757
8.155704
8.645654
8.228421
8.326769
8.403659
8.719563
8.236766
8.375645
8.462667
8.691549
8.253455
8.324981
8.107424
8.324981
8.567572
8.304715
7.998943
8.130670
##ZVALUE=315
0.618696
0.693798
0.817776
0.803471
0.818968
0.696778
0.944734
0.903606
0.868440
0.954866
0.877976
1.061559
0.935793
0.950694
1.002550
0.948906
1.076460
1.016855
1.142621
0.980496
1.144409
1.227856
1.125932
1.386404
1.118779
1.419783
1.569986
1.517534
1.655817
1.451969
1.658797
1.850724
2.198815
2.338886
2.260804
2.390742
3.050566
3.044605
4.794598
7.010698
38.268566
129.133463
439.360738
670.390725
1016.001701
1016.001701
1016.001701
1016.001701
1016.001701
1016.001701
1016.001701
1016.001701
707.106590
574.886799
127.137899
98.196864
17.024875
14.620423
13.775826
15.737414
32.770634
37.062764
49.892664
65.526962
87.561607
101.859570
112.208724
113.966465
105.025768
92.287660
71.372986
55.927634
40.104985
28.996468
18.342733
13.855696
10.861754
9.498000
8.818507
8.389950
8.641481
8.214712
8.111000
8.392930
8.256435
8.192658
8.175969
7.955432
8.347631
8.428693
8.129478
8.362532
7.998943
7.926822
8.035898
8.101463
7.900000
8.238554
8.115768
8.158684
8.194447
8.509755
8.119941
8.288622
8.481741
8.483529
8.419752
8.797646
8.451939
8.507967
8.383989
8.448958
8.357763
8.489490
8.585453
8.379817
##ZVALUE=320
0.737906
0.804663
0.958443
0.816584
0.923872
0.706911
0.878572
0.970960
0.855923
0.762939
1.072884
1.018643
0.927448
0.967979
0.992417
0.909567
0.854731
0.920892
0.842810
0.898838
1.001954
1.108646
1.177788
1.107454
1.324415
1.156926
1.317859
1.341701
1.425743
1.476407
1.411438
1.641512
1.610518
1.925826
1.950860
1.822710
2.183914
2.165437
2.558827
2.914667
3.113747
4.418492
12.827516
70.455670
183.953643
487.612486
817.871690
1016.001701
1016.001701
1016.001701
1016.001701
1016.001701
1016.001701
1016.001701
1016.001701
784.957409
377.890468
185.156465
57.764649
22.519827
11.736751
11.910796
15.229583
19.858479
31.662583
43.557882
64.031482
79.326630
97.859502
106.738806
107.177496
101.645589
86.153746
72.567463
54.336786
40.444732
26.119947
18.522739
12.176633
10.050535
8.557439
8.039474
7.949471
8.195639
8.155704
7.956624
7.610917
7.914901
7.908940
7.945895
7.982850
7.856488
7.861853
7.941723
8.012652
7.943511
7.970929
7.916689
8.019805
7.986426
7.998943
8.241534
8.472800
8.248687
8.586645
8.687973
8.596778
9.018779
8.470416
8.805990
8.738637
8.646846
8.616447
8.498430
8.233786
8.304715
##ZVALUE=325
0.843406
0.704527
0.665784
0.813603
0.845790
0.891685
0.796914
0.806451
0.895858
0.858903
0.783801
0.751615
0.887513
0.912547
0.806451
1.107454
1.054406
0.976920
1.039505
1.033545
0.959635
1.003742
1.084805
1.055598
1.141429
1.117587
1.213551
1.152754
1.209974
1.409650
1.246929
1.531839
1.479983
1.590848
1.554489
1.746416
1.858473
1.897812
2.218485
2.163649
2.502799
2.809763
3.183484
3.425479
8.588433
34.723878
136.841536
301.217437
680.752993
1015.851498
1016.001701
1016.001701
1016.001701
1016.001701
1016.001701
1016.001701
1016.001701
938.118100
486.345887
262.098908
90.841651
33.990741
11.814833
10.460615
11.176467
13.336539
20.421743
28.464794
45.136809
60.598850
80.196857
91.214776
101.185441
101.834536
93.640685
82.371831
63.192844
49.101710
32.624602
23.386478
15.769601
12.015700
9.333491
8.142591
7.965565
7.724762
7.509589
7.621646
7.148981
7.213950
7.415414
7.413626
7.601976
7.822514
7.622838
7.836819
8.178949
7.996559
7.892847
7.771850
8.256435
8.292794
8.324981
8.386970
8.290410
8.770823
8.882880
8.603930
8.835793
8.881688
8.645654
8.636713
8.539557
8.413792
8.460879
8.293986
##ZVALUE=330
0.821948
0.731945
0.737906
0.612736
0.693798
0.788569
0.712872
0.753999
0.638962
0.924468
0.914931
0.857711
0.893474
0.951886
0.966787
0.855923
0.758767
0.838637
0.885725
0.811815
0.947714
0.803471
1.086593
1.045465
1.066923
1.234412
1.064539
1.112819
1.301765
1.228452
1.239777
1.152754
1.497865
1.427531
1.454949
1.503825
1.568794
1.789927
1.816750
1.738667
2.146959
2.125502
2.394915
2.699494
2.874732
3.129840
4.685521
15.786886
82.105994
198.556781
487.672687
814.694762
1016.001701
1016.001701
1016.001701
1016.001701
1016.001701
1016.001701
1016.001701
1016.001701
653.268695
356.713533
135.901570
57.643652
17.021894
10.250807
9.694695
10.142922
13.700724
19.126534
29.981732
40.472746
57.925582
71.490407
85.868835
91.782808
93.955994
87.267756
73.324442
60.774684
44.619441
33.344626
22.651553
16.311407
11.051893
9.101629
7.769465
7.602572
7.224679
7.476807
7.372499
7.216930
7.131696
7.370710
7.425547
7.284880
7.343888
7.867813
7.619858
7.916689
8.228421
8.273721
8.482933
8.477569
8.588433
8.472800
8.400679
8.511543
8.699894
8.652806
8.900762
8.672476
8.744597
8.406639
8.650422
8.367896
##ZVALUE=335
0.647902
0.773668
0.636578
0.716448
0.730753
0.621676
0.702739
0.557899
0.722408
0.864863
0.732541
0.797510
0.792742
0.892878
0.800490
0.783801
0.844598
0.812411
1.004934
0.903606
0.932813
0.944734
0.918508
0.963807
0.911951
0.793934
1.174808
0.951886
1.080632
1.107454
0.952482
1.181960
1.164675
1.204610
1.191497
1.425743
1.382828
1.324415
1.641512
1.532435
1.637936
1.788735
1.924634
1.976490
2.139807
2.459884
2.642870
2.929568
3.736615
7.007718
43.291450
119.016767
335.541964
603.822470
1016.001701
1016.001701
1016.001701
1016.001701
1016.001701
1016.001701
1016.001701
1016.001701
857.103467
527.663827
232.755542
105.832815
28.511882
12.367964
9.387732
9.290576
10.792613
12.640953
18.473864
25.988817
38.754940
51.167607
68.434477
79.888701
87.616444
87.714791
81.294775
72.425604
57.235956
45.590997
32.088757
23.804903
15.799999
11.796951
9.120703
7.972717
7.184744
7.329583
7.167459
7.289648
7.492900
7.208586
7.447600
7.410645
7.616878
7.736683
7.916689
8.007884
8.084774
8.482933
8.456707
8.640885
8.812547
8.581877
8.799434
8.669496
8.458495
8.616447
8.969903
8.498430
8.373857
8.290410
##ZVALUE=340
0.696778
0.662804
0.767708
0.765920
0.692606
0.780821
0.762939
0.616908
0.785589
0.690818
0.815988
0.630617
0.630617
0.644922
0.552535
0.769496
0.683665
0.926852
0.928640
0.866652
0.968575
0.971556
0.899434
1.148582
0.916719
0.951886
0.863671
0.941753
0.988841
0.948906
1.086593
1.106858
1.020432
1.056790
1.148582
1.217723
1.305938
1.282692
1.366735
1.479983
1.379848
1.429915
1.715422
1.814961
1.884699
1.990795
2.249479
2.246499
2.534986
2.705455
3.294945
4.124641
21.949410
72.283745
232.657790
466.753840
950.111747
1016.001701
1016.001701
1016.001701
1016.001701
1016.001701
1016.001701
1016.001701
1016.001701
703.569651
325.105786
154.375434
39.726496
14.179945
9.561777
9.304881
9.332895
9.962916
12.465715
16.423464
25.381446
35.821795
51.317811
61.888695
75.628757
80.278516
80.579519
77.309608
67.074895
56.331754
42.952895
33.377409
22.077560
16.299486
11.357665
8.984804
7.829666
7.496476
7.421970
7.422566
7.558465
7.663965
7.760525
7.914901
7.823706
7.929802
8.284450
8.121729
8.155704
8.488894
8.635521
8.787513
8.911490
8.975863
9.031892
8.835793
8.752942
8.517504
8.620620
8.733869
##ZVALUE=345
0.660419
0.592470
0.683665
0.714660
0.527501
0.737906
0.728965
0.554919
0.804663
0.645518
0.601411
0.677705
0.747442
0.701547
0.755787
0.805855
0.673532
0.727773
0.940561
0.733733
0.704527
0.888705
0.708699
0.852942
0.920892
0.934601
0.900626
0.943542
1.178980
0.994802
1.147985
1.033545
1.018643
1.059771
1.035929
1.157522
1.119971
1.303554
1.211762
1.388788
1.416802
1.480579
1.541972
1.403689
1.728535
1.643896
1.894832
2.076626
2.277493
2.397895
2.449751
2.630949
2.980828
3.492832
9.053946
36.340952
151.960850
315.264463
682.031512
1007.412672
1016.001701
1016.001701
1016.001701
1016.001701
1016.001701
1016.001701
1016.001701
933.303833
434.146523
210.482478
61.636567
22.263527
10.376573
9.401441
8.766651
8.674860
8.987784
10.793805
16.083717
21.974444
33.338666
43.398738
56.884885
66.030622
73.956847
75.584650
71.839690
65.357685
53.590536
43.207407
31.006932
23.032427
15.217662
12.361407
9.462833
8.395910
7.793903
7.650852
7.496476
7.934570
7.647872
7.811785
7.844567
8.249879
8.283854
8.487701
8.382797
8.706450
8.855462
8.736849
8.633733
8.762479
8.803606
8.701682
8.738637
8.568764
##ZVALUE=350
0.614524
0.580549
0.686646
0.786781
0.664592
0.800490
0.764728
0.809431
0.806451
0.779629
0.839829
0.685453
0.620484
0.630617
0.787973
0.857711
0.703931
0.777841
0.742674
0.794530
0.832677
0.821948
0.760555
0.860691
0.889897
1.043677
0.911951
0.767708
0.932813
0.976920
0.944734
1.034737
1.058578
1.192689
1.177788
0.897646
1.201630
1.162887
0.997782
1.258850
1.277924
1.171827
1.493692
1.483560
1.622438
1.610518
1.619458
1.758933
1.796484
1.817942
2.006888
2.163649
2.407432
2.392530
2.744794
3.090501
5.057454
17.945766
88.359714
203.458667
499.453545
842.134953
1016.001701
1016.001701
1016.001701
1016.001701
1016.001701
1016.001701
1016.001701
1016.001701
586.640835
308.395624
97.222924
33.709407
11.452436
9.131432
8.239746
7.654428
7.438660
8.049607
10.501742
13.615489
20.431876
27.444959
39.450526
49.291849
60.462952
66.568851
69.738626
66.716671
60.325861
51.990747
40.141940
30.906796
21.995902
16.954541
11.983514
10.186434
8.517504
7.920861
7.696748
7.749796
7.700920
8.192658
8.008480
8.085966
8.289814
8.250475
8.543730
8.560419
8.493662
8.570552
8.327961
8.650422
8.242726
8.118749
##ZVALUE=355
0.610948
0.767708
0.655651
0.681877
0.704527
0.671744
0.720620
0.611544
0.701547
0.710487
0.697970
0.790954
0.777841
0.797510
0.879765
0.659823
0.896454
0.803471
0.762939
0.841618
0.764728
0.800490
0.862479
0.966787
0.902414
0.928640
0.832677
0.967979
1.052618
0.842810
1.185536
1.088977
0.963807
0.966787
1.096725
1.061559
1.238585
1.149774
1.115799
1.243949
1.159906
1.051426
1.169443
1.534820
1.366735
1.425743
1.451969
1.607537
1.715422
1.690984
1.799464
1.994967
1.981854
2.133846
2.414584
2.534986
2.921820
2.881885
3.697872
8.099675
48.485994
136.480927
372.563004
649.504662
1016.001701
1016.001701
1016.001701
1016.001701
1016.001701
1016.001701
1016.001701
1016.001701
740.667582
405.700803
144.771934
54.250956
12.747645
8.524656
7.655621
7.473826
7.164478
7.089972
7.912517
8.885860
12.688637
17.015934
25.684834
33.459663
45.527816
53.275824
61.106682
63.721538
61.663985
56.665540
48.036575
40.686727
30.324459
24.092793
16.533732
12.978911
9.969473
8.962750
8.433461
8.028746
7.832646
7.840991
8.191466
8.071661
8.345842
8.172989
8.317828
8.101463
7.962584
7.979870
7.715821
7.976890
##ZVALUE=360
0.791550
0.745654
0.817776
0.742674
0.683665
0.786781
0.896454
0.976920
0.628829
0.646710
0.813603
0.800490
0.813603
0.669956
0.724792
0.770688
0.813603
0.867844
0.851750
0.828505
0.890493
0.823736
0.965595
0.950694
0.933409
1.031756
1.064539
0.950694
0.847578
1.069903
0.974536
1.069903
1.083612
1.206994
1.191497
1.168847
1.178980
1.154542
1.059771
1.213551
1.156926
1.306534
1.353621
1.247525
1.255870
1.560450
1.473427
1.548529
1.602769
1.711845
1.917481
1.859665
1.763701
1.851916
2.084970
2.101660
2.515912
2.333522
2.922416
3.079772
3.329515
4.594922
22.892952
69.920421
224.801898
438.289642
883.956552
1016.001701
1016.001701
1016.001701
1016.001701
1016.001701
1016.001701
1016.001701
951.632857
574.776530
236.367583
91.882944
20.703673
9.879470
7.891655
7.451773
6.954670
6.684661
6.564856
6.757975
8.346438
10.244846
14.794469
19.862652
29.279590
37.099719
46.714544
53.246617
57.188869
57.542920
53.334832
48.698783
39.326549
31.586885
23.737550
18.660426
13.797879
11.372566
8.978844
8.307695
7.658601
7.802844
7.820725
7.542968
7.757545
7.653832
7.482767
7.449985
7.523894
7.251501
##ZVALUE=365
0.584722
0.805855
0.689626
0.674725
0.739694
0.705719
0.684857
0.712872
0.692606
0.756979
0.661612
0.935793
0.905991
0.883937
0.918508
0.808835
0.924468
0.819564
0.713468
0.778437
0.900626
0.930429
0.908971
0.845790
0.904799
0.899434
0.905991
0.924468
0.995994
1.006722
1.128912
0.962615
1.069903
1.121759
1.128912
1.037717
1.091957
1.031756
1.058578
1.133680
1.054406
1.224875
1.051426
1.075864
1.239777
1.179576
1.649857
1.501441
1.398921
1.446605
1.560450
1.620650
1.573563
1.648664
1.860857
1.867414
2.117753
2.030730
2.198815
2.592802
2.960563
2.985597
3.395677
3.810525
9.483695
34.579635
139.708519
302.815437
698.823929
1016.001701
1016.001701
1016.001701
1016.001701
1016.001701
1016.001701
1016.001701
1016.001701
750.434995
326.432586
142.891407
33.250451
11.977553
7.662773
7.113814
6.501675
6.317496
5.999804
6.110668
6.242990
6.617904
8.995533
12.022853
18.243790
24.346709
33.257604
40.653944
48.137903
52.267909
53.452849
51.594973
46.352744
40.740967
31.938553
25.144815
18.626451
14.711618
10.793805
9.103417
8.095503
7.613897
7.368922
7.009506
7.077456
6.770492
6.972551
6.612539
##ZVALUE=370
0.696778
0.703931
0.810623
0.726581
0.692606
0.823736
0.659823
0.736713
0.636578
0.638962
0.730753
0.681877
0.754595
0.723600
0.790954
0.899434
0.739694
0.629425
0.868440
0.728965
0.808835
0.848770
0.748634
0.890493
0.617504
0.762939
1.010895
1.007915
1.004934
0.976920
0.856519
0.764728
0.915527
0.860691
0.959635
0.851750
1.026988
0.991821
1.144409
1.078844
1.124740
1.052618
1.071692
1.145601
1.234412
1.261830
1.231432
1.212955
1.238585
1.305938
1.335740
1.422763
1.348853
1.360774
1.474619
1.593828
1.783967
1.755953
1.680851
1.958609
2.122521
2.305508
2.442598
2.553463
3.027916
3.426671
5.400777
18.930435
97.678900
227.659345
515.944958
856.462717
1016.001701
1016.001701
1016.001701
1016.001701
1016.001701
1016.001701
1016.001701
816.938877
379.265547
187.701583
61.243773
20.978451
7.844567
6.662607
6.022453
5.998611
5.517602
5.467534
5.487800
5.617738
6.518960
7.789731
11.154413
14.933944
21.650791
27.746558
36.200881
42.306781
48.266649
50.309896
48.546791
45.502782
38.268566
32.190681
24.293661
18.139482
14.076829
11.365414
8.698702
7.314682
6.726980
6.505847
6.069541
5.963445
##ZVALUE=375
0.751615
0.583529
0.637770
0.541806
0.774860
0.724792
0.638962
0.503659
0.663996
0.586510
0.604987
0.677705
0.657439
0.611544
0.665784
0.732541
0.615716
0.690818
0.750422
0.787973
0.671744
0.738502
0.728965
0.764728
0.706911
0.719428
0.889897
0.852942
0.878572
0.947714
0.659823
0.865459
0.892878
0.891685
1.002550
0.884533
0.984669
0.752807
1.052618
0.839829
0.935793
0.806451
0.881553
1.018643
1.011491
1.012683
1.121759
0.972748
1.118779
1.201630
1.356602
1.150966
1.131892
1.408458
1.348853
1.289845
1.368523
1.404881
1.529455
1.418591
1.488924
1.837611
1.764894
2.006888
2.120733
2.192855
2.439618
3.065467
3.895760
9.442568
54.676533
139.591694
361.641645
647.305846
1016.001701
1016.001701
1016.001701
1016.001701
1016.001701
1016.001701
1016.001701
927.003622
493.654013
273.841619
100.819468
39.241910
10.293722
6.825924
5.928874
5.757809
5.412698
5.439520
4.976988
4.989505
5.240440
5.488992
6.952882
8.548498
12.696981
17.083883
24.519563
30.751824
38.430691
43.222904
47.396421
46.261549
43.771863
37.806630
33.446550
26.204586
20.774603
15.510917
12.076497
8.710623
7.468462
6.349683
##ZVALUE=380
0.560880
0.635982
0.486970
0.650883
0.621676
0.590682
0.719428
0.601411
0.684857
0.652671
0.620484
0.509620
0.730753
0.619888
0.718832
0.477433
0.650883
0.741482
0.670552
0.617504
0.635982
0.727773
0.694990
0.723600
0.621676
0.761747
0.726581
0.894666
0.821948
0.851750
0.992417
0.894666
1.002550
0.958443
0.851750
0.944734
1.066923
0.859499
0.902414
0.989437
0.997782
0.994802
0.979900
1.027584
0.840425
1.004934
1.030564
0.961423
1.039505
0.981688
1.127720
1.139641
1.244545
1.239777
1.156926
1.129508
1.227856
1.197457
1.293421
1.067519
1.311898
1.538992
1.417994
1.644492
1.713634
1.725554
2.028942
2.330542
2.433658
2.902746
3.638864
5.349517
27.783513
87.003708
264.911652
502.481461
969.241858
1016.001701
1016.001701
1016.001701
1016.001701
1016.001701
1016.001701
1016.001701
654.116869
377.676487
149.411559
64.111948
15.849471
7.511973
5.950928
5.641580
5.286932
5.329847
5.243421
5.005598
4.945993
5.084872
5.378723
5.923510
8.022785
10.687709
15.972853
21.241903
28.744936
36.314726
41.413903
44.363737
45.234561
42.766929
39.064884
32.937527
27.488470
20.114779
16.142726
11.453629
##ZVALUE=385
0.440478
0.549555
0.553727
0.602603
0.740886
0.606775
0.733733
0.642538
0.645518
0.495911
0.559688
0.552535
0.594854
0.492930
0.509620
0.612736
0.421405
0.696778
0.551939
0.647902
0.708699
0.755787
0.691414
0.712872
0.761747
0.701547
0.906587
0.856519
0.914931
0.801682
0.890493
0.998974
1.077652
1.075864
0.818968
0.926852
1.010895
1.028776
1.198649
0.999570
0.961423
1.022816
1.087785
1.120567
1.113415
1.135468
0.904799
0.933409
1.062751
1.112819
1.166463
1.048446
1.100898
1.106858
1.157522
1.145601
1.248717
1.159906
1.230836
1.274943
1.264811
1.341701
1.639724
1.317859
1.472831
1.536608
1.800656
1.894832
2.003908
2.279878
2.442598
2.744794
2.991557
3.303885
12.203455
44.013858
164.953470
355.227590
761.779547
1016.001701
1016.001701
1016.001701
1016.001701
1016.001701
1016.001701
1016.001701
874.664783
549.247861
243.128538
114.753842
34.249425
11.316538
5.991459
5.435944
5.680919
5.187988
5.043745
5.050898
4.708767
4.694462
4.665852
4.675984
5.437732
6.772876
9.497404
12.624860
18.584728
25.148988
30.322671
35.894513
39.072633
41.316748
41.167736
37.481785
33.331513
26.929975
##ZVALUE=390
0.495911
0.646710
0.482798
0.494719
0.625849
0.495911
0.571609
0.437498
0.643730
0.610948
0.619888
0.616908
0.588894
0.668764
0.524521
0.471473
0.675917
0.620484
0.483990
0.529885
0.686646
0.523925
0.681877
0.793934
0.753999
0.699759
0.686646
0.801682
0.836849
0.941753
0.917912
0.975728
1.138449
1.239777
1.073480
1.056790
1.220703
1.046658
1.159906
1.259446
1.081824
1.037717
1.053810
1.225471
1.194477
1.083612
1.132488
1.194477
1.088977
1.183748
1.185536
1.128912
1.169443
1.208782
1.263618
1.146793
1.240969
1.154542
1.290441
1.211762
1.296997
1.223683
1.192689
1.236796
1.255870
1.533628
1.626611
1.803637
1.975894
2.156496
2.520680
2.690554
2.754927
2.858639
2.633929
3.159642
5.166531
31.854510
99.333525
303.172469
568.619967
1008.750796
1016.001701
1016.001701
1016.001701
1016.001701
1016.001701
1016.001701
1016.001701
722.202659
415.058732
163.564682
70.359707
16.727448
7.026792
5.661845
5.596876
5.295873
5.117655
4.969835
4.877448
4.754663
4.589558
4.499555
4.757643
5.366802
6.150603
8.173585
10.995865
15.436411
19.869804
26.243925
31.375885
36.365986
38.754940
39.038658
##ZVALUE=395
0.571609
0.618696
0.607967
0.444651
0.521541
0.392795
0.504851
0.494719
0.543594
0.398755
0.603795
0.749826
0.450611
0.565648
0.649691
0.660419
0.592470
0.630617
0.626445
0.529885
0.550747
0.612736
0.625849
0.743866
0.857711
0.918508
0.817776
0.831485
0.862479
1.001954
0.941753
0.980496
0.947714
1.020432
1.145601
1.181960
1.169443
1.044869
1.161695
1.113415
1.239777
1.298785
1.016855
1.275539
1.245737
1.288652
1.192689
1.339912
1.301765
1.091957
1.039505
1.178980
1.333952
1.154542
1.180768
1.316667
1.109838
1.128912
1.043677
1.209974
1.202822
1.264811
1.249909
1.193881
1.321435
1.419783
1.765490
1.646876
1.764894
1.944900
2.166629
2.330542
2.363920
2.325773
2.286434
2.370477
2.620816
2.810955
3.846884
12.982488
75.670481
186.494589
446.203947
751.803517
1016.001701
1016.001701
1016.001701
1016.001701
1016.001701
1016.001701
1016.001701
957.113504
501.428843
265.929699
94.704628
37.264824
10.071993
6.275773
5.699992
5.496740
5.345941
5.014539
5.128980
5.131960
4.881620
4.890561
4.700422
4.694462
4.969835
5.466938
7.170439
9.195805
13.125539
17.045736
23.725629
29.749870
##ZVALUE=400
0.589490
0.690818
0.504851
0.476837
0.450611
0.628829
0.482798
0.716448
0.545979
0.592470
0.517964
0.661612
0.603795
0.611544
0.619888
0.370741
0.483990
0.498891
0.503659
0.484586
0.611544
0.661612
0.662804
0.676513
0.756979
0.825524
0.782609
1.030564
0.963807
0.837445
1.041889
1.008511
1.037717
1.108646
0.960827
1.048446
1.086593
1.138449
1.205802
1.260638
1.095533
1.098514
1.144409
1.239777
1.250505
1.380444
1.118779
1.165867
1.039505
1.155734
1.264811
1.191497
1.256466
1.266599
1.337528
1.173615
1.198649
1.068711
1.172423
1.163483
1.132488
1.323819
1.356602
1.294613
1.308918
1.269579
1.527667
1.627803
1.671910
1.828671
1.795888
2.112985
1.899600
2.034903
2.139807
2.069473
2.216697
2.300739
2.479553
2.673864
3.188848
6.821752
37.564635
110.259652
318.644643
588.974953
1016.001701
1016.001701
1016.001701
1016.001701
1016.001701
1016.001701
1016.001701
1016.001701
641.148686
378.824472
159.179568
69.818497
17.971992
7.487535
5.651712
5.293489
5.602837
5.434752
5.526543
5.335808
5.061626
5.088449
4.763603
4.395843
4.579425
4.599690
5.189776
6.131530
8.161664
11.494756
##END
