##TITLE=8-1
##FORMAT=SPECTACLE-ASCII V-1.2
##DATA TYPE=ULTRAVIOLET SPECTRUM
##SECOND TYPE=ULTRAVIOLET SPECTRUM
##DATE=04/04/18
##TIME=13:22:05
##SPECTROMETER/DATA SYSTEM=SPECTACLE
##XUNITS=NM EM
##YUNITS=ENERGY
##YFACTOR=1
##FIRSTX=220
##LASTX=450
##NPOINTS=116
##3DDATA=Equidistant
##ZUNITS=NM EX
##FIRSTZ=210
##LASTZ=400
##ZPOINTS=39
##XYDATA=(Y..Y)
##ZVALUE=210
25.714636
26.947856
18.031597
14.637709
12.804866
12.008548
10.952950
8.721948
8.805990
6.989837
5.790591
4.904866
4.981756
5.225539
4.576445
4.813671
5.690455
5.301833
6.059408
5.987883
6.335974
7.040501
7.524490
9.039640
9.988546
9.570718
12.157559
11.415482
13.615489
13.736486
13.739467
15.676618
16.036630
15.600920
16.740561
17.412901
17.786622
17.484426
14.679432
17.487407
16.450882
17.313957
19.139647
15.689731
16.164780
15.433431
16.285777
16.609430
17.494559
17.152429
18.659830
18.945932
17.698407
17.083883
16.558766
17.616749
15.572906
14.990568
18.119812
17.894506
16.357899
16.594529
15.010834
18.051863
17.035604
17.588735
19.274950
20.984411
23.236871
23.564696
32.019615
37.202835
42.326450
47.198534
52.293539
54.903626
54.815412
57.660937
58.130622
55.299997
50.222874
46.480894
39.721727
35.122633
29.347539
22.999644
19.432902
18.594861
17.925501
20.645857
24.713874
31.960607
42.040944
49.755573
62.788725
73.280931
91.745853
96.722841
107.400417
114.946961
117.062926
112.751722
108.746886
103.361607
100.727677
95.796585
83.808899
70.249438
66.293478
53.688884
45.387745
32.976866
29.110909
23.578405
21.777749
20.840764
##ZVALUE=215
90.403557
89.957714
65.052509
46.073794
35.909414
23.893714
19.617677
17.754436
16.275644
15.824437
12.891889
9.989738
9.103417
7.315874
6.740689
5.469918
4.904866
5.968809
5.780458
6.367564
6.215572
7.197857
6.913543
8.097887
10.438561
10.772943
11.985898
11.271834
13.418794
15.329719
13.909936
14.760494
16.072989
16.372800
16.847849
17.454624
19.138455
18.639565
16.250610
17.849803
17.544627
16.653538
19.115806
18.622875
19.018650
16.433597
17.359853
17.266870
17.865896
17.464757
18.284917
18.713474
17.072558
19.727945
17.183423
18.012524
18.578768
18.183589
18.211603
19.267797
17.861724
17.334819
16.954541
17.320514
18.569827
18.798709
18.083453
19.487739
21.495819
24.021864
26.708841
34.161806
36.460757
40.217638
43.152571
46.826601
48.211813
46.989918
45.698881
43.660998
42.135715
38.308501
34.548640
28.758645
24.849772
21.648407
18.809438
16.915798
15.289783
13.604760
14.254451
13.578534
15.209913
17.558932
20.403862
30.092597
39.407611
51.821470
65.885782
84.200501
103.468895
122.133493
131.137967
151.035786
158.234835
165.538788
165.462494
162.322521
158.886909
147.347450
136.788487
118.024945
107.674003
88.648796
74.444413
55.522919
##ZVALUE=220
208.108425
213.780999
197.552443
167.312622
145.615935
96.625686
69.439411
43.189526
34.479499
27.998686
26.736856
25.139451
22.925735
20.296574
16.197562
12.823939
8.981824
8.519888
6.802678
7.653832
6.979704
7.959604
7.474422
8.674860
9.903908
10.593534
10.699630
11.513829
12.532473
14.484525
13.708472
13.680458
15.962720
15.849471
17.053485
16.954541
18.253922
17.978549
18.690825
19.146800
20.033717
18.929839
17.244816
20.344853
20.735860
21.266937
18.612742
21.143556
19.960999
20.754933
19.377470
20.186901
20.837784
19.575953
18.867850
19.707680
19.225478
19.414425
19.087791
19.871593
20.151734
18.764734
18.386841
18.396974
19.318461
18.032789
19.954443
19.067526
22.264719
24.597645
26.783943
31.130910
34.198761
36.218762
39.372444
40.843487
41.061640
41.339993
41.039586
38.658977
34.521818
32.877922
28.809905
24.641752
22.640824
17.857552
17.139912
15.125871
14.450550
14.889836
13.876557
13.302565
12.958646
11.907816
12.132525
13.525486
12.669563
13.606548
17.489791
21.258593
34.687519
47.242641
70.297718
85.649490
118.936896
136.958957
171.834826
196.777582
217.984915
233.755708
237.185955
240.303874
240.415931
229.572654
220.694542
201.605558
##ZVALUE=225
258.679986
262.864828
318.558812
341.090560
340.310931
297.523737
242.609978
167.002678
118.063688
71.648955
56.990981
42.163730
40.377975
40.747523
39.785504
33.513904
29.773712
21.781921
18.583536
13.000965
10.025501
8.708835
7.767677
7.643700
8.956790
9.513497
11.031628
11.909604
11.626482
12.569427
13.215542
13.693571
14.860630
15.041828
16.598701
16.483665
17.534494
17.727613
19.686818
20.225644
20.473599
21.885633
20.558834
21.900535
21.370649
20.850897
22.448897
20.864606
22.889972
21.281838
22.396445
21.445751
21.076798
21.564960
20.349622
20.610690
19.678473
21.125674
19.842982
20.569563
18.495917
19.827485
19.474626
19.805431
17.941594
18.911958
20.226836
19.229650
21.361709
24.326444
26.640892
27.200580
30.726790
29.684901
36.586523
32.679439
32.962561
32.134652
31.948686
30.295849
28.281808
26.215911
24.058819
20.694733
20.003915
18.311739
15.223622
15.583634
13.966560
12.848973
13.611913
13.386607
12.722611
13.264418
13.631582
12.222528
12.769699
13.018847
13.880730
12.475848
12.513995
12.780428
16.121864
19.188523
29.403567
40.332675
60.744882
92.333555
111.116767
149.340630
181.144476
224.346519
258.604884
295.219421
321.889520
345.687866
##ZVALUE=230
171.707869
185.850859
310.158730
404.765606
489.397645
562.029481
571.133494
517.079830
436.675549
312.559605
215.875506
128.222704
88.447928
62.147975
60.122609
59.126616
62.557459
58.440566
53.230524
40.563941
33.783913
22.584796
17.444491
12.950897
9.754896
9.132624
9.309649
9.857416
12.199879
11.509657
11.260509
12.003779
12.876987
15.022755
15.067458
16.723871
17.094612
18.059611
18.945932
19.462705
20.336509
20.658970
20.876527
21.375418
23.947954
24.494529
22.794604
23.178458
23.499727
23.852587
22.530556
22.144914
23.209453
21.279454
24.393797
21.996498
22.257566
22.329688
22.602677
23.262501
22.688508
19.929409
22.651553
20.237565
20.808578
21.954775
21.656752
21.616817
22.288561
26.960969
27.563572
30.394793
32.475591
36.039948
36.858916
37.109852
36.545992
34.381747
34.282804
32.760501
31.459928
28.012991
26.002526
23.041964
20.092726
19.760728
18.290877
17.607808
15.658736
17.533898
16.657710
15.240908
15.413761
14.538765
15.026927
14.750957
14.776587
16.112924
14.091730
14.629960
15.174747
14.672875
13.495684
14.824867
15.796423
15.312433
14.946461
16.963482
21.813512
31.306744
44.168830
73.095560
102.977753
154.919624
202.353597
269.847512
##ZVALUE=235
41.695833
49.333572
126.150846
222.500563
351.118445
548.516512
710.492730
854.571462
895.510912
842.811465
725.066662
538.012981
384.628773
232.173800
150.497556
99.903941
84.739923
87.799430
88.444948
92.266798
82.210898
74.121952
56.676865
41.555762
29.574633
20.540953
15.206933
13.664961
12.414455
12.946725
13.368726
13.330579
15.205741
15.442967
15.130639
18.139482
17.380714
19.322634
19.333959
20.741820
20.794868
20.992756
22.558570
22.567511
23.376942
22.088885
25.931597
23.136735
24.502873
23.590922
22.780895
23.147464
25.420785
23.768544
22.830963
22.946596
23.263693
23.292899
23.563504
22.174716
22.396445
21.578670
21.971464
21.895766
21.715760
22.295713
23.889542
22.293925
26.400685
27.473569
31.200647
33.545494
36.599636
38.934946
40.000677
39.538741
39.475560
38.223863
38.754940
32.257438
30.847788
29.447675
27.911663
23.907423
22.443533
20.857453
20.153522
19.933581
17.640591
19.780993
18.814802
18.375516
16.837716
16.847849
17.477870
16.972423
15.606880
18.387437
16.429424
16.420484
15.415549
15.717745
17.647743
17.586946
19.095540
15.949607
18.468499
16.994476
17.405748
15.477538
15.984774
16.808510
17.991662
26.660562
38.172603
68.088770
##ZVALUE=240
4.337430
5.340576
17.881989
50.970912
116.069913
266.007781
445.135832
740.435719
961.637497
1016.001701
1016.001701
1016.001701
1016.001701
907.582641
671.263933
408.406854
262.337923
155.907869
118.717551
112.482905
122.069716
122.035742
122.972727
110.959411
90.878606
75.256824
54.244995
39.640665
25.555491
19.761920
15.669465
15.650988
16.437769
15.487671
16.433001
16.725659
19.515753
19.367933
19.146800
22.080541
22.200942
21.476746
22.043586
22.564530
23.918748
23.553967
24.153590
24.211407
25.064945
26.178956
24.506450
22.765994
22.951961
24.765730
23.729801
22.955537
22.093654
23.958683
23.861527
23.494959
22.026896
22.663474
21.531582
23.959875
23.486614
21.760464
22.498965
23.877621
26.886463
28.273463
32.356977
33.583641
37.554502
40.217638
40.801764
39.604902
38.388968
38.911700
38.294792
34.530759
31.253695
29.697418
28.916597
25.869608
24.792552
22.129416
22.908449
20.412803
20.251870
18.663406
20.561814
19.444823
19.178987
16.988516
19.488931
19.787550
18.227696
18.046498
17.877817
17.444491
19.357800
17.585754
19.108653
18.343925
17.699599
18.053651
18.177629
18.722415
18.833876
17.926693
16.809702
17.545819
18.945932
17.814636
18.588901
18.184781
##ZVALUE=245
2.713799
3.019571
3.305674
3.442764
7.111430
33.248663
84.079504
224.248767
401.898623
699.435472
975.205898
1016.001701
1016.001701
1016.001701
1016.001701
1016.001701
941.987634
608.161688
392.916799
209.394693
142.557621
111.279488
119.873881
128.776431
141.212940
135.856867
119.137764
102.937818
78.114867
58.051944
40.382743
31.044483
21.282434
19.219518
16.819835
15.905499
15.647411
16.514659
17.058849
18.924475
19.964576
19.735694
20.296574
19.339919
20.976663
21.451712
21.323562
20.015836
20.501614
20.796657
20.890832
20.568967
21.516681
22.136569
20.508766
21.249652
20.355582
19.611716
19.410849
19.570589
19.385815
19.181967
18.662810
19.729733
18.966794
18.610954
19.570589
19.242764
22.694468
22.809505
25.845766
28.807521
32.053590
31.771660
33.922791
32.517910
33.614635
34.515858
31.112432
29.096603
26.434660
26.888847
23.264885
22.503734
21.086931
19.869804
16.486645
17.524958
15.947819
16.884804
16.948581
17.092824
16.969442
15.108585
15.658736
16.615987
17.752647
18.218756
16.335845
16.571879
17.104745
16.376972
16.075969
16.555786
17.334819
17.561913
17.116666
16.602874
17.208457
15.659928
16.857982
15.455484
15.651584
16.872883
15.610456
16.360879
##ZVALUE=250
2.641678
2.828836
2.460480
2.418756
2.833605
3.350973
4.859567
19.829869
56.465864
163.821578
323.283672
663.417578
974.323750
1016.001701
1016.001701
1016.001701
1016.001701
1016.001701
1016.001701
948.482752
631.303787
342.289805
198.654532
128.348470
113.270879
128.300786
146.803856
148.603916
142.419934
130.913854
108.992457
88.598728
65.496564
46.256781
30.715466
24.047494
19.766688
18.019676
18.756986
19.361973
18.417835
19.056797
20.051599
20.163655
19.970536
18.683672
18.358827
20.058751
19.489527
19.998550
18.142462
18.727779
20.889640
20.460486
20.845532
18.238425
18.893480
17.121434
18.017888
16.990900
18.551946
17.371774
17.366409
16.227961
17.022491
18.725991
17.843843
18.734932
19.598603
20.540953
23.752451
24.185777
26.984811
25.648475
29.581785
28.782487
29.049516
26.763678
24.294853
24.519563
22.187829
21.433830
19.770861
18.628836
16.518831
16.734600
15.380979
15.884638
13.733506
14.465451
14.750957
15.170574
13.880730
14.123917
14.698505
14.749765
13.609529
13.740659
14.513731
13.703704
14.182925
13.624430
14.359951
14.082789
13.698936
14.781952
14.038682
13.898611
14.447570
14.292598
14.458895
14.346838
14.033914
14.884472
13.826489
14.661551
##ZVALUE=255
2.328753
2.186894
2.232790
2.503991
2.686977
2.870560
2.930760
2.928972
3.808737
10.109544
32.557845
112.788677
238.703489
521.994829
802.024603
1016.001701
1016.001701
1016.001701
1016.001701
1016.001701
1016.001701
1016.001701
882.052779
480.752587
280.672908
146.014690
111.331940
116.541982
133.367777
148.447752
158.493519
154.954791
137.409568
117.184520
90.788603
69.684982
45.499802
35.344958
24.520755
20.899773
19.455552
19.068718
19.177794
20.502806
20.308495
20.129681
19.200444
19.480586
18.600821
20.467639
19.626617
19.069910
18.671751
19.581914
18.961430
18.551946
18.467903
18.532872
17.772913
18.180609
17.322898
17.292500
17.292500
16.781688
16.658902
15.929937
17.217994
17.311573
17.225742
18.126965
19.069910
18.812418
21.881461
22.158623
23.003817
23.212433
22.146702
22.297502
21.026731
19.111633
17.149448
16.597509
15.229583
14.718771
13.587475
13.389587
13.708472
13.332963
12.507439
11.678934
12.153983
11.368990
11.483431
12.159944
11.664629
11.459589
11.712909
12.927651
11.625886
11.852980
12.674928
12.037754
11.807680
12.087822
11.780858
13.332963
13.206601
13.448596
12.417436
12.860894
11.784434
11.749864
12.551546
12.990832
13.210773
12.994409
##ZVALUE=260
1.780987
1.820922
1.740456
2.295971
2.241731
2.292991
2.122521
2.681613
2.444983
2.814531
3.505945
5.474687
18.655658
77.177882
163.445473
384.804606
637.363791
1010.453701
1016.001701
1016.001701
1016.001701
1016.001701
1016.001701
1016.001701
1016.001701
718.441010
447.435975
264.963508
127.034783
99.304914
116.270781
133.668780
157.580972
165.789723
161.625743
146.404505
119.824409
97.718835
71.114898
53.200722
37.709475
28.693676
23.310781
21.658540
21.805763
21.778941
20.985603
21.807551
22.399426
21.339655
20.666718
20.897985
20.050406
19.969940
18.947721
18.903613
17.922521
17.840862
18.306971
18.380880
17.758608
16.526580
16.189814
15.373826
15.660524
16.246438
15.549660
15.722513
15.857816
17.125607
18.104911
17.791986
19.200444
19.751787
19.891858
18.892884
18.323660
18.730760
17.511845
16.319752
15.756488
14.474988
13.444424
12.843609
12.979507
11.509657
11.477470
10.684729
10.678768
10.631680
10.942817
10.585785
10.400414
9.915829
10.648966
10.590553
10.774732
10.912418
11.010766
10.819435
10.798573
10.853410
10.489821
10.410547
10.873675
12.157559
11.057854
11.222959
11.469722
12.683868
10.358691
10.840893
11.646748
10.399818
10.961890
11.681914
##ZVALUE=265
1.631975
1.790524
1.692772
1.959801
1.896620
1.991987
2.046824
2.057552
2.301931
2.282858
2.618432
2.862811
2.925992
3.830791
10.064840
53.286552
130.286813
320.523977
565.369725
992.116928
1016.001701
1016.001701
1016.001701
1016.001701
1016.001701
1016.001701
1016.001701
968.520641
638.037920
308.652520
168.491006
95.130801
94.964504
124.466419
146.313906
162.586570
171.927810
164.155960
150.503516
125.252604
99.917650
73.291659
55.288672
40.028691
33.480525
26.409626
25.733709
23.889542
24.232864
24.193525
23.954511
23.513436
23.558736
22.655725
21.694899
21.372437
21.101832
20.400882
20.385981
19.082427
18.286705
18.288493
17.837882
17.216802
17.346740
15.091896
16.273856
15.787482
16.782880
16.296506
16.727448
17.687678
17.476678
19.359589
18.842816
19.408464
16.902685
16.898513
16.062856
14.864802
14.415979
13.156533
12.293458
12.149811
11.287928
11.126995
9.715557
10.468960
10.344982
10.097623
10.025501
9.793639
9.756684
9.132624
9.708405
9.751916
10.268688
10.660887
9.719729
10.959506
10.418892
10.740757
10.981560
10.262728
10.304451
9.980798
10.082722
10.662675
10.378957
10.018945
10.161996
10.708570
10.475516
9.969473
10.790825
10.533929
##ZVALUE=270
1.590848
1.747608
1.612902
1.641512
1.496673
1.859665
1.733899
1.931787
2.033710
2.170801
2.122521
2.369881
2.057552
2.863407
2.948642
3.106594
4.942417
25.680661
75.483918
239.069462
455.052853
906.384587
1016.001701
1016.001701
1016.001701
1016.001701
1016.001701
1016.001701
1016.001701
1016.001701
725.252032
444.122553
199.463964
109.668970
80.970526
96.586943
125.708580
150.083899
171.844959
176.196694
170.618892
157.092810
129.802823
107.189417
79.003572
60.536861
44.010878
35.926700
29.202700
28.703809
24.971962
26.213527
25.202632
24.289489
24.064779
23.939610
22.797585
21.379590
21.549463
20.068884
20.508766
19.079447
19.270778
17.960668
16.787648
16.678572
16.307831
15.813708
16.659498
16.761422
16.930699
17.080903
17.669797
17.417669
18.531680
16.795993
16.493797
15.818477
14.830828
14.427900
13.864636
12.133718
12.527704
11.266470
10.185838
9.525418
9.916425
9.704828
9.907484
9.964705
9.381771
9.667873
9.499788
9.386539
9.112954
8.828640
9.596944
9.095669
10.476708
8.960962
9.543896
9.667873
9.431839
9.597540
9.784698
10.270476
10.019541
10.102987
10.160804
9.815693
10.247827
9.663701
10.125637
10.210872
9.845495
9.219646
##ZVALUE=275
1.528859
1.420975
1.523495
1.581907
1.733899
1.622438
1.874566
1.457930
1.723766
2.040863
1.900792
1.813769
2.103448
2.126694
2.510548
2.545714
2.992749
3.051758
3.894567
11.392832
45.596957
167.563558
369.041562
692.417026
1016.001701
1016.001701
1016.001701
1016.001701
1016.001701
1016.001701
1016.001701
1016.001701
972.117782
616.534948
275.419950
142.897964
77.421665
74.414611
103.480816
126.727819
153.742433
169.396996
178.910494
174.132586
156.687498
134.218931
105.898976
85.446835
59.542656
46.616793
35.522580
30.077696
27.447939
25.917888
24.181604
24.506450
22.723675
22.140741
21.231771
21.718740
19.660592
20.220876
18.471479
17.974973
16.948581
16.924739
16.139746
16.439557
16.754866
16.883612
16.476512
17.919540
17.811656
18.264651
18.635988
17.073750
16.872883
16.305447
15.577674
14.301538
12.991428
12.753606
12.099743
11.343956
10.957718
11.012554
9.663701
10.004640
9.801984
9.941459
9.421706
9.134412
8.881688
8.701682
8.695722
8.575916
9.307861
9.015799
9.174943
8.934736
9.511709
9.147525
9.499788
9.525418
8.992553
9.077787
9.307861
9.642839
9.561777
9.236932
9.423494
9.527802
9.434819
9.531975
9.761453
9.555817
##ZVALUE=280
1.446605
1.375675
1.284480
1.506805
1.473427
1.337528
1.412630
1.417994
1.463890
1.357794
1.985431
1.679659
1.889467
2.178550
1.788735
2.101660
2.280474
2.189875
2.703667
3.292561
3.533959
6.085634
25.026798
114.234686
259.343386
600.271821
961.545706
1016.001701
1016.001701
1016.001701
1016.001701
1016.001701
1016.001701
1016.001701
1016.001701
799.036026
391.412973
195.342898
81.779957
61.620474
76.271892
95.367432
129.250884
149.639845
170.291662
173.372626
165.987611
154.361725
125.019550
104.335546
75.270534
58.677793
41.330457
32.432675
26.142001
23.752451
21.429658
21.323562
20.295978
19.289851
18.641949
19.055605
18.189549
17.398000
17.204881
15.893579
16.104579
16.463995
15.533566
15.922785
16.164780
16.302466
16.289949
17.018914
16.551614
16.732812
15.973449
15.155673
14.359951
13.861656
13.067722
11.927485
11.174679
10.827780
9.915829
9.955764
9.926558
10.110736
9.306669
8.705854
9.027719
9.003878
9.316802
8.947849
8.802414
8.619428
8.990765
8.408427
8.811951
9.072423
8.736849
8.629560
8.566976
8.674860
9.410977
8.980632
8.504987
9.025931
9.039640
9.082556
8.943677
9.013414
8.849502
8.865595
8.840561
8.702874
##ZVALUE=285
1.241565
1.232624
1.301765
1.307726
1.536608
1.343489
1.537800
1.337528
1.311898
1.446605
1.630783
1.656413
1.635551
1.789927
1.870990
1.909733
2.137423
2.311468
2.291799
2.398491
2.474785
3.033876
3.190637
4.021525
13.500452
47.830939
166.991353
350.479484
769.343972
1016.001701
1016.001701
1016.001701
1016.001701
1016.001701
1016.001701
1016.001701
1016.001701
1016.001701
643.193722
355.015397
135.904551
67.902803
51.840544
64.567924
91.971755
115.327835
140.090585
156.374574
164.711475
160.976648
142.260790
125.917792
96.932650
75.728893
52.287579
37.719607
25.912523
20.800829
18.247962
17.336607
16.272664
15.625954
14.826655
14.948845
14.719963
14.010668
14.216900
14.553666
14.678836
14.909506
15.024543
15.227795
15.744567
15.888810
16.021729
15.253425
14.855862
13.997555
12.936592
12.525916
11.988878
11.136532
10.679960
10.425448
10.125637
9.730458
9.855628
9.451509
9.447932
9.154677
9.082556
9.031892
8.697510
8.970499
8.803606
8.715987
8.349419
8.554459
8.738637
8.147955
8.619428
8.360744
8.879900
8.335710
8.310676
8.362532
8.674860
8.848906
8.741617
8.498430
8.214712
8.632541
8.759499
8.780956
8.608699
8.408427
##ZVALUE=290
1.194477
1.214743
1.122952
1.400709
1.166463
1.202822
1.178980
1.292825
1.354814
1.286864
1.093745
1.495481
1.439452
1.719594
1.508594
1.869798
1.682639
1.960993
1.979470
2.011657
2.191663
2.369881
2.636909
2.824664
3.203750
3.522635
5.454421
17.929673
92.350841
221.718550
542.795658
937.320590
1016.001701
1016.001701
1016.001701
1016.001701
1016.001701
1016.001701
1016.001701
1016.001701
880.897641
529.609919
225.235820
101.506710
41.763783
41.719675
59.054494
78.353882
107.168555
126.976967
147.428513
154.113770
151.008964
140.381455
115.701556
93.124509
64.932704
49.165487
32.541752
23.595691
17.350912
14.781952
13.303757
12.761950
12.623668
12.545586
12.426972
12.648702
12.749434
13.247728
13.750792
13.644695
14.591813
14.054775
14.465451
13.722777
13.200641
12.384653
12.044907
11.578798
10.331869
10.882616
10.359883
10.075569
9.961724
10.045767
9.145737
8.742809
9.437799
9.085536
8.336902
8.577704
8.335710
8.823872
8.144975
8.196831
8.248687
8.702874
8.421540
8.599758
7.988811
8.257627
8.339882
8.591413
8.490682
8.505583
8.511543
8.196831
8.168817
8.153915
8.387566
8.500814
8.251667
7.974505
8.040667
8.016825
##ZVALUE=295
0.996590
0.954866
1.127720
0.996590
1.060963
1.148582
1.163483
1.270771
1.086593
1.297593
1.288652
1.409650
1.501441
1.384616
1.364946
1.529455
1.400709
1.554489
1.508594
1.762509
1.766682
2.017617
2.230406
2.073646
2.443790
2.570748
2.806783
3.231764
4.031658
7.265806
40.328503
113.102794
330.863595
637.321472
1016.001701
1016.001701
1016.001701
1016.001701
1016.001701
1016.001701
1016.001701
1016.001701
999.389887
661.868453
298.763514
139.492750
47.445893
28.870702
36.959648
50.358772
74.670911
94.341636
120.509863
134.876966
143.538713
143.149495
125.474930
111.171603
83.925724
65.694451
44.653416
31.250715
19.762516
15.336871
12.004972
10.928512
10.746717
10.636449
11.507869
11.574626
12.077689
11.989474
12.254715
12.492537
12.243986
11.911988
11.695623
10.907650
10.820627
10.681748
10.197759
9.772778
10.119677
9.434819
8.995533
9.369850
9.004474
9.019971
8.827448
8.921623
8.894801
8.211732
8.225441
8.385777
8.101463
8.141994
8.169413
8.486509
8.082986
8.081794
8.424520
8.183718
8.240938
8.362532
7.939935
8.301735
8.109808
7.720590
8.630753
8.160472
8.169413
7.669926
7.830858
7.757545
7.841587
7.587671
##ZVALUE=300
1.113415
0.892878
0.949502
0.966787
1.011491
1.157522
0.934601
1.082420
1.084805
1.152754
1.029968
1.152754
1.245737
1.114607
1.188517
1.331568
1.279712
1.533628
1.528859
1.564622
1.529455
1.422763
1.798868
1.804829
2.004504
1.916885
2.208948
2.569556
2.845526
3.111959
3.206730
4.023910
17.865896
64.963698
218.896866
429.018736
902.139544
1016.001701
1016.001701
1016.001701
1016.001701
1016.001701
1016.001701
1016.001701
1016.001701
845.863819
414.418578
216.420889
74.700713
31.929612
23.633838
31.098723
46.874881
62.658787
88.821650
106.514692
127.855539
136.374831
134.441853
124.242902
104.766488
85.302591
60.189962
44.755936
28.565526
19.971728
13.506413
11.460781
9.973645
10.458827
10.516644
10.714531
11.065602
11.253953
11.462569
10.875463
11.027455
10.058880
10.039806
10.130405
9.002686
9.474754
8.982420
8.738637
8.862615
8.483529
8.634925
8.580685
8.595586
8.490682
8.237958
8.120537
7.870793
8.074641
7.951856
8.436441
7.911921
7.963777
7.831454
7.965565
8.096695
8.036494
8.435845
7.990599
7.739663
7.759929
7.965565
8.081794
8.264780
8.165836
7.764697
7.898808
7.490516
7.693768
7.259846
7.564425
##ZVALUE=305
0.951886
0.880957
0.928640
0.855923
0.947714
1.009703
0.958443
1.034737
0.972748
1.030564
1.062751
1.052618
1.084805
1.280904
1.022816
1.225471
1.137853
1.275539
1.314878
1.249909
1.519918
1.520514
1.634955
1.681447
1.801848
2.075434
2.014637
2.289414
2.074838
2.488494
2.432466
2.824664
3.200769
3.538728
9.132624
34.197569
144.075751
325.785875
728.451014
1016.001701
1016.001701
1016.001701
1016.001701
1016.001701
1016.001701
1016.001701
1016.001701
1000.975966
542.838573
290.356874
106.626749
42.485595
18.504858
20.302534
29.876828
41.474700
62.815547
81.197619
103.779435
117.084980
128.137469
128.405690
114.611983
101.955533
77.833533
60.505867
39.478540
28.392673
18.316507
13.771653
11.457801
10.755658
10.579824
10.436773
10.478497
10.466576
10.384917
9.713769
9.693503
9.114742
8.885860
8.952618
9.043813
9.240508
8.650422
8.851886
8.844733
8.612871
8.542538
8.682609
8.074641
8.012652
7.980466
8.070469
8.037686
7.964969
8.336902
8.112788
8.120537
8.107424
8.478761
7.897615
8.083582
8.150935
8.183718
8.436441
8.196831
8.160472
8.042455
8.160472
8.102655
8.029938
7.618666
7.680655
7.748604
7.800460
##ZVALUE=310
0.822544
0.992417
0.838637
0.862479
0.718832
0.783801
0.777841
0.991821
1.054406
1.033545
1.000762
1.065731
0.923872
0.920892
1.152754
1.156926
1.083612
1.042485
1.310706
1.203418
1.191497
1.424551
1.349449
1.275539
1.679659
1.453757
1.634955
1.850724
1.947880
2.083778
2.080798
2.239943
2.561808
2.531409
2.859831
3.478527
4.711747
15.735626
85.293651
212.664604
546.292663
936.249495
1016.001701
1016.001701
1016.001701
1016.001701
1016.001701
1016.001701
1016.001701
1016.001701
728.860497
428.842902
181.425810
82.911849
24.737716
14.845729
18.670559
24.563670
37.546754
51.697493
74.087977
92.693567
111.422539
120.715499
119.177699
112.119913
96.432567
79.344511
56.625605
42.050481
26.909709
19.898415
14.875531
12.016892
10.516644
9.886622
9.592772
9.554625
8.656979
9.000897
8.438826
8.716583
8.496642
8.685589
8.053780
8.954406
8.806586
8.690953
8.115768
8.413792
8.191466
8.148551
8.211732
7.900000
8.171797
8.067489
7.824898
7.848740
8.275509
7.834435
7.948875
8.116961
7.953644
8.156896
8.073449
7.892847
8.073449
8.033514
8.424520
8.166432
7.932782
7.923841
7.911921
8.118749
8.027554
7.641912
##ZVALUE=315
0.917912
0.976920
0.822544
0.919700
0.927448
0.853539
0.938773
0.761747
0.879765
0.907779
0.903606
1.041889
0.815988
0.851750
0.999570
1.030564
1.104474
1.027584
1.101494
1.226664
1.153946
1.214743
1.294613
1.385808
1.447797
1.615882
1.665950
1.662970
1.702905
2.000928
1.956820
1.994967
2.021790
2.257824
2.360940
2.611876
3.087521
3.427863
3.723502
6.868839
38.148761
113.580823
354.470611
682.067871
1016.001701
1016.001701
1016.001701
1016.001701
1016.001701
1016.001701
1016.001701
1016.001701
915.723443
549.536943
242.753625
109.993815
30.502677
15.075803
13.356805
16.218424
24.018884
33.919811
52.451491
67.332983
88.500977
101.969838
114.480853
115.056634
106.371641
92.311502
71.631670
56.522489
39.821863
29.298663
18.791556
14.126897
10.725856
9.115934
8.497834
8.608699
8.207560
8.291602
8.629560
8.508563
8.294582
8.131862
8.329749
8.135438
8.349419
8.353591
7.988811
8.194447
7.944703
7.786751
7.890463
7.974505
7.841587
7.785559
8.188486
8.039474
8.074641
8.026958
8.198619
8.278489
8.380413
8.254647
8.105636
8.341670
8.343458
8.257627
8.121729
8.191466
7.960796
7.776618
7.872581
7.629991
##ZVALUE=320
0.835657
0.769496
0.896454
0.953674
0.835657
0.810623
0.768900
0.910759
1.016855
0.926852
0.862479
0.880957
0.892878
0.922680
0.853539
0.907779
0.820756
0.999570
1.029968
1.208782
1.042485
1.092553
1.162887
1.190901
1.346469
1.314878
1.300573
1.451969
1.508594
1.514554
1.636744
1.769662
1.919866
2.064705
2.012849
2.069473
2.520680
2.418756
2.695918
3.022552
3.321767
4.393458
13.635755
75.737834
195.283890
535.538793
930.050015
1016.001701
1016.001701
1016.001701
1016.001701
1016.001701
1016.001701
1016.001701
1016.001701
778.539777
354.198813
169.261694
52.663684
21.146536
11.418462
12.253523
15.318990
20.079613
31.796694
43.103695
63.717961
79.756975
98.212957
107.051730
108.469725
102.365613
86.862445
72.737932
54.081678
41.146874
25.955439
19.062757
12.424588
10.382533
9.007454
8.285642
8.113980
7.835627
7.790923
7.711649
7.972717
7.995963
7.878542
7.885695
7.805824
7.875562
7.829666
7.686615
7.690787
7.828474
8.104444
7.810593
8.139610
7.841587
8.024573
8.382797
8.109808
8.044839
8.279681
8.344650
8.422732
8.368492
8.321404
8.243918
8.004904
8.100867
7.757545
8.346438
8.313656
7.671714
##ZVALUE=325
0.888705
0.723600
0.850558
0.864863
0.867844
0.674725
0.734925
0.657439
0.947714
0.772476
0.683665
0.871420
0.942945
0.838637
0.977516
0.907779
0.886917
0.898838
0.952482
0.959635
1.109838
1.219511
1.110435
1.062751
1.132488
1.268983
1.269579
1.338720
1.431704
1.407862
1.386404
1.608729
1.534820
1.477599
1.714826
1.671910
1.918674
2.137423
2.275705
2.429485
2.731681
2.934933
3.195405
3.806949
9.724498
39.371848
155.727863
329.936743
738.747716
1016.001701
1016.001701
1016.001701
1016.001701
1016.001701
1016.001701
1016.001701
1016.001701
993.331075
518.355966
266.534686
88.426471
33.246875
13.132691
11.179447
11.647940
13.516545
20.312667
29.029846
45.740604
60.972571
80.209970
91.425776
100.148916
101.915002
95.018744
83.101988
65.889955
50.655603
33.937693
24.384856
15.416741
11.834502
9.477735
8.565784
7.978678
7.893443
8.029938
7.559657
7.824898
7.835627
7.572770
7.775426
7.760525
7.856488
7.740855
7.852912
7.401705
8.061528
7.903576
7.702708
7.948875
8.343458
8.374453
8.298755
7.777810
8.423924
8.675456
8.583665
8.263588
8.234978
8.450747
8.023977
8.190870
8.046627
8.058548
8.171797
##ZVALUE=330
0.784993
0.692606
0.867844
0.905991
0.864863
0.650883
0.833869
0.871420
0.690818
0.765920
0.731945
0.893474
0.972748
0.982881
0.811815
0.918508
0.963807
0.930429
0.919700
1.081824
0.959635
0.845790
1.135468
1.137853
1.097918
1.290441
1.257658
1.170635
1.398921
1.398921
1.204610
1.313686
1.516938
1.482964
1.619458
1.617670
1.821518
1.899600
2.092719
2.155900
2.270937
2.566576
2.908707
2.931952
3.210902
3.541708
5.498528
19.445419
104.766488
250.390768
599.308014
971.461535
1016.001701
1016.001701
1016.001701
1016.001701
1016.001701
1016.001701
1016.001701
1016.001701
819.955468
436.356664
156.545639
62.650442
17.503500
10.975599
10.649562
11.139512
14.122725
19.460917
31.137466
41.975975
58.125854
71.691871
86.644888
93.038678
94.619989
87.979436
74.918866
61.836839
45.325756
33.730865
22.879839
16.575456
12.019873
9.900928
8.493662
7.674694
7.800460
7.552505
7.749796
7.321835
7.655621
7.705688
7.632971
7.428527
7.806420
7.690787
7.799864
7.979870
7.992983
8.243918
7.995963
8.221865
8.347631
8.091927
8.374453
8.430481
8.462667
8.303523
8.083582
8.296967
7.948875
7.974505
7.861853
7.923841
##ZVALUE=335
0.773668
0.787973
0.660419
0.599623
0.694990
0.903606
0.667572
0.645518
0.875592
0.772476
0.799894
0.849962
0.752807
0.757575
0.806451
0.936985
0.950694
0.854731
0.872612
0.810623
1.048446
0.924468
1.082420
1.016855
1.011491
0.989437
1.148582
0.987649
1.017451
1.271963
1.169443
1.232624
1.264811
1.186728
1.441836
1.439452
1.487732
1.639724
1.755953
1.872778
1.907945
2.095699
2.149940
2.394915
2.605915
2.626777
3.095865
3.380775
4.179478
8.578897
52.188635
146.569610
431.356430
782.390833
1016.001701
1016.001701
1016.001701
1016.001701
1016.001701
1016.001701
1016.001701
1016.001701
954.595804
573.272705
236.852765
100.129843
26.235580
12.282729
9.949803
10.400414
11.309981
13.465881
20.009875
27.254820
40.089488
52.584410
69.414973
79.771876
87.793469
88.437796
82.208514
71.800947
57.972670
46.294928
32.624602
24.450421
16.371608
12.407899
9.502769
8.422732
7.806420
7.538795
7.699728
7.397532
7.510781
7.370710
7.383823
7.458925
7.578731
7.601976
7.709861
7.817745
7.815957
7.900000
8.303523
8.177757
7.947683
8.123517
7.936954
8.279681
8.207560
8.185506
8.275509
8.135438
7.860661
7.792711
##ZVALUE=340
0.560880
0.660419
0.678897
0.806451
0.810623
0.674725
0.720620
0.721812
0.722408
0.788569
0.726581
0.800490
0.933409
0.683665
0.716448
0.810623
0.866652
0.953674
0.864863
0.899434
0.927448
0.871420
0.965595
1.011491
1.027584
1.146793
1.059771
1.183748
1.052618
1.017451
1.277924
1.173615
1.217723
1.237988
1.435876
1.320839
1.452565
1.502633
1.525879
1.665950
1.715422
1.565814
1.885891
1.821518
2.199411
2.276897
2.471805
2.763867
3.046989
3.148913
3.852844
4.817843
26.658773
88.467002
286.961794
582.368970
1016.001701
1016.001701
1016.001701
1016.001701
1016.001701
1016.001701
1016.001701
1016.001701
1016.001701
782.430768
333.088636
147.578716
36.108494
14.244914
10.653734
10.454655
10.408759
10.855794
13.633966
17.371774
26.521683
36.531687
52.095652
63.165426
75.444579
80.867410
81.743598
77.617764
67.394972
57.148933
42.738914
33.533573
21.912456
16.546845
11.655688
9.023547
7.981658
7.249713
7.479787
7.196665
7.094741
7.313490
7.439852
7.496476
7.400513
7.824898
7.741451
7.786751
7.886887
7.890463
8.277893
7.933974
8.068681
8.117557
8.072853
8.010864
8.032918
8.184910
7.973909
7.809997
##ZVALUE=345
0.589490
0.679493
0.493526
0.537634
0.709891
0.490546
0.589490
0.677705
0.619888
0.879765
0.861883
0.881553
0.737906
0.780821
0.697970
0.765920
0.834465
0.890493
0.862479
0.981688
0.844598
0.919700
0.928640
0.877976
0.927448
0.880957
0.836849
0.899434
0.939965
1.024604
0.998974
1.098514
1.185536
1.184940
1.209974
1.270771
1.246929
1.368523
1.494884
1.548529
1.428723
1.533628
1.659989
1.563430
1.908541
1.851916
2.122521
2.212524
2.331734
2.702475
2.625585
2.994537
3.321767
4.043579
9.826422
39.168596
177.999735
375.683904
826.557875
1016.001701
1016.001701
1016.001701
1016.001701
1016.001701
1016.001701
1016.001701
1016.001701
1007.300019
479.408503
217.549801
59.816837
22.468567
12.184978
10.746717
9.879470
9.557605
9.920597
11.041760
16.457438
22.581816
34.668446
44.447780
57.340860
66.056848
74.205995
75.309873
72.852969
65.642595
53.582788
44.047832
31.501651
23.427606
16.041994
12.236834
9.047985
8.306503
7.501841
7.358789
7.216930
7.317662
7.566810
7.287860
7.577538
7.708669
7.771850
8.200407
7.865429
8.047819
7.932782
7.895827
7.933974
7.939935
8.007884
7.742643
7.484555
7.758737
##ZVALUE=350
0.691414
0.582933
0.813603
0.738502
0.739694
0.591874
0.754595
0.711679
0.836849
0.875592
0.678897
0.693798
0.633597
0.805855
0.783801
0.678897
0.728965
0.856519
0.792742
0.849962
0.742674
0.842810
0.947714
0.877976
0.969768
1.080632
0.929832
1.070499
1.181960
0.994802
1.197457
1.014471
0.998974
1.183748
1.037717
1.097918
1.292825
1.302958
1.158714
1.178980
1.354814
1.322627
1.361966
1.473427
1.583695
1.540780
1.724958
1.831651
1.925826
2.032518
2.220869
2.234578
2.577901
2.717972
3.116727
3.439784
5.603433
19.944906
94.945431
223.464966
553.150773
937.730670
1016.001701
1016.001701
1016.001701
1016.001701
1016.001701
1016.001701
1016.001701
1016.001701
686.392784
359.174609
111.419559
38.229823
12.728572
9.795427
8.818507
8.150935
8.223653
8.205771
10.700822
14.097691
20.993948
28.591752
40.482879
49.729943
60.844421
66.540837
69.392920
68.589449
60.719848
52.877665
39.929748
30.819774
21.409988
16.734600
11.914968
9.753704
8.490682
7.782578
7.543564
7.248521
7.342696
7.238984
7.404685
7.721782
7.512569
7.660985
7.585883
7.631779
7.668734
7.529855
7.647872
7.372499
7.169843
7.414818
##ZVALUE=355
0.812411
0.857711
0.735521
0.707507
0.616908
0.633597
0.667572
0.732541
0.640750
0.825524
0.788569
0.783801
0.767708
0.887513
0.749826
0.689626
0.771880
0.748634
0.906587
0.667572
0.968575
0.854731
0.762939
0.846982
0.979900
0.881553
0.875592
0.871420
0.944734
0.910759
0.881553
1.027584
1.058578
1.076460
1.029968
1.095533
1.241565
1.139641
1.342893
1.115799
1.241565
1.360774
1.260638
1.485944
1.406670
1.650453
1.475811
1.760721
1.708865
1.790524
1.940727
1.996756
2.177954
2.281666
2.492666
2.630949
3.010631
3.194809
3.918409
8.412004
50.697923
137.388706
376.630425
676.548481
1016.001701
1016.001701
1016.001701
1016.001701
1016.001701
1016.001701
1016.001701
1016.001701
767.842531
428.234935
171.695948
65.192580
15.585423
9.225607
8.154511
7.921457
7.427931
7.154942
7.995963
9.369850
13.099909
17.639995
26.025772
33.494830
45.256615
53.321719
60.481429
63.431859
61.609745
56.587458
47.907829
40.067434
30.512810
23.215413
16.951561
13.131499
9.908676
8.520484
7.610917
7.504821
7.059574
7.187724
7.397532
7.151961
7.322431
7.145405
7.264614
7.341504
7.383823
7.228851
7.264614
7.172823
##ZVALUE=360
0.713468
0.755787
0.743866
0.746846
0.664592
0.670552
0.728965
0.748634
0.770688
0.658631
0.808835
0.766516
0.792742
0.840425
0.640750
0.812411
0.836849
0.811815
0.757575
0.793934
0.693798
0.821948
0.851750
0.961423
0.977516
0.838637
0.825524
0.824928
0.833869
0.875592
0.965595
0.991821
0.911951
0.958443
1.090765
0.999570
1.115799
1.170635
1.206994
1.087785
1.329780
1.352429
1.327991
1.301765
1.254678
1.371503
1.456738
1.248717
1.683831
1.661777
1.655817
1.609921
1.737475
1.894832
2.095699
2.112985
2.267957
2.599955
2.808571
2.921820
3.413558
4.823804
22.896528
72.113872
233.197808
453.790426
922.062993
1016.001701
1016.001701
1016.001701
1016.001701
1016.001701
1016.001701
1016.001701
876.151919
535.259843
230.753422
96.243620
22.704601
9.834766
7.937551
7.457733
6.825924
6.763935
6.552935
7.002950
8.306503
10.153651
15.127659
20.489693
29.243827
37.087798
47.206879
54.233670
57.368875
57.333708
53.818822
48.039556
38.998723
31.980872
23.173690
18.338561
13.084412
10.259748
8.548498
7.761717
7.279515
7.037520
6.956458
6.921887
6.612539
6.504655
6.736517
6.824732
6.756783
6.452799
##ZVALUE=365
0.689626
0.659823
0.555515
0.624657
0.706911
0.612736
0.738502
0.833869
0.763535
0.720620
0.673532
0.727773
0.712872
0.824928
0.675917
0.631809
0.840425
0.660419
0.885725
0.875592
0.783801
0.914931
0.937581
0.845790
0.803471
0.877976
0.977516
0.789762
0.992417
0.884533
0.854731
0.967979
1.038909
0.779629
0.850558
1.086593
1.009703
1.019835
1.137853
0.958443
1.229644
1.091957
1.213551
1.173615
1.278520
1.278520
1.245737
1.396537
1.438856
1.611710
1.538992
1.502633
1.715422
1.749992
1.684427
1.849532
2.101660
1.875758
2.430677
2.323985
2.586842
3.135800
3.328919
3.843904
10.337830
39.724708
155.385733
330.410004
742.555857
1016.001701
1016.001701
1016.001701
1016.001701
1016.001701
1016.001701
1016.001701
981.532931
618.544817
265.646577
121.744871
35.333633
12.649894
7.500648
7.255673
6.639957
6.303787
6.035566
5.836487
6.122589
6.867647
8.908510
11.998415
17.493963
24.135709
33.174753
40.545464
47.888756
51.264763
53.509474
52.016973
45.746565
39.700866
31.420588
25.186539
18.154979
13.744831
10.504723
8.420944
7.448792
6.882548
6.675720
6.516576
6.409883
6.337762
6.127954
6.024837
##ZVALUE=370
0.610948
0.634789
0.603795
0.711679
0.676513
0.826716
0.659823
0.620484
0.742674
0.704527
0.566840
0.769496
0.635982
0.853539
0.823736
0.756979
0.663996
0.690818
0.873804
0.778437
0.813603
0.870824
0.835657
0.699759
0.856519
0.756979
0.646710
0.885725
0.841618
0.964999
0.867844
0.827909
0.792742
0.931621
0.956655
1.017451
1.037717
1.088977
1.028776
0.890493
1.065731
1.121759
1.212955
1.056790
0.978708
1.045465
1.075864
1.330972
1.203418
1.288652
1.286864
1.251698
1.519918
1.387596
1.498461
1.478791
1.620650
1.797676
1.870990
1.936555
2.305508
2.202988
2.520680
2.553463
3.026724
3.311634
5.668402
21.652579
111.464858
264.156461
613.644719
964.633822
1016.001701
1016.001701
1016.001701
1016.001701
1016.001701
1016.001701
1016.001701
769.602656
349.165797
170.507431
57.258010
20.458698
7.721782
6.686449
6.312728
6.075501
5.870461
5.650520
5.449653
5.850792
6.329417
8.143783
11.341572
15.125871
21.603703
28.105974
37.415624
42.781830
48.668981
50.178766
49.385428
45.486689
38.023591
32.193661
24.563670
17.395616
14.156699
10.498762
8.851886
7.232428
6.500483
6.296635
6.039739
5.800724
##ZVALUE=375
0.572801
0.638962
0.610948
0.681877
0.608563
0.572801
0.602603
0.617504
0.699759
0.644922
0.614524
0.621676
0.769496
0.707507
0.592470
0.674725
0.656843
0.529885
0.637770
0.632405
0.542998
0.661612
0.629425
0.801682
0.846982
0.768900
0.777841
0.628829
0.854731
0.742674
0.822544
0.880957
0.792742
1.127720
0.896454
0.909567
0.856519
0.810623
1.041889
0.939965
0.994802
1.009703
1.045465
0.972748
0.927448
0.985861
1.109838
0.915527
1.008511
0.959635
1.232624
1.099706
1.180768
1.224875
1.355410
1.391768
1.415610
1.563430
1.467466
1.652837
1.630783
1.756549
1.933575
2.002716
2.071857
2.513528
2.659559
3.159642
3.871918
12.443662
45.807958
172.999501
367.402434
812.914968
1016.001701
1016.001701
1016.001701
1016.001701
1016.001701
1016.001701
1016.001701
915.725827
558.375716
248.785615
118.117929
32.606721
12.129545
6.934404
6.461740
5.681515
5.687475
5.611777
5.370975
5.187988
5.405545
5.866885
6.683469
9.479523
12.459755
18.623471
23.738742
32.598972
38.567781
44.872761
47.125816
46.823621
44.757724
38.712621
33.736825
26.204586
21.268725
15.078783
11.863708
8.959770
7.744431
6.307960
##ZVALUE=380
0.568628
0.576973
0.503659
0.603795
0.627637
0.607967
0.511408
0.648499
0.371933
0.383854
0.586510
0.605583
0.579953
0.598431
0.728965
0.580549
0.549555
0.690818
0.613928
0.574589
0.781417
0.680685
0.680685
0.856519
0.744462
0.638962
0.763535
0.793934
0.635982
0.837445
0.826716
0.939965
0.933409
0.935793
0.857711
0.784993
0.915527
1.016855
0.986457
1.004934
0.984669
0.939965
1.002550
0.905991
1.058578
0.902414
0.947714
0.974536
1.024604
1.164675
1.103878
1.073480
1.271963
1.067519
1.257658
1.219511
1.254678
1.165867
1.398921
1.305938
1.502633
1.407862
1.521707
1.664758
1.730919
1.636744
2.054572
2.261996
2.672672
3.092885
3.478527
5.936623
30.975938
97.072721
297.287703
552.597642
996.115804
1016.001701
1016.001701
1016.001701
1016.001701
1016.001701
1016.001701
1016.001701
710.574985
414.485931
168.612599
72.371960
17.409921
7.450581
6.150603
5.864501
5.431771
5.401969
5.049706
5.042553
5.039573
5.136728
5.344748
6.102920
8.266568
10.845661
16.115904
21.388531
28.997660
34.875870
41.609406
44.048429
45.117736
42.730570
39.664507
32.991767
27.903914
20.532608
15.942454
11.560917
##ZVALUE=385
0.461936
0.435710
0.652671
0.510812
0.551939
0.439882
0.541806
0.460744
0.488758
0.611544
0.688434
0.491738
0.434518
0.608563
0.567436
0.485778
0.626445
0.589490
0.500679
0.681877
0.561476
0.672936
0.606775
0.650883
0.606775
0.820756
0.675917
0.931621
0.818968
0.792742
0.892878
0.900626
1.096725
0.915527
1.238585
1.083612
0.939965
1.011491
1.057982
1.155734
0.968575
1.122952
1.030564
0.984669
0.945926
0.965595
0.937581
1.033545
1.046658
1.050830
0.973940
1.075864
1.229644
1.073480
1.120567
1.232624
1.165867
1.198649
1.197457
1.295805
1.419783
1.238585
1.418591
1.357794
1.651645
1.641512
1.764894
1.908541
2.113581
2.280474
2.821684
3.123879
3.272891
3.770590
14.065504
52.762628
202.980638
432.825685
903.365016
1016.001701
1016.001701
1016.001701
1016.001701
1016.001701
1016.001701
1016.001701
926.395655
578.193665
252.930522
117.643476
35.392642
11.913776
6.128550
5.640984
5.410910
5.296469
5.037785
5.117655
4.799962
4.738569
4.901886
4.846454
5.675554
6.835461
9.653568
12.998581
18.783808
25.252700
30.470490
35.117865
40.369630
41.454434
40.606856
38.473606
33.035874
26.581883
##ZVALUE=390
0.481606
0.451803
0.486970
0.636578
0.600815
0.525713
0.596642
0.485778
0.646710
0.477433
0.519753
0.483990
0.647902
0.607967
0.627637
0.537634
0.675917
0.527501
0.670552
0.588894
0.613928
0.660419
0.627637
0.677705
0.726581
0.671744
0.742674
0.784993
0.745654
0.856519
0.896454
0.964999
1.077652
1.098514
1.009703
1.000762
1.210570
1.031756
1.117587
1.079440
1.315475
1.057982
1.016855
1.217723
1.072884
1.053810
1.242757
1.040697
1.073480
1.038909
1.215935
1.134872
1.167655
1.196861
1.127720
1.139641
1.157522
1.219511
1.155734
1.140833
1.225471
1.324415
1.311898
1.154542
1.400709
1.506805
1.793504
1.978874
2.109408
2.244711
2.362728
2.468824
2.564788
2.686977
2.862811
3.154874
6.019473
25.995970
126.335621
296.074748
697.883964
1016.001701
1016.001701
1016.001701
1016.001701
1016.001701
1016.001701
1016.001701
1016.001701
868.771672
432.070494
209.711790
61.945915
20.053983
6.791949
5.751848
5.525947
5.556941
5.282760
5.169511
5.016923
4.962683
4.665852
4.675984
4.990697
5.199909
6.391406
8.890629
11.370778
14.868975
20.978451
25.904775
32.031536
36.082864
39.112568
39.676428
##ZVALUE=395
0.490546
0.484586
0.528693
0.453591
0.494719
0.287890
0.482798
0.475645
0.667572
0.711679
0.551939
0.619888
0.553727
0.578761
0.450611
0.479817
0.504851
0.626445
0.568628
0.638962
0.540614
0.569820
0.638962
0.551939
0.674725
0.778437
0.662804
0.769496
0.761747
0.840425
0.909567
0.960827
1.023412
1.109838
1.195669
1.213551
1.291633
1.038909
1.152754
1.058578
1.235604
1.079440
1.224875
1.297593
1.226664
1.242757
1.019835
1.140833
1.180768
1.060963
1.096725
1.030564
1.202822
1.188517
1.135468
1.171827
1.267791
1.177788
1.234412
1.224875
1.255870
1.323819
1.309514
1.235604
1.461506
1.591444
1.720786
1.675487
1.806617
2.027750
2.163649
2.258420
2.504587
2.371669
2.450943
2.526641
2.598763
2.889633
4.201531
13.198853
69.833994
182.539821
472.649932
808.791518
1016.001701
1016.001701
1016.001701
1016.001701
1016.001701
1016.001701
1016.001701
998.464823
550.706983
296.742916
113.366842
43.649673
10.560751
6.173849
5.796552
5.602837
5.447865
5.418658
5.491972
5.071759
5.141497
4.936457
4.862547
4.866719
5.273819
6.032586
7.416606
9.887815
12.929440
18.456578
23.320913
29.367805
##ZVALUE=400
0.737906
0.744462
0.749826
0.547767
0.624657
0.651479
0.615716
0.506639
0.598431
0.522733
0.556707
0.526905
0.540614
0.400543
0.477433
0.460744
0.651479
0.567436
0.628829
0.494719
0.559688
0.606775
0.606775
0.562668
0.693798
0.715852
0.694990
0.788569
0.916719
0.900626
1.014471
1.041889
1.010895
1.040697
1.146793
1.013875
1.168847
1.039505
1.082420
1.118779
1.239777
1.077652
1.163483
1.248717
1.127720
1.112819
1.236796
1.367927
1.315475
1.232624
1.206994
1.240969
1.054406
1.114607
1.227856
1.248717
1.104474
1.076460
1.048446
1.259446
1.328588
1.388788
1.165867
1.239777
1.265407
1.340508
1.555681
1.600981
1.786947
2.144575
2.206564
2.096891
2.363920
2.274513
2.210736
2.163649
2.222657
2.281666
2.889633
2.873540
3.539920
7.997751
45.161843
123.598576
343.122482
628.674030
1016.001701
1016.001701
1016.001701
1016.001701
1016.001701
1016.001701
1016.001701
1016.001701
671.059489
403.538942
173.933506
80.060959
23.780465
8.632541
5.769730
5.407929
5.509853
5.672574
5.623698
5.539656
5.504489
5.239844
5.100965
4.753470
4.927516
4.671812
5.271435
6.264448
8.259416
11.980534
##END
