##TITLE=8-2
##FORMAT=SPECTACLE-ASCII V-1.2
##DATA TYPE=ULTRAVIOLET SPECTRUM
##SECOND TYPE=ULTRAVIOLET SPECTRUM
##DATE=04/04/18
##TIME=13:25:30
##SPECTROMETER/DATA SYSTEM=SPECTACLE
##XUNITS=NM EM
##YUNITS=ENERGY
##YFACTOR=1
##FIRSTX=220
##LASTX=450
##NPOINTS=116
##3DDATA=Equidistant
##ZUNITS=NM EX
##FIRSTZ=210
##LASTZ=400
##ZPOINTS=39
##XYDATA=(Y..Y)
##ZVALUE=210
26.299953
24.590492
18.235445
14.396906
11.310577
10.738969
10.246634
9.124875
7.926822
6.652474
5.529523
4.884601
4.250407
4.433990
4.247427
4.985929
5.524755
5.900860
6.630421
5.209446
5.304813
7.125735
6.613731
7.583499
8.116961
9.176731
10.377765
11.282563
12.332797
14.218688
13.687611
14.647841
14.880896
15.850663
15.214682
16.355515
16.121864
15.343428
16.525984
15.391707
15.526414
16.136765
17.527938
16.651750
15.586615
15.639663
15.701652
15.134811
15.536547
16.198754
16.094446
15.141964
13.827682
15.441775
14.876723
16.843677
15.400648
15.368462
16.854405
14.436841
15.759468
13.506413
15.514493
15.295744
15.568733
15.353560
16.259551
17.293692
19.757748
22.767782
24.539828
30.887723
35.264492
40.442944
43.280721
49.049854
49.893856
49.313903
49.422979
47.732592
43.931603
39.131641
35.071969
27.830601
25.069714
21.260977
18.669963
15.166998
16.014576
16.698837
21.546483
26.025772
36.302805
44.982433
51.062703
67.096949
75.758696
84.822774
94.823837
99.502802
102.070570
102.304816
102.236867
97.781420
95.652938
87.381601
79.983473
69.473982
64.263940
53.399801
44.163465
35.002828
27.380586
22.454858
21.512508
19.220710
##ZVALUE=215
77.032447
80.140829
59.809685
46.989918
33.030510
24.161935
21.539927
17.781854
15.856624
15.313625
13.360977
12.276769
9.610653
7.615685
6.473660
5.838871
4.859567
5.103946
6.529689
5.957484
6.851554
7.181764
8.345842
8.497834
8.774996
10.659695
11.421442
13.145804
13.731718
13.387799
15.025735
16.636848
16.495585
16.247630
17.040968
17.950535
16.973615
16.668439
16.865730
17.864704
19.582510
17.581582
19.069910
17.200708
17.771721
19.125938
18.199682
17.921925
18.529892
18.861890
16.978979
18.096566
18.870831
18.020868
18.376708
18.382668
18.403530
17.618537
17.295480
16.458631
17.575622
16.534925
16.784668
16.751885
16.597509
17.951727
16.376972
18.284917
20.350814
22.981763
28.131604
29.724836
35.211444
38.204789
42.428970
46.541691
44.433475
43.838620
43.519735
41.254759
38.004518
35.299659
30.476451
27.434826
22.850633
19.843578
17.365813
16.013980
14.374852
13.314486
13.728738
12.961626
14.653802
15.457869
19.544959
25.768876
33.321977
46.539903
59.978962
73.596835
92.604756
103.413463
120.112896
132.671595
141.116977
147.184730
154.174566
151.812434
149.247646
142.403841
131.751895
119.446516
109.640956
94.048977
77.948570
58.596730
##ZVALUE=220
174.246430
170.887709
170.514584
149.782896
126.521587
91.084838
66.864491
45.252442
33.314824
27.476549
27.194619
23.994446
22.977591
20.292997
16.844869
12.443662
9.952784
7.774830
6.558895
6.618500
6.966591
6.297827
7.427931
7.740855
8.637905
10.046959
10.797977
11.349916
12.899637
14.934540
14.423728
15.194416
13.998747
15.717745
16.537905
18.004775
18.234849
16.792417
19.014478
19.310713
20.076632
19.067526
19.084811
19.326806
19.187927
19.720793
20.319819
20.711422
20.706654
19.671917
20.168424
20.374656
20.250678
20.210743
19.841790
19.782782
21.025538
19.009709
20.233989
18.568635
17.822981
17.078519
19.059777
18.866658
17.244816
19.595623
19.274950
20.525455
20.803809
21.538734
24.162531
30.061603
33.984780
36.560893
39.983988
42.030811
41.759610
39.421916
41.538477
40.060878
36.563873
33.043623
30.731559
27.861595
24.250746
21.196604
18.724799
16.378760
15.410781
13.763905
13.410449
13.615489
13.749599
14.057755
13.001561
13.799667
13.699532
12.546778
16.231537
20.517707
29.767752
37.641525
53.339601
70.047975
95.298886
116.663575
140.129924
170.370936
188.997984
206.780434
212.605596
229.965448
231.275558
223.693848
207.032561
202.776790
##ZVALUE=225
201.175809
202.310681
262.447596
289.012790
294.651985
271.588564
228.814483
168.762803
122.358799
78.977942
56.903958
40.928721
40.616989
40.720701
39.316416
35.751462
29.068589
22.464991
17.801523
12.045503
9.305477
7.957816
8.026958
7.926822
7.482767
8.974671
9.596944
11.001825
10.946989
12.642741
12.342930
12.093782
14.169812
16.408563
15.716553
16.792417
17.282963
18.987656
20.283461
20.445585
20.001531
21.072626
21.297932
21.955967
20.869970
20.966530
21.866560
21.966696
21.763444
22.176504
21.307468
23.335814
23.287535
21.893978
21.081567
22.351742
23.046732
22.424459
21.212697
20.298958
21.412969
20.692945
20.487905
19.079447
20.205975
19.957423
21.056533
21.693707
23.673773
25.071502
27.226806
29.422641
34.751892
35.965443
37.448406
36.150813
36.557913
36.177635
34.430623
30.913949
28.467774
26.170611
25.543571
22.085905
19.426942
18.008947
18.038750
16.196966
16.350746
14.888644
14.110804
13.373494
14.383793
14.769435
14.068484
14.885664
13.810992
14.706850
14.303923
13.855696
13.962984
13.925433
15.514493
16.832948
22.835732
32.541752
50.482750
75.751543
94.515681
127.158761
163.307786
203.104615
238.982439
282.271504
309.178829
330.321789
##ZVALUE=230
126.392841
139.434934
230.812430
309.293866
389.440656
479.421616
509.474874
493.618846
465.526581
368.786454
276.772976
171.880722
113.813877
73.757768
59.167743
62.642694
66.531897
60.192943
51.843524
41.952729
31.381845
22.370815
16.271472
13.916492
9.815693
8.764863
9.205937
11.488795
10.994673
12.835860
13.043880
14.015436
15.372634
15.120506
15.685558
17.051697
19.240975
19.419789
19.674897
22.768974
21.892786
21.876693
24.654865
23.396611
22.834539
23.825765
25.379658
25.980473
23.666620
24.607778
23.868680
25.831461
26.463866
24.294853
23.479462
24.226904
26.044846
25.404692
24.144650
24.152994
23.000836
24.863482
24.107695
23.122430
23.420453
22.596717
22.993684
22.864938
26.217699
27.906895
31.496882
31.388998
35.681725
38.732886
39.345622
40.870905
39.387941
37.521720
34.921765
32.244921
31.287670
28.324723
24.074912
23.183823
20.776987
19.659996
18.717647
19.339919
18.325448
18.103719
17.075539
18.485785
17.039776
16.120672
15.772581
15.913844
17.142892
15.394688
14.832616
15.149713
16.116500
15.050769
15.346408
14.768839
16.184449
17.052889
15.218854
18.768907
20.042658
30.313730
39.231777
66.015720
84.072948
135.048628
172.268748
229.986906
##ZVALUE=235
34.372807
36.306977
85.690618
161.950588
265.458822
420.308709
542.608500
676.676035
721.705556
695.963502
618.522763
457.462668
340.791941
209.581852
151.565671
104.150772
84.902644
89.514852
92.161894
92.166662
81.196427
69.894791
53.708553
38.786530
28.181672
19.022822
14.332533
10.383725
11.225939
11.354685
12.018681
11.549592
12.118816
12.218952
13.613701
16.206503
16.228557
16.234517
17.243624
19.693971
20.040870
20.706654
21.098852
21.274686
19.440651
20.826459
21.727681
21.876693
21.229982
20.645857
20.144582
22.357702
20.522475
21.293759
19.163489
20.931959
20.319819
20.031929
19.301772
18.567443
19.269586
18.602610
18.885732
18.968582
20.212531
19.544959
19.634962
20.169616
19.791722
23.253560
23.267865
25.487542
27.175546
29.948950
30.279756
29.919744
29.133558
29.243827
26.523471
26.001930
23.588538
21.131635
20.139813
18.349886
19.418597
16.059875
15.497804
16.297698
16.138554
17.418861
14.572740
14.548898
15.846491
13.505816
14.490485
15.358925
13.931990
15.220642
15.245676
13.981462
14.539957
12.514591
13.635755
14.888644
15.632510
13.285875
16.050935
14.953613
14.952421
13.810992
13.705492
15.601516
15.552640
22.407770
30.029416
47.993660
##ZVALUE=240
3.788471
4.158616
13.870597
83.984733
96.881986
182.671547
355.932713
578.788519
752.058029
886.807442
1012.160778
1015.012860
931.020975
568.384528
544.286966
267.155766
233.157873
125.433803
118.079782
117.990971
117.610693
120.925903
118.654966
93.809962
90.204477
69.666505
52.906871
25.830865
24.883747
14.468431
15.141964
14.309883
12.994409
14.242530
15.149713
15.487671
16.497970
17.867684
17.802715
18.275976
19.656420
20.156503
18.592477
20.094514
19.813776
20.411611
21.154881
21.592975
21.414757
21.926761
21.103621
21.032691
19.760728
21.927953
19.629598
20.047426
21.089911
18.550754
21.339655
19.085407
18.761754
20.813942
19.268990
18.584728
18.250942
19.165874
19.114614
20.156503
20.161867
22.836924
23.388863
25.265813
28.374791
28.375983
29.917955
29.600859
29.042959
29.028654
26.382804
25.799870
23.907423
21.191835
19.789934
19.618869
19.951463
17.692447
18.365979
16.292930
15.895963
17.342567
15.324950
16.986728
15.631914
16.281605
15.679598
15.136600
17.679930
15.995502
15.563965
15.996695
15.948415
14.918447
15.507936
15.040636
17.049909
17.146468
16.211867
15.277863
15.779734
15.868545
15.391707
14.911890
16.198754
15.746951
15.006661
15.584826
##ZVALUE=245
2.788901
2.693534
2.384782
3.213882
5.818605
23.103952
61.068535
164.745450
296.590924
530.802608
741.797686
997.985601
1016.001701
1016.001701
1016.001701
943.852663
764.217973
504.816771
346.224904
193.035603
136.318803
113.826990
118.850470
132.007003
131.527781
126.312971
117.781758
94.266534
82.786679
54.217577
40.336847
26.043653
19.198656
15.245676
14.352798
14.406443
14.979839
15.072823
15.391707
15.243888
17.422438
16.752481
17.732978
17.201900
16.953945
18.561482
18.887520
18.948913
18.308759
17.817616
18.534660
19.454956
17.443895
18.071532
16.685724
17.913580
17.200708
16.390681
17.395616
18.040538
17.452836
15.476942
16.399622
16.887784
16.014576
15.795827
17.336607
17.268658
17.032623
19.031763
20.380616
21.238923
22.558570
24.605989
24.819970
24.843812
23.477674
23.632646
22.005439
21.410584
20.393729
19.009709
16.944408
18.033981
16.511679
13.977885
15.564561
14.372468
14.827847
15.731454
15.201569
14.992952
15.023947
13.102889
14.767647
14.164448
13.687611
14.800429
14.738441
14.114976
13.980865
13.493896
13.717413
12.883544
13.801455
14.221668
13.985634
14.562607
13.909936
14.594793
15.530586
14.818907
13.641715
14.353991
14.535785
14.203787
##ZVALUE=250
2.098680
2.703667
2.246499
2.913475
2.321601
3.086925
3.716946
16.300678
42.684674
129.557848
244.252682
497.669578
720.947981
998.745561
1016.001701
1016.001701
1016.001701
1016.001701
992.544889
696.882606
474.970937
263.574719
161.297917
111.984611
108.114481
132.245421
139.994621
144.946575
141.222477
130.556822
108.560920
87.749958
61.517954
44.370890
29.029846
20.894408
16.469955
15.888810
15.826821
17.034411
16.346574
16.144514
16.397834
16.522408
17.819405
17.237663
17.356873
18.039942
16.975999
18.467903
17.607808
18.203855
18.376708
16.777515
17.594695
15.753508
16.002655
15.766621
15.731454
15.774965
14.102459
15.719533
15.622973
14.792681
15.286803
15.753508
14.066696
13.979673
15.917420
17.140508
17.810464
18.662810
20.222664
19.645691
20.877719
20.412803
19.728541
19.638538
19.099712
18.345714
16.095638
15.842915
15.564561
14.071465
13.646483
13.215542
13.428926
12.829900
11.959672
12.452602
11.845827
12.739897
13.922453
13.088584
12.465715
12.063980
12.735724
13.288856
12.508631
13.141632
12.609959
13.178587
12.510419
13.034940
13.349652
13.480783
13.315678
13.315678
13.797879
13.199449
13.153553
12.213588
12.678504
13.081431
12.676716
12.871623
##ZVALUE=255
2.278686
2.082586
2.169609
2.222657
2.469420
2.431870
2.503991
2.476573
3.269911
9.005666
28.720498
99.214911
197.037458
429.108739
648.666024
982.743502
1016.001701
1016.001701
1016.001701
1016.001701
1016.001701
947.420001
665.711761
366.414785
215.143561
120.392442
103.643537
110.320449
131.997466
147.617459
153.883696
151.914954
135.045648
115.767717
90.323687
67.879558
43.449998
31.864643
22.584796
19.532442
17.621517
16.533732
16.637444
17.338991
18.348694
19.262433
19.116998
18.807650
18.128753
17.787814
16.600490
18.107891
17.444491
16.643405
16.699433
16.987920
16.297698
17.048717
16.500950
15.508533
15.252829
15.026927
15.008450
14.047623
13.908744
14.690757
14.034510
14.823675
14.427900
15.241504
15.434623
17.824769
17.378926
18.650889
18.403530
18.050671
17.996430
16.225576
15.956759
15.941858
13.220906
13.097525
13.084412
12.683868
12.392998
11.434555
11.654496
11.811852
11.738539
11.071563
10.633469
10.455847
11.118650
11.540651
10.743737
10.558963
10.864735
11.267662
11.389852
10.643601
11.461973
11.073947
11.423826
12.108684
12.462735
11.813641
12.767911
12.171865
12.456775
12.184978
12.767911
12.668967
10.973811
12.419820
11.321902
11.558533
##ZVALUE=260
1.714826
1.991987
1.351833
1.894832
1.759529
2.175570
2.184510
1.959801
2.443790
2.315640
2.922416
5.002618
15.204549
66.174865
139.348507
327.578783
540.366769
897.473693
1016.001701
1016.001701
1016.001701
1016.001701
1016.001701
1016.001701
890.916586
510.042906
321.041942
197.932720
110.380650
96.278787
113.935471
134.946704
155.634880
163.391829
159.498453
145.696998
119.608641
97.304583
69.977641
53.719878
36.019683
27.679801
21.698475
20.977855
20.352602
19.493699
20.653605
20.296574
18.992424
20.719767
20.036697
18.811822
18.954873
19.354820
18.260479
17.684698
17.658472
17.994642
16.695857
16.281605
14.899969
16.137958
15.408993
14.148951
14.825463
13.895631
14.286637
15.061498
13.908744
15.402436
15.818477
15.886426
15.840530
16.834736
16.404986
16.956925
15.956759
14.838576
14.893413
12.788773
13.399720
12.587905
12.169480
11.146665
10.641813
10.312796
11.137724
10.438561
10.009408
10.183454
10.264516
9.673834
9.375811
9.552836
10.006428
9.742975
9.874701
10.455847
9.794831
10.103583
10.500550
10.258555
10.895729
11.129975
10.751486
10.502934
11.310577
11.046529
11.036992
10.277629
10.965466
11.071563
10.552406
11.187792
11.022687
10.853410
##ZVALUE=265
1.499653
1.665950
1.878738
1.477599
1.683831
1.696944
1.825690
1.783967
2.051592
2.046824
2.066493
2.742410
2.615452
3.188848
8.580685
43.362975
103.651881
261.387825
455.073714
849.398971
1016.001701
1016.001701
1016.001701
1016.001701
1016.001701
1016.001701
1016.001701
802.666545
440.536737
268.424749
141.527653
98.931789
100.119710
117.893815
148.750544
160.727501
171.334743
166.973472
146.872997
126.161575
97.068548
75.039864
52.088499
40.616989
30.765533
26.520491
23.514628
24.040937
22.321939
22.215843
22.491813
21.534562
20.705462
21.373630
20.713806
20.252466
20.092726
19.142628
19.092560
17.574430
17.680526
16.883612
16.597509
15.872717
15.115738
15.294552
14.891624
14.762878
14.718771
16.038418
15.349984
15.637875
15.885830
15.521646
15.081763
15.494823
14.780760
13.639927
13.870597
12.632608
12.382865
11.075735
11.141896
10.690689
9.876490
9.766817
9.789467
9.763837
9.317994
9.326935
10.232925
9.640455
9.358525
9.210706
9.211898
8.663535
8.651614
9.764433
9.516478
9.410977
9.952784
9.731650
9.424686
9.664893
10.535717
10.217428
9.554625
10.196567
10.889769
10.178685
10.820627
9.482503
10.259748
10.388494
9.761453
10.025501
##ZVALUE=270
1.522899
1.560450
1.632571
1.523495
1.387596
1.505613
1.462698
1.559854
1.923442
1.956820
1.986623
1.912713
2.114773
2.567768
2.573729
2.802610
3.958941
20.694733
60.306787
191.363692
368.383527
738.716722
1016.001701
1016.001701
1016.001701
1016.001701
1016.001701
1016.001701
1016.001701
1016.001701
711.080432
450.946689
226.897597
129.462481
85.933805
95.799565
127.505660
150.186419
170.265436
178.263783
174.359679
154.941678
135.020614
104.064941
80.050826
57.194829
43.926835
34.274459
29.680729
26.321411
25.231838
24.755597
23.824573
22.727847
22.151470
22.175908
21.793842
20.659566
20.219684
19.752979
18.794537
17.207861
16.985536
16.769767
16.165972
15.803576
15.460849
14.327765
14.730692
15.136600
15.476942
15.482903
15.404820
15.300512
15.672445
15.838742
14.259815
13.671517
12.753606
12.664795
12.435913
10.792613
10.771751
9.971857
10.373592
9.655952
9.556413
9.543896
9.387732
8.793473
9.063482
9.560585
9.054542
8.558631
9.217858
8.595586
8.940697
8.320808
8.249879
8.244514
8.566976
8.795857
9.045601
9.554625
9.562969
9.225607
9.311438
10.203719
9.452701
10.159612
9.421706
9.567738
9.691715
9.896755
9.578466
9.248853
##ZVALUE=275
1.434684
1.370907
1.249909
1.451969
1.790524
1.537800
1.422763
1.647472
1.867414
1.711845
1.949668
1.645684
2.056956
1.958609
1.970530
2.434850
2.399683
2.752542
3.142953
9.383559
35.013556
127.480626
274.719596
613.746643
961.033702
1016.001701
1016.001701
1016.001701
1016.001701
1016.001701
1016.001701
1016.001701
976.545811
639.563799
319.159627
175.537467
86.025596
76.300502
101.026893
125.439763
148.168802
171.816945
177.388787
172.786713
160.165429
128.957629
107.924938
81.990957
61.690807
46.934485
35.199523
29.938817
26.136637
25.303960
23.537874
22.896528
22.337437
22.041798
19.646883
20.069480
18.727779
18.044710
17.918944
17.607808
16.514659
15.680790
15.568733
15.313625
15.436411
14.682412
15.103817
15.745759
15.711784
15.504956
15.404820
15.123487
14.512539
13.591647
13.829470
12.148619
11.686683
11.927485
10.007620
10.426641
10.079741
9.772778
9.299517
9.523630
9.569526
9.331703
9.041429
8.996725
8.974671
8.477569
8.372664
8.247495
8.442998
8.634925
8.623600
8.852482
8.355975
8.271933
8.920431
9.069443
9.036660
8.905530
9.356737
8.583665
9.168983
9.158850
8.331537
9.034872
9.231567
8.481741
9.208918
8.775592
##ZVALUE=280
1.333952
1.295805
1.309514
1.259446
1.379848
1.295805
1.397729
1.331568
1.549721
1.801848
1.503825
1.689792
1.809597
1.884699
1.821518
1.796484
2.054572
2.359748
2.293587
2.550483
3.095865
5.408525
21.112561
93.410611
213.795900
487.651825
780.148506
1016.001701
1016.001701
1016.001701
1016.001701
1016.001701
1016.001701
1016.001701
1016.001701
686.705709
406.504869
176.244974
92.524886
62.961578
73.446631
100.434422
123.475790
151.599646
167.841911
173.263550
168.030858
149.339437
130.130649
101.832747
80.669522
56.429505
41.360855
31.224489
25.577545
22.279620
19.858479
19.448996
19.050837
18.534660
18.579960
18.018484
17.296672
16.805530
16.537905
16.110539
14.373660
15.102625
15.195608
14.640689
15.245676
14.867783
14.810562
14.973879
14.735460
14.359951
14.009476
12.785792
12.424588
12.240410
11.405945
11.185408
10.421872
10.131598
9.672642
9.369850
9.607673
9.505749
9.246469
8.920431
9.006858
9.050965
8.348823
8.990765
8.131862
8.228421
8.131862
8.585453
8.737445
8.029938
8.017421
8.577704
8.726716
8.061528
8.417964
8.875728
8.741617
8.718967
8.724928
8.633733
9.160638
8.410811
8.585453
8.566976
8.213520
8.607507
##ZVALUE=285
1.105666
1.364946
1.336932
1.300573
1.367927
1.365542
1.167655
1.314878
1.266599
1.253486
1.147985
1.491904
1.630783
1.692772
1.611710
1.937747
1.685619
1.895428
1.864433
2.117753
2.233982
2.557635
3.221631
3.768802
9.039640
50.008893
124.248862
260.316730
575.497746
927.497745
1016.001701
1016.001701
1016.001701
1016.001701
1016.001701
1016.001701
1016.001701
957.173705
500.933528
284.675956
116.617680
61.401725
51.246881
63.231587
89.102983
113.076568
137.985945
154.595971
162.896514
160.540938
144.095421
124.970675
96.266866
74.359775
51.599741
37.828684
25.002956
20.946860
17.504692
15.960932
15.824437
15.084743
15.336871
14.757514
14.275908
14.103651
13.223886
13.472438
13.597608
13.695955
13.934970
13.898611
14.291406
14.402866
14.312863
13.925433
13.321638
12.425780
12.101531
12.035966
10.950565
9.862781
10.029674
9.486675
9.486675
9.091496
9.380579
8.858442
8.843541
8.769631
8.726716
8.305907
8.434653
8.518696
8.419752
7.907748
8.161664
8.258820
7.950664
8.761883
8.227825
8.147955
7.641912
8.402467
8.048415
8.063912
8.149743
8.581877
7.877946
8.147955
8.142591
8.111596
7.760525
8.025765
7.405877
7.914901
##ZVALUE=290
1.049638
1.115799
1.112819
1.159906
1.025796
0.949502
1.168847
1.189709
1.407862
1.286864
1.078844
1.158714
1.232624
1.303554
1.332760
1.498461
1.551509
1.678467
1.755953
1.819730
2.138615
2.220869
2.468824
2.620816
2.771616
3.100634
4.187822
20.299554
65.898895
163.600445
411.597490
702.381730
1016.001701
1016.001701
1016.001701
1016.001701
1016.001701
1016.001701
1016.001701
1016.001701
768.072009
371.297598
185.453892
68.324804
39.064884
43.334961
56.775808
81.277490
102.490783
122.785568
144.095421
153.811574
150.011778
140.273571
114.541650
92.688799
66.174865
47.829747
31.487942
22.833943
17.070770
13.829470
12.432933
12.099743
11.726618
11.875629
11.119843
11.557937
12.395978
12.363791
12.301803
12.464523
13.041496
12.949705
12.804866
12.150407
11.442900
11.199713
11.034608
10.384917
10.440946
9.888411
9.744763
9.445548
9.478927
8.908510
8.860826
9.079576
8.932948
8.580685
8.675456
9.021759
7.912517
8.049607
8.422732
8.089542
8.205771
8.351803
7.975698
8.200407
8.294582
7.838607
8.510947
7.903576
8.287430
7.766485
8.241534
8.335710
8.243918
8.076429
8.216500
7.736683
7.814765
7.859468
7.772446
7.241964
##ZVALUE=295
1.048446
1.003742
0.975728
1.105666
1.109838
1.153946
1.047850
1.073480
1.156926
1.180768
1.078844
1.260638
1.209974
1.161695
1.309514
1.495481
1.419783
1.531839
1.552701
1.574755
1.666546
1.890659
2.005696
2.173781
2.215505
2.222657
2.692938
3.046989
3.549457
6.795526
35.805702
102.267861
291.592479
543.426871
986.822844
1016.001701
1016.001701
1016.001701
1016.001701
1016.001701
1016.001701
1016.001701
888.716578
543.452501
235.177875
108.361840
38.282871
26.912689
35.811663
49.616694
74.718595
94.852448
119.464993
133.127570
143.819451
141.070485
123.713613
109.884739
84.681511
65.075755
43.404698
31.316876
19.670725
14.899969
11.187792
10.471940
10.150671
10.216832
10.008812
10.427833
10.912418
11.528730
11.042953
11.823773
11.292696
11.047721
10.802746
10.333657
9.977818
10.015965
9.705424
9.768605
9.489655
9.238720
8.937716
9.003878
8.973479
8.806586
8.731484
8.661747
8.362532
7.800460
8.092523
8.377433
8.104444
8.259416
7.790923
8.048415
7.842779
8.060932
8.016825
7.744431
8.228421
8.370876
8.134842
7.770658
8.079410
8.303523
8.001924
8.337498
8.064508
7.835627
7.728934
7.813573
7.374883
7.510781
##ZVALUE=300
0.897646
0.889897
0.942945
0.911951
0.882745
1.131892
1.090765
1.046658
0.998974
1.024604
1.120567
1.128912
1.229644
1.016855
1.143813
1.254678
1.247525
1.483560
1.427531
1.452565
1.573563
1.476407
1.516938
1.751781
1.962781
1.901984
2.199411
2.181530
2.434850
2.537966
2.914667
3.513694
13.725758
54.321885
190.289617
380.265713
780.792832
1016.001701
1016.001701
1016.001701
1016.001701
1016.001701
1016.001701
1016.001701
1016.001701
656.484962
384.408832
167.884827
73.549747
29.858947
22.361875
29.231906
46.209693
63.478947
89.535713
108.977556
127.358437
136.451721
131.997466
124.963522
104.648471
86.371899
61.139464
44.503808
27.368665
19.499660
13.686419
11.081696
9.874701
9.629726
9.811521
10.440946
10.321736
10.438561
10.442734
10.165572
10.003448
9.748936
9.564757
9.361506
9.235740
9.221435
9.193420
9.120703
8.844733
8.577704
8.471608
8.506775
8.213520
8.320808
8.145571
8.344650
8.223653
7.868409
7.788539
8.222461
8.284450
7.976890
8.041859
8.113980
8.341670
7.770658
8.069873
7.995963
7.685423
7.811785
7.680655
7.722974
7.784963
7.830858
7.572770
7.667542
7.615685
7.501841
7.500648
7.307529
##ZVALUE=305
1.002550
0.914931
0.912547
0.915527
0.880957
0.809431
0.908971
0.836849
0.973940
0.956655
1.013875
0.952482
1.064539
0.993609
0.943542
1.070499
1.171827
1.071692
1.243949
1.119971
1.340508
1.393557
1.427531
1.426935
1.481771
1.622438
1.715422
1.861453
2.180934
2.245903
2.559423
2.611876
2.842546
3.336668
7.543564
29.137731
121.825933
273.003578
619.297624
965.610743
1016.001701
1016.001701
1016.001701
1016.001701
1016.001701
1016.001701
1016.001701
874.909759
527.477860
282.102823
100.684762
41.044950
17.607808
18.981695
28.994679
40.264726
62.028766
80.726743
104.079843
116.893649
126.250982
127.797723
116.352439
101.105571
77.444911
58.586001
40.313601
28.134584
17.447472
12.697577
10.723472
10.354519
9.756684
9.648800
10.029674
9.520650
9.613633
8.958578
8.817911
8.919835
8.654594
8.694530
8.973479
8.714795
8.348823
8.601546
8.392930
8.694530
8.430481
8.363724
8.385777
8.151531
8.096695
7.891655
7.940531
8.025765
8.019805
7.554889
7.895827
7.952452
7.792711
7.654428
8.069873
7.696748
7.898808
8.203983
7.867813
8.471608
7.981658
8.200407
7.736683
7.701516
7.624626
7.825494
7.494688
7.904768
##ZVALUE=310
0.855923
0.922680
0.802875
0.794530
0.727773
0.922680
0.838637
0.916719
0.951886
0.922680
0.904799
0.815988
0.891685
1.170635
0.947714
1.030564
1.186728
1.134872
1.059771
1.288652
1.238585
1.250505
1.342893
1.294613
1.312494
1.306534
1.546741
1.598597
1.820922
1.808405
1.930594
2.096891
2.136827
2.473593
2.523661
2.993941
4.193783
12.983680
67.812800
163.995624
414.030552
718.052983
1016.001701
1016.001701
1016.001701
1016.001701
1016.001701
1016.001701
1016.001701
1016.001701
663.264990
386.126637
156.776905
69.471598
21.529794
14.248490
18.413663
24.413466
37.637949
52.195787
74.129701
91.042519
110.023618
117.708445
121.327639
111.902952
96.459985
79.470873
55.003762
40.614605
25.697947
19.193888
13.469458
11.300445
9.832978
9.516478
8.676648
8.965731
8.373857
8.407831
8.237958
8.171797
8.442998
8.696914
8.006692
8.569956
8.349419
8.093715
8.148551
8.088946
8.257627
8.034706
8.137822
7.935762
8.024573
7.788539
7.786751
7.891655
8.019805
7.909536
7.871985
7.989407
8.120537
7.892847
7.967949
7.754564
7.918477
8.099675
8.122921
7.747412
8.026958
7.942915
7.641912
7.833838
7.764697
7.362962
##ZVALUE=315
0.713468
0.835657
0.836849
0.964999
0.738502
0.780821
0.866652
0.856519
0.986457
0.892878
1.017451
0.894666
0.985861
0.739694
0.877976
0.877976
0.981688
1.029968
1.042485
1.084805
1.092553
1.116991
1.218915
1.176000
1.141429
1.419783
1.399517
1.466870
1.411438
1.381636
1.556873
1.616478
1.752973
2.084970
2.120733
2.217889
2.577901
2.902746
3.248453
7.228851
27.663708
117.975473
260.446668
598.098040
966.301560
1016.001701
1016.001701
1016.001701
1016.001701
1016.001701
1016.001701
1016.001701
924.366713
478.298664
251.998901
87.139606
33.348799
13.272762
12.500882
16.264915
21.718740
35.656691
48.603415
68.961978
85.943937
103.183985
111.991763
112.725496
106.015801
90.357661
74.866414
54.473877
40.685534
25.907755
19.090772
12.528896
10.480881
8.765459
8.587837
8.165836
8.020997
8.039474
8.220673
8.155704
7.789731
8.358955
7.891655
7.812977
7.867813
7.903576
7.717609
8.053780
7.771850
7.843971
7.764697
7.790923
7.759929
7.941723
8.012652
7.957816
8.093715
7.976890
8.117557
8.111596
7.865429
7.939935
8.053780
8.055568
8.080602
8.011460
7.743835
7.941723
8.168817
7.813573
7.575750
7.727742
##ZVALUE=320
0.739694
0.939965
0.764728
0.951886
0.730753
0.766516
0.738502
0.770688
0.892878
0.796914
0.855923
0.814795
0.893474
0.927448
0.887513
0.891685
0.929832
0.945926
1.193881
1.039505
1.007915
0.962615
1.050830
1.116991
1.223683
1.214743
1.281500
1.198649
1.327991
1.280904
1.464486
1.628995
1.524687
1.658797
1.909733
2.112985
2.032518
2.140999
2.649426
2.536774
3.003478
3.521442
15.146732
52.478909
188.988447
383.365750
779.491663
1016.001701
1016.001701
1016.001701
1016.001701
1016.001701
1016.001701
1016.001701
1016.001701
715.854764
319.397449
160.065889
53.232908
20.878911
10.856986
11.395812
14.674664
20.043850
31.086802
43.118596
63.213706
78.270435
97.283721
105.215907
106.677413
101.863742
86.935759
72.378516
53.234696
39.049983
24.733543
17.238855
11.831522
9.747744
8.210540
7.818937
7.862449
7.592440
7.680655
7.374883
7.501841
7.627606
7.716417
7.802844
7.559657
7.744431
7.802844
7.440448
7.802844
7.664561
7.640719
7.764697
7.649660
7.834435
7.636547
7.590652
7.884502
8.076429
7.592440
7.990599
8.259416
7.916689
8.084774
8.055568
7.957816
7.959604
7.812977
7.866621
7.915497
7.705688
##ZVALUE=325
0.623465
0.727773
0.636578
0.704527
0.520945
0.690818
0.747442
0.760555
0.600815
0.743866
0.784993
0.700951
0.720620
0.756979
0.871420
1.003742
0.919700
0.939965
0.933409
0.902414
1.036525
1.034737
0.897646
1.061559
0.936985
1.057982
1.193881
1.315475
1.195669
1.259446
1.263618
1.470447
1.243949
1.446605
1.571774
1.599789
1.907945
1.864433
1.873970
2.311468
2.285838
2.524853
2.774596
3.150702
7.685423
30.001402
120.801926
266.749859
611.563921
964.860916
1016.001701
1016.001701
1016.001701
1016.001701
1016.001701
1016.001701
1016.001701
849.049687
440.330505
236.818790
81.237555
30.438900
11.136532
9.940863
10.660887
12.728572
19.705892
28.010607
44.678450
60.042739
79.706907
91.996789
100.206733
100.772977
93.517900
83.106756
62.827468
49.129725
32.447577
23.523569
15.402436
11.772513
8.751750
8.019805
7.455945
7.597804
7.790923
7.195473
7.592440
7.467866
7.252693
7.216930
7.355809
7.049441
7.318854
7.556677
7.395744
7.583499
7.732511
7.666945
7.714629
7.821918
8.178949
8.207560
8.068681
8.424520
8.125901
8.290410
8.233786
8.281469
8.155704
7.962584
7.832646
7.832646
7.805824
7.520914
##ZVALUE=330
0.788569
0.831485
0.789762
0.682473
0.672936
0.796914
0.603795
0.631809
0.869632
0.926852
0.696778
0.799894
0.721812
0.565648
0.767708
0.876784
0.928640
0.767708
0.840425
0.909567
0.900626
0.780821
0.849962
0.778437
0.837445
0.933409
1.010895
0.965595
1.118779
1.216531
1.059771
1.116991
1.226664
1.219511
1.366735
1.343489
1.511574
1.599789
1.644492
1.784563
1.777411
1.847744
2.229810
2.471805
2.839565
2.883673
4.345775
12.704730
65.047741
169.025660
436.012745
741.242766
1016.001701
1016.001701
1016.001701
1016.001701
1016.001701
1016.001701
1016.001701
1009.009480
578.990579
325.677991
124.911666
50.982833
14.203787
9.513497
9.329915
10.040998
13.196468
18.761754
29.833913
40.758848
57.518482
71.136951
86.195469
92.469454
93.163848
88.177919
73.816776
61.729550
44.077635
33.141971
22.073984
16.466975
11.157990
9.344816
7.851720
7.319450
7.420778
7.277727
7.263422
7.200837
7.016659
7.233620
7.075667
7.193685
7.289648
7.505417
7.515550
7.300973
7.752776
7.646680
7.719994
7.841587
7.842779
7.737875
8.118749
8.258820
7.846951
8.086562
8.032918
8.230805
8.253455
7.772446
7.805824
7.678866
##ZVALUE=335
0.640750
0.691414
0.599623
0.559688
0.638962
0.658631
0.589490
0.666976
0.622869
0.729561
0.759959
0.711679
0.710487
0.881553
0.824928
0.761747
0.801682
0.627637
0.901818
0.675917
0.851750
0.893474
0.861883
0.963807
1.035929
1.005530
0.978708
0.972748
1.031756
0.968575
1.099706
0.931621
1.171827
1.221895
1.157522
1.243949
1.112819
1.309514
1.401901
1.456738
1.372695
1.571774
1.716614
1.808405
1.899600
2.187490
2.407432
2.554655
2.990961
7.793903
28.706789
116.482973
252.915025
584.629774
953.601003
1016.001701
1016.001701
1016.001701
1016.001701
1016.001701
1016.001701
1016.001701
765.633583
395.338535
204.211473
67.863464
24.322867
9.988546
8.812547
8.763671
9.599924
12.722611
17.264485
26.998520
37.749410
54.448843
66.254735
80.591440
85.792542
86.508989
81.817508
69.840550
58.417916
42.535663
32.690763
22.344589
16.496778
11.474490
9.401441
7.826686
7.258654
6.916523
7.203817
7.064939
7.407665
7.060766
7.244945
7.295609
7.184744
7.227659
7.653832
7.535815
7.956624
7.699728
7.854700
8.024573
8.006692
8.319616
8.177757
7.925630
8.026958
7.951856
7.956624
8.018613
7.978678
7.714629
##ZVALUE=340
0.571609
0.568628
0.629425
0.629425
0.790954
0.628829
0.682473
0.608563
0.612736
0.513792
0.606775
0.722408
0.571609
0.642538
0.759959
0.717640
0.799894
0.597835
0.834465
0.803471
0.766516
0.785589
0.829697
0.798702
0.792742
0.885725
0.910759
0.823736
0.914931
0.929832
0.867844
1.062751
0.901818
1.046658
1.176596
1.206994
1.186728
1.259446
1.193881
1.380444
1.183748
1.414418
1.474619
1.396537
1.731515
1.658797
1.820922
1.979470
2.262592
2.420545
2.851486
3.612638
18.826723
61.584711
201.061964
406.341553
848.177671
1016.001701
1016.001701
1016.001701
1016.001701
1016.001701
1016.001701
1016.001701
872.560740
541.199446
247.111917
114.275813
30.201674
12.052655
8.675456
8.701682
8.864999
9.461641
12.144446
15.915632
25.136471
34.824610
50.498843
62.286854
75.684786
80.817938
80.583692
77.166557
66.386461
57.261586
43.021441
32.833815
22.603869
16.420484
11.340976
9.132624
7.742643
7.515550
7.096529
6.978512
6.928444
6.695986
7.114410
7.156730
7.215738
7.323623
7.377863
7.352829
7.677674
7.941723
7.775426
7.894635
7.743835
7.760525
8.081794
7.975698
7.774830
7.910728
7.859468
7.831454
##ZVALUE=345
0.549555
0.835657
0.649691
0.583529
0.873804
0.494719
0.583529
0.647902
0.755787
0.548959
0.790954
0.675917
0.812411
0.610948
0.732541
0.672936
0.700951
0.731945
0.663996
0.510812
0.527501
0.799894
0.877976
0.872612
0.824928
0.861883
0.722408
0.914931
0.867844
0.993609
0.734925
0.836849
0.954866
0.925660
1.057982
1.136661
1.161695
1.217723
1.192689
1.099706
1.112819
1.248717
1.170635
1.367927
1.503825
1.636744
1.611710
1.693964
1.710653
2.117753
2.043843
2.315640
2.685785
2.895594
8.003712
31.468868
131.698847
275.280476
600.123405
942.253470
1016.001701
1016.001701
1016.001701
1016.001701
1016.001701
1016.001701
1001.582742
687.275529
313.357711
150.682926
46.443939
17.852783
9.531975
8.693933
8.031726
7.659793
8.508563
10.264516
15.651584
21.959543
33.123493
43.564439
57.142973
65.963864
72.888732
75.613856
71.262717
65.236688
52.888989
42.123795
30.424595
22.025704
15.100837
11.805892
8.936524
8.168817
7.155538
6.996989
7.040501
7.061958
7.035732
6.929636
7.194877
6.946921
7.325411
7.418990
7.316470
7.589459
7.814765
7.745624
7.534623
7.895827
7.566810
7.497668
7.715821
7.556677
##ZVALUE=350
0.528693
0.584722
0.652671
0.569820
0.485778
0.634789
0.581741
0.590682
0.703931
0.646710
0.685453
0.512600
0.686646
0.680685
0.604987
0.566840
0.819564
0.822544
0.649691
0.558496
0.693798
0.641942
0.814795
0.734925
0.716448
0.753999
0.786781
0.844598
0.729561
0.857711
0.904799
0.677705
0.891685
0.864863
0.905991
0.964999
1.035929
0.990629
0.944734
1.102686
0.989437
1.047850
1.163483
1.306534
1.415610
1.374483
1.411438
1.327991
1.690984
1.833439
1.669526
1.885891
1.953840
2.158880
2.500415
2.723932
4.564524
15.818477
75.090528
174.148679
430.445671
741.408467
1016.001701
1016.001701
1016.001701
1016.001701
1016.001701
1016.001701
1016.001701
761.247873
377.779603
205.745697
75.277686
27.845502
10.257959
8.122921
7.178783
6.808639
7.210970
7.468462
9.803772
13.411641
20.303726
27.610660
39.704442
49.677491
60.348511
66.632628
69.609880
67.352653
59.485435
50.636530
39.591789
31.076670
21.603703
16.913414
11.765957
9.706616
7.812977
7.217526
7.228851
6.976724
6.972551
6.914735
7.229447
7.380843
7.400513
7.571578
7.242560
7.327795
7.351637
7.526875
7.432699
7.527471
7.123947
7.259846
##ZVALUE=355
0.600815
0.511408
0.543594
0.561476
0.590682
0.598431
0.597835
0.751615
0.656843
0.550747
0.657439
0.481606
0.731945
0.624657
0.616908
0.638962
0.705719
0.585914
0.690818
0.729561
0.718832
0.796914
0.719428
0.739694
0.894666
0.842810
0.867844
0.854731
0.821948
0.670552
0.944734
0.729561
0.927448
0.953674
0.854731
0.931621
1.018643
1.078844
0.903606
0.906587
1.107454
1.100898
1.277924
1.228452
1.228452
1.412630
1.373887
1.359582
1.627803
1.596808
1.634955
1.657605
1.749992
1.735687
2.004504
2.151728
2.236962
2.811551
3.027916
7.226467
41.781664
117.495656
319.934487
564.813018
987.807512
1016.001701
1016.001701
1016.001701
1016.001701
1016.001701
1016.001701
943.614841
528.016686
286.906958
106.372833
41.986704
11.488795
7.810593
7.426739
6.766915
6.530881
6.704926
7.480979
8.598566
12.275577
16.783476
24.924874
33.362508
45.340657
53.352714
60.964823
62.494874
61.381459
56.645870
47.559738
40.281415
30.047894
23.555756
16.367435
12.438893
9.476542
8.131862
7.733703
7.047653
7.048845
6.805658
6.954670
6.962419
7.120967
7.048845
7.040501
7.190704
6.933808
7.066727
6.863475
6.892681
##ZVALUE=360
0.752807
0.749826
0.593662
0.641942
0.726581
0.701547
0.609756
0.646710
0.540614
0.571609
0.545979
0.573993
0.648499
0.811815
0.677705
0.764728
0.688434
0.792742
0.649691
0.691414
0.815988
0.846982
0.729561
0.764728
0.725985
0.768900
0.896454
0.896454
0.847578
0.922680
0.877976
0.875592
0.833869
0.818968
0.996590
0.979900
0.892878
1.055598
0.965595
0.994802
1.078844
1.003742
1.195669
1.111627
1.269579
1.268983
1.203418
1.265407
1.279712
1.294613
1.447797
1.535416
1.765490
1.622438
1.538992
1.942515
2.002716
2.088547
2.357960
2.577901
2.974868
4.119873
19.899011
62.663555
197.545886
384.963751
784.487724
1016.001701
1016.001701
1016.001701
1016.001701
1016.001701
1016.001701
1016.001701
666.109920
395.275950
155.722499
63.884854
16.654730
8.776784
7.204413
6.836653
6.464720
6.201863
6.244779
6.610751
7.642508
9.807944
14.559627
20.079613
29.409528
37.149787
47.409534
53.353906
56.976676
57.894588
53.392649
48.301816
38.514733
31.325817
23.157597
17.712712
12.879968
10.130405
8.224845
7.411838
6.809831
6.714463
6.783605
6.627440
6.750822
6.426573
6.612539
6.686449
6.555915
6.507635
##ZVALUE=365
0.524521
0.499487
0.612736
0.692606
0.650883
0.849962
0.802875
0.663996
0.669956
0.659823
0.740886
0.606775
0.811815
0.786781
0.636578
0.634789
0.619888
0.620484
0.617504
0.644922
0.743866
0.683665
0.761747
0.746846
0.826716
0.832677
0.703931
0.921488
0.952482
0.914931
0.807643
0.923872
0.768900
1.035929
0.896454
0.969768
0.982881
1.053810
0.925660
1.053810
1.011491
1.123548
1.054406
1.087785
1.063943
1.180768
1.044869
1.149774
1.268983
1.220703
1.296997
1.427531
1.524687
1.423955
1.479983
1.648664
1.697540
1.814961
1.985431
2.040863
2.377629
2.696514
2.569556
3.279448
8.599758
31.969547
123.775005
270.122886
624.862909
968.405008
1016.001701
1016.001701
1016.001701
1016.001701
1016.001701
1016.001701
831.391811
505.080819
216.382742
97.313523
26.163459
10.767579
6.960630
6.507635
6.267428
5.995631
5.588531
5.324483
5.793571
6.513596
8.603930
11.711717
17.616749
24.090409
32.946467
40.027499
47.457814
51.702857
53.750873
51.886439
46.194792
39.736629
30.631423
24.445653
17.738938
13.636947
10.152459
8.306503
7.355809
6.757975
6.547570
6.346703
6.306767
6.004572
6.097555
6.111860
##ZVALUE=370
0.529885
0.518560
0.599623
0.649691
0.591874
0.658631
0.561476
0.622869
0.727773
0.594854
0.663996
0.744462
0.604987
0.661612
0.730753
0.720620
0.660419
0.602603
0.702739
0.757575
0.719428
0.647902
0.737906
0.702739
0.796914
0.648499
0.842810
0.769496
0.734925
0.841618
0.739694
0.786781
0.862479
1.011491
0.799894
0.835657
0.893474
0.832677
0.822544
0.965595
0.955462
0.899434
0.936985
1.039505
1.158714
0.911951
0.993609
1.024604
1.088977
1.157522
1.104474
1.171827
1.123548
1.220703
1.300573
1.446605
1.563430
1.408458
1.574755
1.776814
1.680851
1.874566
2.078414
2.164841
2.401471
2.832413
3.884435
21.454692
71.449876
218.921900
420.662761
813.181996
1016.001701
1016.001701
1016.001701
1016.001701
1016.001701
1016.001701
994.088650
573.746562
324.944854
123.349428
51.476955
14.007688
7.384419
6.073713
6.093979
5.580783
5.189776
5.147457
4.962683
5.355477
5.990863
7.647872
10.159612
15.118718
20.585656
28.589964
35.670996
43.147802
47.198534
50.147772
49.072504
43.898821
38.835406
30.795932
25.084615
18.327832
14.369488
10.777712
8.758903
6.987453
6.390810
5.827546
5.656481
5.585551
##ZVALUE=375
0.620484
0.563860
0.545979
0.542998
0.561476
0.502467
0.541806
0.509620
0.539422
0.537634
0.529885
0.566840
0.654459
0.573993
0.629425
0.608563
0.650883
0.505447
0.587702
0.586510
0.682473
0.833869
0.814795
0.725985
0.688434
0.672936
0.681877
0.568628
0.854731
0.760555
0.901818
0.850558
0.892878
0.899434
0.758767
0.776649
0.832677
0.883937
0.874996
0.970960
1.012683
0.924468
0.845790
0.871420
0.789762
0.784993
0.868440
1.058578
1.046658
0.931621
1.000762
1.077652
1.123548
1.138449
0.991821
0.977516
1.218915
1.218915
1.169443
1.283884
1.349449
1.472831
1.598597
1.650453
1.860857
1.866817
2.130866
2.407432
3.274679
8.052588
43.761730
119.329691
332.700014
582.729578
977.323651
1016.001701
1016.001701
1016.001701
1016.001701
1016.001701
1016.001701
773.339868
425.900817
233.879685
87.664723
34.379959
9.631515
6.304979
5.753636
5.129576
5.065799
4.905462
5.007982
5.067587
5.122423
5.556941
6.753802
8.347631
12.323856
16.620755
24.145842
30.614734
38.972497
43.637753
47.168732
46.955943
43.553710
37.700534
32.748580
27.153492
20.068884
15.462637
11.172891
8.938909
7.068515
6.059408
##ZVALUE=380
0.635982
0.542998
0.618696
0.549555
0.580549
0.530481
0.559688
0.549555
0.513792
0.520945
0.471473
0.558496
0.597835
0.595450
0.775456
0.614524
0.647902
0.563860
0.527501
0.683665
0.551939
0.656843
0.541806
0.629425
0.731945
0.762939
0.806451
0.788569
0.800490
0.797510
0.818968
0.849962
0.802875
0.760555
0.890493
0.765920
0.948906
0.776649
0.913739
0.851750
0.874996
0.920892
0.757575
0.721812
0.883937
0.812411
0.900626
1.000762
0.948906
0.993609
1.074672
1.012683
1.145601
1.052618
0.978708
1.111627
1.104474
1.133680
1.218915
1.129508
1.320839
1.341701
1.244545
1.480579
1.377463
1.675487
1.678467
1.857877
2.227426
2.771616
2.965927
4.778504
24.731755
76.577663
234.889984
441.457033
866.525769
1016.001701
1016.001701
1016.001701
1016.001701
1016.001701
1016.001701
970.265865
569.535494
331.304669
133.481622
57.568550
15.332699
7.020831
5.572438
5.323887
5.164742
5.231500
4.988909
4.755855
4.762411
4.614592
5.068779
5.719662
8.072853
10.367632
15.831590
20.945668
28.961897
34.532547
40.930510
44.223666
44.837594
42.608976
39.078593
33.081770
27.776957
20.789504
15.864968
11.484623
##ZVALUE=385
0.447631
0.332594
0.432730
0.440478
0.637770
0.576973
0.538826
0.665784
0.434518
0.455976
0.375509
0.451803
0.595450
0.448823
0.562668
0.603795
0.579953
0.716448
0.534654
0.548959
0.464916
0.446439
0.541806
0.614524
0.597835
0.637770
0.747442
0.594854
0.735521
0.748634
0.795722
0.773668
0.876784
0.941753
1.150966
0.932813
0.833869
0.972748
0.928640
1.024604
1.039505
1.033545
0.931621
0.997782
0.880957
1.052618
0.886917
0.931621
0.845790
0.974536
0.826716
0.923872
0.959635
0.970960
0.943542
1.096725
1.037717
0.993609
1.033545
1.171827
1.171827
1.124740
1.286864
1.225471
1.444817
1.404881
1.541972
1.817942
1.879930
2.006888
2.372861
2.492666
2.829432
3.135800
10.669827
38.988590
154.409409
325.948000
683.733821
985.160470
1016.001701
1016.001701
1016.001701
1016.001701
1016.001701
1016.001701
771.229863
492.033958
223.118663
105.877519
28.684735
10.068417
5.469918
5.109906
5.123615
5.065799
4.836917
4.686713
4.647970
4.580617
4.363656
4.706979
5.428791
6.530881
9.393692
14.170408
18.531680
24.717450
29.885769
35.477877
39.330721
41.139722
40.877461
37.435889
33.384562
27.196407
##ZVALUE=390
0.590682
0.437498
0.545979
0.447631
0.337958
0.578761
0.459552
0.495911
0.475645
0.465512
0.501871
0.469685
0.497699
0.601411
0.540614
0.528693
0.406504
0.493526
0.535846
0.625849
0.482798
0.420809
0.612736
0.555515
0.586510
0.686646
0.779629
0.754595
0.808835
0.941753
1.030564
0.823736
0.946522
0.990629
1.179576
0.953674
1.177788
0.969768
1.020432
1.000762
1.176596
1.046658
1.137853
0.934601
1.089573
1.035929
0.953674
1.005530
0.947714
1.059771
0.976920
0.797510
1.101494
1.029968
0.953674
1.034737
0.909567
1.067519
0.973940
0.964999
1.054406
1.161695
1.217723
1.253486
1.317859
1.332760
1.418591
1.515746
1.617670
1.790524
2.017617
2.097487
2.381802
2.256632
2.470613
2.457500
5.083680
21.159649
100.352764
232.386589
537.261963
840.763450
1016.001701
1016.001701
1016.001701
1016.001701
1016.001701
1016.001701
980.704427
677.585602
347.353816
175.903440
57.703853
19.702911
6.389618
5.382895
5.301833
4.837513
4.947782
5.101562
4.736781
4.631877
4.499555
4.425645
4.538894
5.055666
6.410480
8.757710
10.925531
15.760660
20.223856
26.781559
31.609535
36.348701
38.701892
39.311647
##ZVALUE=395
0.605583
0.468493
0.501871
0.432730
0.397563
0.480413
0.611544
0.551939
0.534654
0.540614
0.331998
0.461936
0.480413
0.473857
0.516772
0.506639
0.374913
0.492930
0.630617
0.418425
0.547767
0.533462
0.599623
0.610948
0.498891
0.696778
0.656843
0.663996
0.893474
0.773668
0.859499
0.926852
1.004934
0.839829
0.964999
0.986457
0.950694
0.963807
1.160502
1.124740
1.232624
1.356602
1.249909
1.197457
1.116991
1.076460
1.210570
0.974536
1.044869
1.153946
1.083612
1.096725
1.113415
1.228452
1.133680
1.133680
1.137853
1.216531
0.967979
1.276731
1.075864
0.893474
0.908971
1.086593
1.205802
1.244545
1.208782
1.468658
1.709461
1.644492
2.122521
1.981854
1.922846
2.138615
1.911521
2.071857
2.195835
2.491474
3.364682
11.391640
64.736605
160.862803
383.567810
645.155907
1016.001701
1016.001701
1016.001701
1016.001701
1016.001701
1016.001701
1016.001701
845.654011
455.214977
243.692994
89.300871
35.636425
9.374619
5.789995
5.197525
5.129576
5.154610
4.983544
4.935861
5.066991
4.870892
4.701614
4.743934
4.913807
4.949570
5.492568
7.228851
8.969903
13.563633
17.169714
23.980737
29.897690
##ZVALUE=400
0.536442
0.645518
0.613928
0.506639
0.375509
0.550747
0.361800
0.458956
0.425577
0.492930
0.396967
0.465512
0.534654
0.484586
0.449419
0.520945
0.670552
0.432730
0.454783
0.509620
0.520945
0.667572
0.570416
0.508428
0.592470
0.728965
0.871420
0.714660
0.806451
0.691414
0.773668
0.859499
0.871420
1.083612
0.971556
0.914931
1.064539
1.038909
1.014471
1.025796
1.122952
0.935793
1.039505
1.203418
1.038909
1.109838
1.115799
0.992417
1.018643
1.080632
1.016855
1.180768
1.031756
1.003742
1.158714
0.889897
1.035929
0.953674
0.956655
0.996590
1.036525
1.150966
0.941753
1.158714
1.051426
1.196861
1.390576
1.481771
1.612902
1.644492
1.818538
1.831651
1.681447
1.728535
1.638532
1.745820
1.838803
1.787543
2.100468
2.280474
2.824664
5.548596
30.834675
88.101625
255.582929
472.440720
886.690021
1016.001701
1016.001701
1016.001701
1016.001701
1016.001701
1016.001701
963.434577
561.845899
339.169502
146.399736
67.179799
20.133853
7.768869
5.235672
4.957914
4.778504
4.927516
5.220771
5.041957
5.184412
5.031824
4.553795
4.587770
4.331470
4.579425
4.902482
6.020665
8.511543
11.641979
##END
