##TITLE=9-1
##FORMAT=SPECTACLE-ASCII V-1.2
##DATA TYPE=ULTRAVIOLET SPECTRUM
##SECOND TYPE=ULTRAVIOLET SPECTRUM
##DATE=04/04/18
##TIME=13:11:42
##SPECTROMETER/DATA SYSTEM=SPECTACLE
##XUNITS=NM EM
##YUNITS=ENERGY
##YFACTOR=1
##FIRSTX=220
##LASTX=450
##NPOINTS=116
##3DDATA=Equidistant
##ZUNITS=NM EX
##FIRSTZ=210
##LASTZ=400
##ZPOINTS=39
##XYDATA=(Y..Y)
##ZVALUE=210
22.807717
22.798777
17.275810
13.873577
11.584759
10.301471
10.056496
9.977818
6.895661
6.321669
5.337000
5.029440
4.227757
4.006624
4.222989
4.189610
4.196763
4.692674
4.842877
5.050898
5.121827
6.118417
7.872581
7.317662
8.544922
9.643435
10.436773
10.575652
11.438727
10.386705
13.464689
13.517737
15.490651
15.617609
15.169978
15.273690
15.185475
14.530420
13.942719
14.677644
15.299916
16.305447
14.785528
15.452504
14.608502
14.781952
14.310479
15.250444
15.353560
15.791655
15.686750
14.663935
13.258457
15.612841
15.782714
14.956594
15.266538
14.151931
13.721585
15.105605
13.396740
13.046861
14.501810
12.853742
14.087558
14.829636
16.439557
15.918612
18.374920
19.450784
24.642944
27.754903
30.916929
35.955906
39.053559
40.106773
41.635633
40.140748
41.313767
38.017631
35.589933
32.382607
28.916597
26.042461
22.247434
19.653440
15.989542
15.037656
15.008450
15.238523
20.191669
22.926927
31.445622
36.156774
48.362613
55.643916
65.013766
71.029663
79.150796
82.675815
86.739659
86.794496
87.464452
83.218813
78.416467
73.172450
68.150759
60.721636
54.720640
46.620965
39.164424
30.761957
27.008653
20.799637
20.161867
18.573999
##ZVALUE=215
66.154599
64.424872
48.711896
38.716793
26.391745
22.037625
15.859604
16.447902
15.819669
14.746785
12.185574
9.906888
8.726716
7.015467
5.214810
4.883409
4.574656
4.194975
4.872680
4.869699
5.645752
6.124973
5.506873
6.087422
7.085800
8.046627
9.577870
10.619760
10.786653
12.803674
12.352467
13.491511
14.037490
13.127923
13.702512
13.076663
15.760660
14.358759
13.738871
14.868975
13.567805
13.568997
13.221502
13.633966
14.505982
14.752746
13.983846
13.599992
14.117956
14.490485
13.964772
14.942884
14.011860
14.424920
14.150739
14.052987
12.731552
12.619495
13.848543
13.216734
13.632774
12.103915
12.133718
12.006760
11.701584
13.559461
12.885928
12.691617
13.938546
16.543865
19.188523
20.672679
24.376512
24.840832
27.373433
27.866960
28.785467
27.277470
28.889775
27.198792
25.771856
21.603703
19.695759
16.817451
15.133619
13.649464
11.154413
10.908842
8.841753
10.057688
9.165406
10.355711
9.902716
12.082458
13.591647
22.090673
26.501417
32.540560
45.118928
56.514740
63.450933
80.664754
89.032650
103.237629
112.605691
120.491982
121.799707
121.993423
114.150643
106.252432
108.967423
93.983412
85.161924
69.649816
60.835481
45.157671
##ZVALUE=220
142.618418
139.119625
135.169625
123.928785
98.703504
69.214702
54.049492
34.789443
28.806925
25.656819
26.335716
24.282932
22.469759
18.948913
14.763474
11.566877
7.440448
6.167889
6.082654
5.142689
6.296635
6.368756
6.501675
6.221533
7.125735
8.392930
8.971691
9.371638
9.575486
10.545850
10.184646
11.151433
12.833476
13.556480
15.010834
13.951659
14.421940
14.173985
15.326738
15.154481
14.808774
16.496778
16.169548
15.590787
15.812516
16.713738
15.293956
15.813708
15.669465
16.066432
16.226768
17.699599
16.411543
17.537475
16.259551
15.844703
16.085505
15.046597
13.973713
15.242696
15.692711
13.465881
14.752746
14.585853
13.487935
13.535619
12.842417
15.007854
16.693473
16.185641
20.908713
20.855665
24.526715
25.156736
27.453899
27.740598
28.618574
28.384924
26.063919
26.482940
25.924444
23.181438
20.930767
18.244982
16.015768
13.342500
12.788773
11.087656
10.437965
10.083914
9.930730
10.446906
10.568500
9.895563
10.403991
10.215640
10.332465
9.708405
12.092590
16.057491
24.626851
31.979680
45.400858
60.505867
82.880855
96.802711
123.312473
145.268440
158.066750
170.064569
178.179741
187.747478
188.104510
183.025002
170.692801
167.515874
##ZVALUE=225
187.604427
193.539858
234.388709
249.501467
249.882936
227.286816
185.071826
141.090751
93.855858
67.312717
47.285557
40.372610
40.899515
39.281845
38.445592
33.517480
29.285550
21.914840
15.756488
10.335445
7.831454
7.727742
6.519556
7.690787
8.192658
7.431507
8.750558
9.418726
9.348989
10.048747
10.292530
10.409951
11.075735
12.169480
12.395978
14.272928
15.202761
16.225576
16.133785
17.348528
18.398762
17.180443
18.512607
18.533468
18.697977
18.830895
18.657446
17.878413
17.242432
18.964410
18.342733
19.053817
18.248558
19.057989
18.786788
18.347502
18.030405
18.017888
18.674731
16.686916
18.057823
16.648769
17.076731
15.525818
16.208887
16.323924
16.817451
15.495420
18.743873
19.559860
20.675659
22.841692
26.105642
27.517676
26.633739
27.528405
28.537512
26.572943
26.005507
26.028752
24.536848
22.058487
19.067526
17.196536
16.139746
15.490651
13.863444
12.374520
12.264848
12.545586
10.880828
11.237860
12.383461
13.124943
10.935664
10.617971
11.869669
11.262894
11.691451
11.981726
11.525750
11.901855
13.095737
15.541911
22.132993
31.173825
45.270920
71.561933
89.653730
116.357803
142.137408
179.063678
203.205943
242.419839
268.845558
291.523933
##ZVALUE=230
117.363930
122.373700
208.035707
286.233425
345.020890
417.283773
432.690978
400.208831
348.072648
259.313583
189.270973
118.133426
83.007812
62.994957
59.089661
58.924556
61.633587
57.389736
50.097704
39.216876
30.340552
23.836493
16.190410
10.981560
9.200573
8.682609
9.038448
9.186864
8.947849
9.537935
10.679960
10.946989
11.122823
11.007786
13.548732
14.370680
15.008450
15.506744
16.918778
18.705726
17.291903
18.228889
18.786788
20.190477
17.963648
20.270944
19.108653
20.153522
20.721555
19.492507
20.340681
19.884706
20.185709
18.598437
20.475984
19.351840
20.392537
19.620657
17.661452
16.727448
18.116832
17.940998
17.167926
18.136501
17.244816
18.447638
17.271638
19.248724
19.209981
20.925999
21.865964
25.932789
26.580691
28.399825
30.275583
30.113459
30.490756
28.186440
30.058622
26.434660
24.930835
24.172664
21.322966
19.523501
19.234419
15.408993
15.523434
14.678836
13.827682
14.175773
12.842417
13.670921
12.077689
12.365580
12.416840
13.696551
12.002587
13.222694
13.320446
13.268590
12.654662
12.624860
12.019873
12.892485
12.168884
11.414886
13.326406
15.279651
17.971992
23.957491
34.967661
54.265857
79.015493
120.358467
151.845813
210.596919
##ZVALUE=235
32.235980
35.722852
87.234974
161.394477
257.016420
407.693982
530.620813
655.558705
681.976676
663.411617
588.104725
440.312624
326.121449
201.823711
150.344968
101.472735
84.086657
87.078810
88.070631
88.474751
82.632899
71.212649
54.782629
40.209889
26.096702
19.326806
13.237000
10.652542
9.088516
9.608865
10.583997
10.190606
11.467934
14.208555
12.618899
13.481975
14.266968
15.567541
16.037822
16.379952
17.967820
19.846559
20.331740
20.703673
19.616485
21.067858
19.245744
19.376874
21.119714
20.082593
20.383596
20.124912
19.780993
18.552542
18.991828
18.876791
18.474460
19.728541
19.233823
20.091534
18.278956
17.959476
18.950701
18.398762
17.828941
18.296838
18.874407
20.036697
19.379854
19.788742
24.547577
24.818778
24.695992
27.613640
29.507875
28.077960
26.296973
27.102828
25.394559
25.467873
24.312735
22.865534
22.012591
21.396875
19.310713
16.256571
16.381741
14.365911
16.262531
14.069676
14.662743
14.993548
15.880466
13.504624
13.942719
14.425516
13.011694
13.741851
13.754964
14.603734
14.009476
14.544725
14.140606
13.450980
14.685988
14.576912
12.619495
14.445782
13.895631
13.670921
13.745427
13.940930
13.496876
20.051599
25.484562
44.197440
##ZVALUE=240
3.590584
4.314780
12.711883
35.095811
81.568956
185.387731
312.201977
528.995991
711.866617
910.850763
990.632772
990.576744
888.627768
706.300735
536.797643
337.774754
229.386687
148.635507
113.008618
109.968781
114.717484
122.852921
120.726824
108.848810
88.818669
71.684718
51.352978
37.937760
23.676753
17.383695
15.161633
12.255907
13.548732
14.093518
13.354421
14.441609
15.318990
15.406609
16.105771
16.244650
16.698837
17.117858
18.759966
20.879507
20.536780
19.682646
20.446777
20.881891
18.965602
20.284653
20.417571
21.373630
18.564463
19.112825
19.243956
18.152595
19.350648
19.881725
19.326806
18.680692
18.023849
18.315911
18.111467
18.277764
19.982457
18.912554
20.612478
19.877553
20.261407
23.176670
22.966862
23.943782
28.297901
28.720498
29.487610
30.551553
29.198527
28.415918
28.382540
25.184751
24.419427
23.494959
22.008419
18.080473
20.080805
18.499494
17.533898
16.788840
16.490817
16.393661
17.353892
15.522838
14.767647
16.371608
16.063452
16.758442
15.123487
16.801953
15.407801
15.865564
14.610887
15.694499
14.816523
15.515685
16.606450
15.565753
14.884472
15.181899
15.362501
16.543865
15.603900
15.016794
15.583634
15.491843
15.532970
16.116500
##ZVALUE=245
2.700686
2.429485
3.163815
3.089905
5.822778
24.388433
60.969591
164.971948
297.281742
526.126623
725.432634
988.128781
1016.001701
1016.001701
1016.001701
947.645903
762.615800
506.321788
346.653461
197.450519
138.804913
115.027428
114.414692
130.712986
138.753653
132.071972
120.093822
104.440451
75.960755
59.968829
39.545894
27.627945
20.574927
15.126467
14.533997
14.114976
14.702678
14.776587
15.651584
14.750957
16.855597
16.891956
16.955733
17.753839
17.408729
18.039942
18.262863
17.153621
17.989874
17.183423
17.408729
17.785430
17.058849
19.030571
17.513633
16.744733
17.275810
17.236471
16.159415
15.101433
15.631914
15.332699
14.781952
16.555786
16.081929
16.347766
15.907884
16.265512
17.450452
18.773675
19.376874
21.536946
24.103522
24.501681
24.954677
24.901628
24.438500
23.899674
22.966862
21.579862
20.695925
19.221902
17.883778
17.969608
17.111897
15.527606
16.104579
15.470982
14.272928
14.290810
14.339685
15.124679
14.701486
14.352798
14.785528
15.446544
13.583899
14.037490
14.082789
13.526678
13.437867
13.920665
14.720559
14.787912
13.724566
14.262795
14.475584
13.996959
14.231801
15.107989
14.339685
14.151931
14.020801
15.710592
13.773441
13.742447
##ZVALUE=250
2.124906
2.327561
2.172589
2.572536
2.767444
3.094673
4.001856
18.017888
50.406456
135.981441
265.451670
508.100986
728.414655
995.118022
1016.001701
1016.001701
1016.001701
1016.001701
969.759822
668.646693
452.845693
252.936482
159.935951
110.055804
109.966993
129.321814
140.066743
142.933726
142.436624
127.327442
106.609464
86.494684
59.370995
44.007897
28.726459
20.878911
16.661882
15.984774
15.738606
15.914440
15.654564
16.309619
15.927553
17.389655
16.787648
16.492605
16.068816
16.812682
16.335845
16.219616
16.359687
16.026497
15.939474
16.307831
16.066432
14.518499
14.660954
15.021563
14.749765
14.729500
13.884902
13.766885
13.084412
14.459491
13.552904
13.167858
13.394952
13.839602
16.009808
15.396476
17.131567
18.703938
19.106865
20.866990
21.953583
20.238757
21.315813
19.917488
19.278526
18.590689
16.337633
17.288923
15.657544
14.547706
14.266968
13.093948
12.368560
12.222528
11.759996
12.538433
11.594892
12.936592
11.084676
11.442900
11.632442
12.361407
11.518598
12.378693
12.555718
12.254715
12.619495
12.274981
12.014508
12.469888
13.091564
12.666583
12.556911
12.833476
13.152957
12.589693
13.408661
13.543963
12.448430
11.824965
11.693835
11.750460
##ZVALUE=255
2.234578
1.739860
2.439618
2.504587
1.909733
2.431870
2.748966
2.196431
3.071427
10.462403
34.389496
118.038654
235.837698
474.687815
690.294504
992.632508
1016.001701
1016.001701
1016.001701
1016.001701
1016.001701
967.939496
571.402907
367.204547
187.522769
125.850439
100.476742
110.171437
131.531954
144.931674
155.201554
151.121616
131.445527
114.993453
83.282590
64.088702
44.880509
32.922626
23.428798
19.149780
17.230511
17.216802
16.469955
16.769767
16.744733
16.474724
17.481446
16.676784
16.124845
17.297864
16.713738
17.035604
17.026663
16.424656
15.700459
16.046762
15.617609
14.032722
14.748573
14.872551
13.865829
13.273954
14.226437
13.860464
12.847781
13.511777
13.430715
12.837648
14.579892
14.710426
16.373992
16.034842
18.029809
17.949939
17.950535
17.349720
17.070770
17.076731
16.575456
16.097426
14.576912
13.063550
12.808442
12.392998
11.349916
11.275411
10.612607
11.392832
10.204911
10.346770
10.735989
10.137558
11.082888
10.806918
10.587573
11.034608
11.114478
11.292696
10.903478
11.220574
10.250807
11.247993
11.009574
10.860562
12.113452
11.090636
10.796785
10.865927
12.131929
11.983514
11.368990
11.144876
11.012554
11.037588
11.771917
11.014938
##ZVALUE=260
1.763701
2.023578
1.910925
1.709461
2.252460
1.861453
1.936555
2.556443
2.003908
2.603531
2.420545
5.020499
18.684864
80.709457
169.548988
384.659767
623.499751
987.571478
1016.001701
1016.001701
1016.001701
1016.001701
1016.001701
1016.001701
726.606846
480.310917
262.115598
152.422786
95.972419
93.074441
114.995837
133.660436
153.675675
165.103674
160.064697
144.616961
122.213960
92.747808
72.166920
48.156977
36.558509
25.992990
22.066832
21.430850
20.302534
19.405484
18.718839
18.827915
19.692779
19.471645
17.857552
17.722845
17.832518
17.617941
16.995668
16.545653
16.804934
15.239716
16.113520
15.943646
15.082955
14.450550
13.916492
14.333725
13.391972
13.514757
13.885498
13.570786
13.429523
13.865829
15.080571
15.785694
15.449524
16.945601
16.038418
16.166568
15.812516
15.032887
14.763474
13.424754
12.326837
11.718869
11.074543
10.521412
10.396838
9.674430
9.955764
9.979606
9.002686
9.397864
9.689927
9.454489
9.434819
9.120703
9.415746
9.205937
9.284616
9.583831
9.902716
9.294748
9.997487
10.056496
10.218620
10.095835
10.182858
10.041595
10.357499
10.378957
10.466576
10.211468
10.134578
10.652542
10.242462
10.326505
9.728670
9.178519
##ZVALUE=265
1.825690
1.375675
1.917481
1.835823
1.876950
1.664758
2.041459
1.892447
1.825690
2.086759
2.222657
2.603531
2.690554
3.120899
8.093715
43.386817
115.723014
291.499496
507.912636
926.919580
1016.001701
1016.001701
1016.001701
1016.001701
1016.001701
1016.001701
1004.986763
734.367967
386.600494
222.697854
108.669996
83.695650
93.863606
116.924644
147.944689
160.681009
169.265866
165.029764
142.850876
125.822425
96.317530
76.934695
52.625537
40.131807
29.310584
25.912523
22.924542
22.874475
23.119450
21.290779
21.212697
21.441579
20.720959
20.697713
19.587874
18.996596
18.360615
18.394589
16.478896
16.702414
16.211867
15.283823
14.521480
14.714599
14.856458
14.268756
13.721585
13.553500
13.480783
13.855696
15.038848
14.568567
14.933944
15.486479
15.359521
14.853477
15.118718
13.241768
12.955666
12.264848
10.687709
11.929870
10.081530
10.643601
9.960532
10.039806
9.492636
8.651614
9.157658
9.153485
9.362698
8.856654
8.603930
8.234978
8.782744
8.463860
8.576512
8.722544
9.018779
9.071827
9.425879
8.993745
8.989573
8.940697
9.634495
9.471774
9.622574
9.477735
9.708405
9.860992
9.318590
10.563731
9.995699
9.276867
9.751916
9.214878
##ZVALUE=270
1.433492
1.464486
1.533628
1.586676
1.337528
1.648664
1.750588
1.549721
1.703501
1.914501
1.971722
2.266765
2.313852
2.159476
2.462864
2.680421
3.758669
18.074512
52.733421
182.780623
367.038846
743.550658
1016.001701
1016.001701
1016.001701
1016.001701
1016.001701
1016.001701
1016.001701
989.980698
596.765876
364.172459
170.428753
95.125437
77.308416
93.638897
124.750733
147.995949
167.826414
175.462961
168.408751
154.269934
128.144622
106.676817
77.931881
59.312582
42.373538
33.924580
28.739572
25.075674
24.093986
24.433732
22.535920
22.553802
22.178888
21.551847
21.615624
20.214915
20.083785
19.058585
17.343760
17.622709
16.898513
16.290545
14.647841
16.285777
14.816523
14.594793
15.001893
14.679432
14.511943
14.852881
15.329719
15.503764
15.197992
15.318990
14.389753
13.648868
12.602806
11.564493
11.452436
10.371804
9.694695
9.718537
9.400845
9.211898
9.503961
9.194613
9.077787
8.878708
8.177757
8.723736
8.033514
8.689761
8.883476
8.656979
8.180737
8.383989
8.642673
8.758903
8.477569
9.018779
9.074807
9.510517
8.605719
9.760857
8.783937
9.198785
9.134412
8.893609
9.305477
8.827448
9.100437
9.229779
9.214878
8.883476
##ZVALUE=275
1.377463
1.300573
1.510978
1.254678
1.379848
1.612902
1.364946
1.366735
1.716614
1.473427
1.548529
1.568794
1.708865
1.864433
2.179742
2.202988
2.414584
2.668500
3.053546
9.300709
34.992695
125.734806
271.385908
622.767806
965.527892
1016.001701
1016.001701
1016.001701
1016.001701
1016.001701
1016.001701
1016.001701
796.502829
490.769744
227.412581
125.153661
72.034001
74.223876
99.394917
123.070478
153.337717
167.204738
176.169872
174.018741
153.689981
133.635998
105.541945
83.746910
59.205890
45.795441
34.186840
29.385686
26.008487
24.509430
23.138523
23.256540
21.559000
20.912886
19.716620
18.857718
18.308759
18.386841
17.421842
17.352700
16.423464
16.048551
15.518665
15.080571
14.862418
14.938712
14.719963
15.490651
15.710592
15.417933
14.825463
14.706850
14.217496
13.257861
12.752414
12.235641
11.404753
10.706782
9.830594
9.853840
9.470582
9.304881
8.630753
8.977652
8.606911
8.636713
8.367896
8.618832
8.620620
8.138418
8.474588
8.126497
7.784963
8.052588
7.552505
7.795691
8.400679
7.679462
8.672476
8.011460
8.784533
8.724928
8.402467
8.596778
8.498430
8.845925
8.702874
8.050799
8.510947
8.570552
8.506775
8.422732
##ZVALUE=280
1.065731
0.970960
1.064539
1.224875
1.142621
1.648664
1.090765
1.330972
1.354814
1.346469
1.486540
1.643896
1.603961
1.676679
1.492500
1.964569
2.014637
2.018809
2.154708
2.531409
2.876520
4.750490
18.414855
87.848902
202.932954
459.797978
746.992826
1016.001701
1016.001701
1016.001701
1016.001701
1016.001701
1016.001701
1016.001701
954.604745
619.114637
298.311710
156.884789
70.508718
58.110952
72.999597
94.851851
126.517415
147.810578
167.717934
172.817707
167.486668
153.786540
124.616623
102.951527
74.915886
57.221651
40.625930
31.623840
24.287701
21.829605
20.238757
19.394755
18.662810
18.204451
17.939806
17.172694
15.973449
15.991926
15.024543
15.001893
14.303923
14.069676
14.087558
13.751984
14.141798
14.071465
14.465451
14.516711
14.005899
14.101863
13.079643
12.485981
11.981726
11.516809
11.002421
10.206699
10.402799
9.845495
9.435415
9.384751
8.974671
8.544922
8.694530
8.621812
8.261800
8.303523
8.294582
7.845759
8.142591
7.993579
7.868409
7.928610
7.772446
7.802844
8.111596
7.734895
8.175969
8.228421
8.172989
8.957982
8.076429
8.128881
8.264780
7.871985
8.366704
8.112788
7.948875
7.780790
7.967949
7.795691
##ZVALUE=285
1.112819
1.051426
0.956655
1.134872
1.231432
0.954866
1.302958
1.265407
1.434684
1.386404
1.451969
1.224875
1.478791
1.629591
1.433492
1.754761
1.841784
1.704693
1.982450
2.293587
2.221465
2.631545
2.759695
3.368855
8.107424
43.108463
110.825896
239.203572
546.176434
886.873007
1016.001701
1016.001701
1016.001701
1016.001701
1016.001701
1016.001701
1016.001701
892.893076
457.096696
255.233645
104.572773
56.669712
48.355460
62.888861
90.318918
112.057924
141.432881
153.788924
164.598823
161.847472
144.305825
124.092698
96.215606
76.936483
51.410794
37.864447
24.892688
20.540953
17.181635
16.392469
15.446544
15.010834
14.062524
13.891459
13.643503
13.385415
12.988448
12.699962
13.316870
13.448596
12.856722
13.266802
12.988448
12.944937
13.035536
12.457967
11.836886
11.455417
11.215806
11.087656
10.468960
10.361671
9.731650
9.412766
9.281635
8.519888
8.412600
8.833408
8.522868
7.971525
8.128881
8.117557
7.510781
7.878542
7.815957
7.960796
8.353591
8.065701
7.581711
7.670522
7.469654
7.913709
7.763505
8.111000
7.811785
8.174777
8.213520
7.986426
8.262992
7.713437
7.985830
7.785559
7.856488
7.275939
7.372499
7.528663
##ZVALUE=290
1.086593
1.019835
1.026988
0.925660
1.126528
1.205802
1.026988
1.192689
1.344681
1.240969
1.164675
1.382828
1.313686
1.215935
1.333952
1.425743
1.674891
1.631975
1.464486
1.931787
1.733899
1.848936
2.450943
2.349615
2.801418
3.219843
4.064441
11.023879
60.154796
151.741505
389.188528
671.387911
1016.001701
1016.001701
1016.001701
1016.001701
1016.001701
1016.001701
1016.001701
1016.001701
679.884553
395.597816
164.043903
75.279474
35.559535
38.835406
56.929588
76.660514
105.764866
125.330687
145.356655
153.764486
147.854686
139.092803
115.015507
93.069673
64.296722
47.902465
30.588508
21.476746
15.738606
13.220906
11.541843
11.258721
11.523962
11.070967
10.979772
10.534525
11.466742
11.316538
11.322498
11.597872
11.725426
11.751652
11.433959
11.550784
11.266470
10.731816
10.290742
10.024905
9.722710
9.337664
9.043813
8.443594
8.824468
8.610487
7.953644
7.819533
8.146763
8.203983
7.933974
7.508993
7.586479
7.758737
7.737875
7.581711
7.508993
7.515550
7.687807
7.156730
7.724762
7.619858
7.571578
7.604957
6.897449
7.539988
7.828474
7.611513
7.641912
7.280707
7.490516
7.502437
7.529855
7.219911
7.359982
7.008910
##ZVALUE=295
0.914931
1.034737
1.100898
0.934601
1.049638
1.079440
0.912547
1.086593
1.249909
1.027584
1.251698
1.180768
1.077652
1.158714
1.124740
1.316667
1.286864
1.441836
1.408458
1.623631
1.648664
1.752973
1.858473
1.882911
2.269745
2.428889
2.531409
2.798438
3.544688
6.108880
31.769872
91.111660
271.704793
520.572662
971.678495
1016.001701
1016.001701
1016.001701
1016.001701
1016.001701
1016.001701
1016.001701
856.184959
528.116822
228.031874
103.409886
37.744641
26.729703
35.330653
50.397515
73.423982
93.606710
119.423866
134.292841
143.928528
141.794682
125.725865
110.880733
84.671974
65.843463
42.968988
30.154586
18.836856
13.922453
10.765791
9.892583
9.370446
9.069443
9.302497
9.802580
10.247827
10.233521
10.705590
10.119677
11.037588
10.632873
10.163784
10.077953
9.885430
9.293556
9.154677
8.884668
8.476973
8.402467
7.985830
8.379817
8.102655
7.978678
7.996559
7.684827
8.165836
7.474422
7.473826
7.692575
7.464886
7.598996
7.485747
7.417798
7.288456
7.401705
7.917881
7.262826
7.441640
7.311702
7.656813
7.538795
7.231832
7.299781
7.884502
7.433891
7.491708
7.588863
7.204413
7.089972
7.096529
7.215738
##ZVALUE=300
0.979900
0.929832
1.065731
0.838637
0.826716
0.922680
1.043677
1.129508
1.035929
1.036525
0.999570
0.837445
0.974536
1.067519
1.159906
1.144409
1.109838
1.205802
1.016855
1.250505
1.467466
1.542568
1.423955
1.490712
1.688600
1.562834
2.041459
2.109408
2.233982
2.731681
3.036857
3.674626
14.628768
50.657392
171.791911
340.495706
716.889501
1016.001701
1016.001701
1016.001701
1016.001701
1016.001701
1016.001701
1016.001701
1016.001701
734.180808
366.769433
189.581513
64.984560
27.117729
22.452474
29.790998
45.481920
62.420964
87.302923
106.515884
127.981901
134.027600
134.123564
124.775767
103.491545
85.816979
60.835481
44.042468
27.474761
19.052625
12.728572
10.201931
9.210706
8.951426
9.129643
9.488463
9.944439
9.810925
9.774566
9.669662
9.438992
9.216666
8.998513
9.198785
8.672476
8.219481
8.076429
8.406639
8.220673
7.836819
7.752776
7.654428
7.420778
7.524490
7.773638
7.702708
7.019639
7.147789
7.083416
7.280707
7.584691
7.001758
7.341504
7.756948
7.453561
7.411838
7.247925
7.543564
7.331967
7.179976
7.323623
7.488728
7.214546
7.405877
7.450581
7.180572
7.405877
7.678866
7.109642
7.073879
##ZVALUE=305
0.875592
0.963807
0.821948
0.796914
0.800490
0.844598
1.070499
0.978708
1.014471
1.055598
0.927448
0.924468
1.014471
1.077652
0.943542
0.983477
1.186728
1.160502
1.163483
1.258850
1.495481
1.192689
1.324415
1.499653
1.673698
1.702905
1.615882
1.852512
1.815557
2.082586
2.226830
2.365708
2.735853
3.263950
7.744431
31.001568
122.661591
262.231827
580.135584
900.910497
1016.001701
1016.001701
1016.001701
1016.001701
1016.001701
1016.001701
1016.001701
977.302790
539.892912
298.785567
111.368895
43.540001
17.693639
18.657446
28.783679
40.995479
63.121915
80.864429
103.499889
116.905570
126.936436
126.961470
115.163922
100.778937
77.090859
60.544610
39.790869
28.658509
17.038584
12.728572
10.178685
9.251833
9.383559
9.130836
8.788705
9.230971
8.929968
8.614659
8.348823
8.505583
7.812977
7.937551
7.755756
7.909536
8.070469
7.916689
7.724762
7.818937
7.951856
7.678866
7.666945
7.425547
7.339716
7.532835
7.518530
7.411838
7.364750
7.358789
7.249713
7.475615
7.519722
7.391572
7.802844
7.277727
7.593632
7.515550
7.318854
7.269979
7.395744
7.344484
7.333755
7.214546
6.891489
7.113814
7.154942
6.823540
##ZVALUE=310
0.702739
0.695586
0.605583
0.816584
0.891685
0.714660
0.717640
0.835657
0.836849
0.869632
0.920892
0.914931
0.897646
1.113415
0.921488
0.838637
1.109838
0.935793
1.232624
0.965595
1.078844
1.096725
1.196861
1.402497
1.364946
1.364946
1.486540
1.702905
1.580715
1.583695
1.899600
1.927614
1.954436
2.268553
2.527833
2.739429
3.740788
13.018847
69.355965
161.949992
385.605693
658.856630
1016.001701
1016.001701
1016.001701
1016.001701
1016.001701
1016.001701
1016.001701
1016.001701
722.936988
441.028476
191.726685
86.694956
25.088787
14.319420
17.466545
23.510456
38.059950
51.286817
72.832704
91.222525
110.518932
116.814971
120.021701
112.404823
96.481442
79.532862
55.932999
40.847659
25.960803
18.504858
12.950897
10.774732
9.210706
8.959770
7.945895
8.188486
7.639527
7.507801
7.738471
7.790923
7.829666
7.767677
7.705688
7.466674
7.783771
7.697940
7.911921
7.593632
7.669926
7.407665
7.146597
7.718801
7.412434
7.135868
7.304549
7.294416
7.293820
7.263422
7.345676
7.571578
7.430911
7.399917
7.398725
7.784963
7.649660
7.620454
7.765889
7.660985
7.336736
7.598996
7.366538
7.258654
6.947517
7.136464
##ZVALUE=315
0.753999
0.730753
0.635982
0.854731
0.771880
0.836849
0.729561
1.098514
0.991821
0.758767
0.817776
0.671744
0.771880
0.905991
0.844598
0.816584
0.879765
0.839829
0.901818
0.886917
0.888705
1.180768
1.030564
0.961423
1.107454
1.176596
1.350641
1.391768
1.403689
1.344681
1.389980
1.606941
1.661777
1.942515
2.022982
2.136827
2.447963
2.792478
3.131628
5.601645
32.823682
95.045567
272.237659
497.369766
950.652957
1016.001701
1016.001701
1016.001701
1016.001701
1016.001701
1016.001701
1016.001701
773.626566
485.311747
231.363773
112.532973
32.872558
14.478564
12.279749
15.112758
22.785664
32.335520
50.703883
65.959692
86.565614
100.617409
111.153722
113.353729
104.167461
90.561509
71.009994
55.856705
38.240552
27.618408
17.684698
13.038516
9.957552
8.649826
8.038878
7.476807
7.655621
7.206798
7.418990
7.445812
7.301569
7.606745
7.713437
7.696748
7.687807
7.431507
7.572770
7.195473
7.415414
7.338524
7.603765
7.140636
7.156730
7.495880
7.450581
7.045865
7.398725
7.679462
7.599592
7.525682
7.389784
7.657409
7.742643
7.654428
7.754564
7.180572
7.462502
7.584691
7.288456
7.220507
6.978512
6.940961
##ZVALUE=320
0.631809
0.571609
0.683665
0.691414
0.672936
0.548959
0.839829
0.742674
1.038909
0.809431
0.738502
0.841618
0.857711
0.912547
0.685453
0.858903
0.877976
0.944734
0.851750
0.899434
0.913739
1.086593
0.972748
1.209974
1.078844
0.961423
1.236796
1.171827
1.085997
1.217723
1.336932
1.217723
1.423955
1.526475
1.594424
1.839995
1.604557
2.109408
2.136827
2.390742
2.620816
3.081560
15.532970
51.981807
180.631876
357.143879
709.313750
1004.278660
1016.001701
1016.001701
1016.001701
1016.001701
1016.001701
1016.001701
959.530473
616.271496
276.052952
141.179562
48.871636
19.910932
10.241866
10.862947
14.192462
18.811822
30.034781
43.011904
62.357783
78.219771
96.954703
105.172992
105.673671
100.926757
86.641908
72.727799
52.461624
38.945675
24.102926
16.647577
11.037588
9.030700
7.789731
7.526875
7.256866
7.078648
7.338524
7.355809
7.050633
7.293820
7.099509
7.414818
7.156730
7.179976
6.769896
7.309914
7.153749
7.301569
7.139444
7.428527
7.188916
7.389784
7.425547
7.333755
7.586479
7.288456
7.628798
7.533431
7.490516
7.312894
7.530451
7.555485
7.473826
7.206798
7.151961
7.061958
7.417798
6.873608
##ZVALUE=325
0.768900
0.574589
0.688434
0.685453
0.656843
0.693798
0.628829
0.580549
0.715852
0.617504
0.693798
0.618696
0.682473
0.771880
0.775456
0.977516
0.882745
0.842810
0.736713
0.952482
0.817776
0.864863
0.775456
1.086593
1.110435
0.943542
1.043677
0.968575
0.962615
1.037717
1.059771
1.284480
1.173615
1.343489
1.478791
1.464486
1.619458
1.725554
1.775622
1.948476
1.868606
2.433658
2.436638
2.964735
6.905794
46.826601
119.391680
300.607681
533.706546
854.497552
1016.001701
1016.001701
1016.001701
1016.001701
1016.001701
1016.001701
1016.001701
771.325827
392.788649
211.277604
74.934959
28.265715
10.481477
10.005832
10.159612
12.508631
19.156933
27.004480
44.781566
59.182644
77.029467
90.052485
100.449920
101.760626
93.477964
82.932711
64.388514
50.655603
33.769608
23.251772
14.694929
11.196733
8.674860
7.711649
7.401705
7.154942
6.926656
6.958842
7.331967
7.145405
7.063746
6.965995
7.020831
6.949902
7.096529
7.161498
7.002950
6.987453
7.501841
7.470846
7.483959
7.544756
7.254481
7.521510
7.410645
7.570982
7.535815
7.467866
7.414818
7.567406
7.086992
7.119775
7.240772
7.100701
6.990433
6.909966
##ZVALUE=330
0.613928
0.757575
0.590682
0.581741
0.659823
0.591874
0.614524
0.653863
0.553727
0.628829
0.645518
0.716448
0.786781
0.896454
0.879765
0.717640
0.779629
0.723600
0.698566
0.875592
0.725985
0.899434
0.981688
0.893474
0.744462
1.017451
0.935793
1.005530
0.956655
1.010895
1.194477
1.211762
1.199841
1.209974
1.102686
1.244545
1.492500
1.383424
1.620650
1.548529
1.830459
1.774430
1.923442
2.185702
2.389550
2.566576
4.328489
15.749931
81.276894
191.465616
449.945927
731.660724
1016.001701
1016.001701
1016.001701
1016.001701
1016.001701
1016.001701
1016.001701
975.431800
551.239848
314.399600
123.463869
50.550699
13.820529
9.243488
9.273887
9.540915
13.021827
18.138885
29.419661
39.264560
56.886673
70.648789
85.961819
92.372894
94.991922
88.968873
74.586868
61.737895
43.520927
32.630563
22.647977
16.181469
11.570454
9.205937
7.877946
7.435679
6.862879
6.859899
6.522536
6.706715
6.601810
7.205606
6.900430
7.208586
6.759763
7.108450
6.984472
7.190704
7.299781
7.396936
7.513762
7.307529
7.550716
7.598996
7.358789
7.690787
7.852912
7.338524
7.548928
7.385612
7.256866
7.207990
6.982684
6.994605
##ZVALUE=335
0.582933
0.667572
0.686646
0.499487
0.593662
0.449419
0.550747
0.651479
0.513792
0.806451
0.804663
0.695586
0.732541
0.772476
0.679493
0.700951
0.802875
0.812411
0.693798
0.720620
0.668764
0.686646
0.826716
0.901818
0.727773
0.959635
0.943542
0.986457
1.089573
1.136661
1.046658
0.979900
1.041889
1.081824
1.159906
1.051426
0.995994
1.163483
1.417994
1.442432
1.433492
1.533628
1.539588
1.845956
1.764894
2.204776
2.394915
2.534986
3.061891
7.131696
48.714876
130.641460
349.924564
605.167747
1002.869606
1016.001701
1016.001701
1016.001701
1016.001701
1016.001701
1016.001701
1016.001701
656.361580
400.956869
171.568990
74.567795
20.643473
10.307431
8.304715
8.846521
9.461641
11.954904
17.863512
24.938583
38.545728
50.716996
67.271590
79.038739
86.014867
88.422894
80.700517
72.045922
57.632923
45.847893
32.249689
23.857951
16.030669
12.042522
8.794665
7.933974
7.000566
6.582737
6.797910
6.400943
6.884933
6.857514
7.006526
6.818771
6.927848
6.951690
7.260442
7.110834
7.140636
7.399917
7.353425
7.247925
7.575750
7.455945
7.252693
7.565618
7.272959
7.208586
7.340908
7.234812
7.319450
7.141829
##ZVALUE=340
0.630617
0.687838
0.540614
0.577569
0.730753
0.567436
0.691414
0.492930
0.644922
0.624657
0.641942
0.791550
0.556707
0.593662
0.477433
0.640750
0.690818
0.689626
0.739694
0.737906
0.637770
0.742674
0.680685
0.861883
0.774860
0.706911
0.879765
0.877976
0.827909
0.995994
0.987649
0.862479
1.070499
0.943542
0.946522
0.999570
1.247525
1.308918
1.232624
1.335740
1.187921
1.318455
1.266599
1.602769
1.598597
1.693964
1.921654
1.897812
2.185702
2.261996
2.742410
3.777742
20.204782
73.412657
247.687697
471.634865
922.501683
1016.001701
1016.001701
1016.001701
1016.001701
1016.001701
1016.001701
1016.001701
822.053552
523.417592
249.433517
117.685795
30.943751
12.437701
8.894801
8.910894
8.713603
9.600520
11.800528
15.454888
24.599433
34.841895
49.497485
62.169433
75.499415
80.161691
81.163645
77.490807
67.440867
56.703687
42.526722
32.629967
22.329688
16.528964
11.468530
8.892417
7.613897
7.022619
6.850958
6.820560
6.737709
6.816983
6.680489
7.086992
7.021427
7.156730
7.138848
7.163882
7.458925
7.490516
7.479787
7.610917
7.634759
7.638931
7.603765
7.496476
7.374883
7.351637
7.196665
7.176995
##ZVALUE=345
0.447631
0.644922
0.484586
0.610948
0.479817
0.716448
0.749826
0.613928
0.612736
0.591874
0.638962
0.736713
0.693798
0.709891
0.815988
0.681877
0.722408
0.734925
0.656843
0.686646
0.766516
0.697970
0.696778
0.686646
0.647902
0.803471
0.829697
0.922680
0.887513
0.852942
0.941753
1.019835
0.907779
1.013875
0.998974
1.005530
0.975728
1.205802
1.122952
1.122952
1.244545
1.134872
1.306534
1.453757
1.480579
1.622438
1.642704
1.854897
1.788735
2.074838
2.025962
2.513528
2.517700
3.181696
7.901788
51.864982
140.187740
369.110703
646.730661
1016.001701
1016.001701
1016.001701
1016.001701
1016.001701
1016.001701
1016.001701
965.240598
538.071990
304.589868
122.329593
50.628781
16.074777
9.735823
8.893609
8.303523
7.969737
8.533597
10.862947
14.162660
22.420883
31.811595
45.721531
56.166649
68.747997
73.772669
75.545907
72.686672
65.252781
55.907965
42.008758
32.177567
21.828413
16.247630
11.310577
9.185672
7.608533
7.029772
6.868839
6.709695
6.819963
6.981492
6.660819
6.674528
7.172823
7.339716
7.080436
7.177591
7.255673
7.557869
7.567406
7.356405
7.247925
7.522702
7.363558
7.184744
7.209778
##ZVALUE=350
0.564456
0.595450
0.621676
0.564456
0.544786
0.525713
0.683665
0.685453
0.634789
0.632405
0.672936
0.701547
0.546575
0.454783
0.607967
0.756979
0.591874
0.634789
0.752807
0.762939
0.708699
0.752807
0.673532
0.801682
0.774860
0.711679
0.929832
0.751615
0.871420
1.005530
0.768900
0.965595
0.866652
0.913739
1.144409
1.002550
1.049638
1.043677
1.100898
0.981688
1.299977
1.209974
1.240969
1.335740
1.403689
1.321435
1.470447
1.543760
1.695752
1.622438
1.941919
1.888871
2.269745
2.251863
2.641678
2.802610
4.995465
18.170476
90.658665
214.458704
526.430011
889.918804
1016.001701
1016.001701
1016.001701
1016.001701
1016.001701
1016.001701
1016.001701
711.435080
345.773697
184.429884
67.703724
26.054978
9.837747
8.304715
7.472634
7.009506
7.295609
7.551908
9.989738
13.158917
20.113587
27.687550
39.703846
49.037933
60.504675
65.932870
69.431663
67.894459
60.317516
52.044988
39.423704
31.075478
21.761656
16.360879
11.743903
9.667873
7.795691
7.337928
7.035732
7.004738
7.097721
7.185936
7.022619
6.999969
7.012486
7.261634
7.152557
7.094741
7.264614
7.263422
7.199645
7.211566
7.130504
7.099509
##ZVALUE=355
0.651479
0.579953
0.539422
0.594854
0.677705
0.680685
0.690818
0.694990
0.638962
0.617504
0.749826
0.653863
0.693798
0.611544
0.705719
0.689626
0.829697
0.632405
0.681877
0.825524
0.643730
0.750422
0.718832
0.742674
0.793934
0.738502
0.831485
0.871420
0.892878
0.984669
0.956655
0.956655
0.835657
0.995994
0.860691
0.848770
0.987649
1.039505
0.961423
0.927448
1.100898
1.209974
1.131892
1.197457
1.183748
1.312494
1.377463
1.335740
1.393557
1.466870
1.701713
1.654625
1.810789
1.958609
1.982450
2.233982
2.432466
2.756715
3.312826
7.695556
48.116446
130.192637
362.250805
652.100444
1016.001701
1016.001701
1016.001701
1016.001701
1016.001701
1016.001701
1016.001701
919.460654
490.767956
261.358023
93.665719
37.219524
11.616945
8.085966
7.446408
7.303953
6.477833
6.882548
7.793903
8.795857
12.217760
16.839504
24.936795
33.422709
45.150518
52.927732
60.060620
63.135624
61.563849
56.648850
47.693849
39.778948
29.732585
23.033619
16.163588
12.432933
9.296536
8.069873
7.364750
7.090569
6.934404
6.886721
7.158518
7.048845
6.990433
7.017851
7.121563
6.984472
7.014871
6.829500
6.878972
6.830692
##ZVALUE=360
0.652671
0.432730
0.691414
0.638962
0.708699
0.782609
0.624657
0.775456
0.591874
0.683665
0.718832
0.627637
0.643730
0.749826
0.696778
0.765920
0.690818
0.751615
0.747442
0.737906
0.848770
0.882745
0.873804
0.739694
0.734925
0.784993
0.990629
0.712872
0.844598
0.754595
0.719428
0.947714
0.949502
0.888705
1.021624
0.939965
1.072884
0.988841
1.038909
0.949502
1.104474
1.005530
1.165867
1.174808
1.279712
1.381636
1.047850
1.284480
1.299977
1.535416
1.412630
1.579523
1.577735
1.741648
1.797676
2.040863
2.010465
2.142787
2.554655
2.776980
2.995729
4.389882
24.377704
76.830983
240.703821
462.518930
913.584828
1016.001701
1016.001701
1016.001701
1016.001701
1016.001701
1016.001701
1016.001701
649.702549
375.673771
146.345496
59.237480
15.633702
8.547902
7.231832
6.669760
6.481409
6.440878
6.447434
6.505847
7.794499
9.914637
14.497638
20.337701
29.961467
37.298799
47.636628
53.196549
57.476759
57.407618
53.670406
48.523545
39.393902
32.097697
23.341775
17.632842
12.946725
10.410547
8.183718
7.636547
7.003546
6.872416
6.981492
6.858706
6.611943
6.640553
6.433725
6.514788
6.398559
6.668568
##ZVALUE=365
0.602603
0.737906
0.584722
0.617504
0.671744
0.676513
0.683665
0.652671
0.749826
0.712872
0.531673
0.681877
0.689626
0.582933
0.560880
0.587702
0.578761
0.666976
0.688434
0.696778
0.694990
0.734925
0.810623
0.824928
0.763535
0.866652
0.842810
0.896454
0.895858
0.879765
0.930429
0.946522
0.921488
0.944734
0.826716
0.980496
0.895858
1.075864
0.943542
0.952482
1.008511
1.011491
1.118779
1.132488
1.064539
1.143813
1.296997
1.138449
1.228452
1.280904
1.332760
1.309514
1.590848
1.673698
1.661777
1.756549
1.881719
1.710653
2.061725
2.052784
2.320409
2.721548
2.901554
3.525615
9.506941
35.063624
144.617558
312.613845
719.193816
1016.001701
1016.001701
1016.001701
1016.001701
1016.001701
1016.001701
1016.001701
850.911736
508.838892
217.265487
99.281669
27.135611
10.732412
7.054806
6.362796
6.330609
5.988479
5.916953
5.768538
5.897880
6.558895
8.505583
11.605620
17.619729
23.799539
33.024549
39.439797
47.227740
51.441789
52.501559
51.281452
45.893788
40.085912
31.272769
24.963617
17.663836
13.791919
10.224581
8.080602
7.486939
6.659627
6.613731
6.188750
6.261468
5.762577
5.804896
5.649924
##ZVALUE=370
0.597835
0.449419
0.552535
0.654459
0.581741
0.601411
0.642538
0.629425
0.445843
0.572801
0.739694
0.695586
0.573993
0.560880
0.604987
0.616908
0.770688
0.681877
0.752807
0.748634
0.734925
0.602603
0.653863
0.763535
0.725985
0.688434
0.708699
0.899434
0.761747
0.775456
0.905991
0.760555
0.711679
0.843406
0.902414
1.058578
0.741482
0.899434
0.958443
0.831485
0.813603
1.011491
0.942945
0.959635
1.115799
1.029968
1.185536
1.282692
1.041889
1.157522
1.060963
1.191497
1.169443
1.190901
1.093745
1.454949
1.358986
1.458526
1.565814
1.550913
1.963973
2.001524
2.259612
2.561808
2.689958
3.068447
5.402565
20.545721
105.091929
248.124599
574.076772
909.505486
1016.001701
1016.001701
1016.001701
1016.001701
1016.001701
1016.001701
959.525704
615.489483
291.726589
142.495632
47.630668
18.603802
7.447600
6.435513
5.964637
5.788803
5.338788
5.374551
5.364418
5.349517
6.237626
7.503629
10.772943
14.877915
21.080971
27.669668
36.807656
42.681694
47.551990
50.414801
48.897862
45.517683
38.186908
32.154918
23.931861
17.996430
13.937950
10.448694
8.398890
6.949902
6.232858
5.891919
5.613565
5.387664
##ZVALUE=375
0.566840
0.574589
0.405908
0.396967
0.712872
0.515580
0.403523
0.719428
0.492930
0.554919
0.582933
0.578761
0.494719
0.666976
0.606775
0.738502
0.572801
0.685453
0.553727
0.487566
0.630617
0.751615
0.789762
0.673532
0.494719
0.710487
0.748634
0.880957
0.808835
0.614524
0.734925
0.607967
0.818968
0.861883
0.952482
0.839829
0.884533
0.806451
0.775456
0.707507
0.973940
0.993609
0.944734
0.872612
0.984669
0.986457
0.898838
0.899434
0.971556
1.083612
1.044869
1.094937
1.168847
1.191497
1.189709
1.242757
1.029968
1.179576
1.314878
1.173615
1.288652
1.738667
1.739860
1.820922
1.927614
2.214909
2.676845
2.806783
3.700852
45.799613
60.015917
196.467638
388.991833
1005.363464
1016.001701
1016.001701
1016.001701
1016.001701
1016.001701
1016.001701
1016.001701
755.009651
415.960550
235.574841
87.690949
18.955469
10.569692
5.989671
5.632639
5.257726
5.345941
5.143881
4.971623
4.948974
5.213618
5.516410
6.834865
8.577704
12.313724
16.590953
24.056435
30.511618
39.510727
44.015646
46.708584
46.914816
43.816566
40.094852
33.541918
27.543902
19.633770
15.632510
11.157990
8.944869
7.117987
5.951524
##ZVALUE=380
0.487566
0.505447
0.569820
0.520945
0.443459
0.558496
0.393987
0.538826
0.578761
0.622869
0.560880
0.493526
0.520945
0.552535
0.495911
0.527501
0.556707
0.560880
0.644922
0.563860
0.828505
0.603795
0.671744
0.685453
0.590682
0.627637
0.683665
0.721812
0.685453
0.670552
0.776649
0.706911
0.853539
0.697970
0.869632
0.955462
0.807643
1.048446
0.977516
0.928640
0.861883
0.894666
1.030564
0.950694
0.782609
0.941753
0.935793
0.819564
1.060963
0.884533
0.732541
1.081824
1.101494
1.094937
1.097918
1.004934
1.032948
1.145601
1.234412
1.231432
1.406670
1.332760
1.475811
1.457930
1.549721
1.761913
1.938939
2.141595
2.552867
2.790689
3.340840
5.274415
34.421682
105.731487
300.473571
556.109548
996.739864
1016.001701
1016.001701
1016.001701
1016.001701
1016.001701
1016.001701
975.748897
563.813448
323.928595
128.747821
54.963827
14.221668
7.100701
5.848408
5.497932
5.294681
5.221963
4.960895
4.887581
4.837513
4.772544
5.324483
5.787611
7.993579
10.754466
16.296506
21.547675
29.348731
34.542680
41.285753
44.847727
44.452548
43.411851
38.297772
33.841729
26.277900
21.523833
15.247464
10.739565
##ZVALUE=385
0.500679
0.454783
0.472665
0.433922
0.455976
0.507832
0.540614
0.628829
0.518560
0.494719
0.436902
0.452995
0.520945
0.521541
0.583529
0.563860
0.583529
0.571609
0.619888
0.418425
0.556707
0.511408
0.465512
0.541806
0.591874
0.765920
0.677705
0.743866
0.799894
0.782609
0.845790
0.810623
0.892878
0.824928
0.896454
0.821948
0.987649
0.963807
1.023412
0.999570
0.749826
0.940561
0.851750
1.005530
0.879765
0.906587
1.007915
1.019835
0.846982
1.047850
1.000762
0.970960
1.033545
1.005530
1.022816
0.993609
1.120567
1.152754
1.017451
1.064539
1.183748
1.328588
1.241565
1.298785
1.342893
1.305938
1.659989
1.841784
2.098680
2.110600
2.460480
2.774596
3.023744
3.470778
11.696815
44.010878
174.196959
380.699635
809.450746
1016.001701
1016.001701
1016.001701
1016.001701
1016.001701
1016.001701
1016.001701
771.036744
476.905704
205.800533
95.479488
28.658509
10.631680
6.013513
5.541444
4.959702
5.164742
5.132556
4.971623
4.732609
4.714727
4.595518
4.701614
5.445480
6.815791
9.677410
12.784600
18.475652
24.882555
30.211806
35.588741
39.097667
40.350556
40.602684
38.029552
33.626556
26.711822
##ZVALUE=390
0.498891
0.512600
0.519753
0.497699
0.563860
0.450611
0.547767
0.431538
0.481606
0.386834
0.458956
0.358820
0.508428
0.532866
0.470877
0.495911
0.558496
0.459552
0.616908
0.558496
0.556707
0.429749
0.627637
0.569820
0.678897
0.613928
0.717640
0.801682
0.827909
0.886917
0.843406
0.869632
0.810623
1.062751
0.786781
0.920892
1.062751
1.074672
1.198649
1.021624
1.118779
1.185536
0.913739
0.916719
1.000762
0.968575
1.129508
0.997782
0.987649
1.094937
1.020432
1.093745
1.029968
1.080632
0.970960
0.972748
1.197457
1.082420
1.066923
1.134872
1.180768
1.025796
1.213551
1.404881
1.377463
1.478791
1.543760
1.681447
1.923442
2.095699
2.342463
2.405643
2.610683
2.648830
2.948642
3.008842
6.747842
27.356744
129.606724
311.777592
734.887719
1016.001701
1016.001701
1016.001701
1016.001701
1016.001701
1016.001701
1016.001701
985.409617
667.614937
327.005982
160.452724
50.936937
17.801523
6.530881
5.891919
5.348921
5.310774
5.247593
5.042553
4.776716
4.755855
4.790425
4.725456
4.899502
5.179644
6.236434
8.452535
11.308789
15.705824
20.327568
26.595592
30.943751
36.827922
38.912892
39.400458
##ZVALUE=395
0.503659
0.503659
0.475645
0.477433
0.484586
0.438690
0.445843
0.472665
0.519753
0.396967
0.487566
0.575781
0.470877
0.559688
0.614524
0.560880
0.323653
0.575781
0.610948
0.457764
0.580549
0.577569
0.502467
0.603795
0.639558
0.655651
0.813603
0.796914
0.709891
0.741482
1.087785
0.922680
1.035929
1.170635
1.076460
1.147985
1.034737
1.059771
1.148582
0.951886
0.838637
1.015663
1.122952
1.253486
1.157522
1.179576
1.107454
1.128912
1.176000
1.119971
1.201630
1.188517
0.991821
1.242757
1.069903
1.119971
0.994802
1.032948
1.164675
1.204610
1.161695
1.241565
1.281500
1.483560
1.619458
1.519918
1.618862
1.730919
2.076626
2.267957
2.309680
2.694726
2.859831
2.759695
2.756715
2.787709
3.064871
3.527999
5.140901
17.688870
101.682544
293.430686
781.491995
1016.001701
1016.001701
1016.001701
1016.001701
1016.001701
1016.001701
1016.001701
1016.001701
912.452936
460.891724
238.083601
82.446933
33.161640
9.898543
6.635785
6.030798
5.851984
5.579591
5.855560
5.433559
5.588531
5.277991
4.833937
5.092621
4.862547
5.503893
5.971789
7.797480
9.692907
13.502836
17.541647
23.547411
29.898882
##ZVALUE=400
0.779629
0.601411
0.666976
0.717640
0.490546
0.567436
0.564456
0.598431
0.609756
0.551939
0.483990
0.538826
0.512600
0.540614
0.604987
0.600815
0.669956
0.614524
0.645518
0.764728
0.587702
0.638962
0.714660
0.683665
0.656843
0.800490
0.769496
0.752807
0.917912
0.974536
0.938773
1.017451
0.873804
1.110435
0.949502
1.188517
1.030564
1.237988
1.159906
1.133680
1.240969
1.149774
1.289845
1.225471
1.174808
1.259446
1.200438
1.239777
1.178980
1.320839
1.197457
1.213551
1.224875
1.370907
1.248717
1.347661
1.252890
1.296997
1.279712
1.124740
1.367927
1.313686
1.539588
1.426935
1.503825
1.686811
1.751781
2.070665
2.215505
2.458692
2.628565
2.653599
2.797842
2.662539
2.723932
2.722740
2.734661
2.945662
3.419518
3.592968
4.350543
7.768869
40.597916
122.931004
437.658429
921.859741
1016.001701
1016.001701
1016.001701
1016.001701
1016.001701
1016.001701
1016.001701
1016.001701
652.985573
374.848843
150.681734
63.937902
17.327666
8.044839
6.212592
6.241798
5.973577
5.823970
6.084442
5.831718
5.614758
5.417466
5.525947
5.141497
4.846454
5.141497
5.397797
6.506443
8.227825
11.857748
##END
