##TITLE=CDW1
##FORMAT=SPECTACLE-ASCII V-1.2
##DATA TYPE=ULTRAVIOLET SPECTRUM
##SECOND TYPE=ULTRAVIOLET SPECTRUM
##DATE=04/04/18
##TIME=10:48:41
##SPECTROMETER/DATA SYSTEM=SPECTACLE
##XUNITS=NM EM
##YUNITS=ENERGY
##YFACTOR=1
##FIRSTX=220
##LASTX=450
##NPOINTS=116
##3DDATA=Equidistant
##ZUNITS=NM EX
##FIRSTZ=210
##LASTZ=400
##ZPOINTS=39
##XYDATA=(Y..Y)
##ZVALUE=210
15.705824
15.771985
13.672709
11.277795
11.950731
11.609793
10.472536
7.960796
6.886721
5.352497
4.672408
3.853440
2.631545
2.094507
2.804995
2.793670
3.150702
2.667904
3.451705
2.808571
2.974868
3.193617
3.545880
3.957748
4.478693
5.463958
4.699826
5.847812
7.049441
7.225871
6.986856
7.404685
7.557869
7.414818
7.977486
8.762479
6.953478
8.378625
8.140802
8.208752
9.484887
8.179545
8.662939
8.465648
8.255839
8.769631
7.614493
8.325577
8.576512
8.658767
8.069873
7.555485
9.617805
8.645654
8.298755
6.404519
7.475615
7.885695
7.414818
7.852912
7.667542
6.936789
6.744862
7.378459
7.580519
7.426739
7.599592
7.951856
10.224581
10.123849
11.376739
13.215542
13.386607
15.242696
15.759468
15.979409
15.677810
15.429854
14.848709
13.997555
12.706518
12.158751
10.722876
10.342598
9.374619
7.721782
7.433891
6.746650
6.742477
8.831620
10.734797
14.760494
18.863678
24.508834
28.036833
32.400489
37.246943
45.080781
47.846437
51.695704
57.634711
59.290528
54.616928
54.593682
56.672692
51.381588
46.203732
42.385459
41.568875
35.705566
28.274655
25.349855
19.976497
17.040968
16.002655
15.270710
##ZVALUE=215
43.822527
42.660832
32.567978
26.042461
20.981431
17.933846
16.331673
16.326904
16.252995
15.149713
11.865497
8.411407
7.185936
5.417466
4.200935
3.554821
2.594590
3.444552
3.448725
2.897978
3.617406
3.931522
3.867745
4.270673
4.398823
5.153418
5.811453
5.970597
6.644726
7.036924
7.439852
7.687807
7.313490
8.119941
8.860826
8.067489
9.373426
9.073615
9.063482
9.795427
8.986592
10.528564
10.065436
8.590817
10.009408
10.057688
8.364916
9.604692
8.806586
8.945465
8.687973
10.813475
9.192824
9.419918
9.476542
9.524822
10.477901
9.002686
9.174943
9.362698
8.968711
8.399487
8.371472
7.674694
7.979870
8.082986
9.885430
9.509921
10.331869
11.037588
11.723638
13.159513
14.703870
15.720725
14.923811
17.875433
16.247630
15.063882
16.649961
14.662743
13.593435
10.709763
12.184978
10.805726
8.923411
8.158684
7.355809
7.677674
7.300973
6.879568
7.276535
7.198453
7.776618
9.151697
11.103749
14.986992
20.152926
29.005408
31.766891
39.250851
45.117736
56.687593
58.471560
74.760914
78.220963
85.413456
88.256598
87.084770
86.355805
81.108809
75.234771
70.251822
64.237714
55.537820
46.684742
36.987662
##ZVALUE=220
97.693801
94.904900
92.652440
80.981851
67.448616
51.505566
40.057898
31.168461
25.552511
25.655627
25.154948
24.690628
21.944642
19.188523
14.405847
11.305809
7.451773
5.686879
4.461408
3.405809
3.623962
3.912449
4.328489
4.094839
5.046725
5.016923
5.343556
5.898476
7.018447
5.834699
6.126761
6.902814
7.848740
8.645654
9.147525
8.807778
9.310842
9.841919
10.498762
10.341406
10.302663
10.720491
11.174679
10.178685
11.220574
11.267662
12.350678
10.958910
11.304617
11.697412
10.773540
12.048483
11.341572
11.438727
10.677576
10.708570
10.644794
11.530519
10.399818
10.337830
10.607839
10.785460
9.346604
9.915829
9.994507
9.415746
9.172559
9.763837
10.462999
11.595488
12.412667
13.591647
14.107823
16.831756
15.727878
16.105771
15.843511
14.877915
13.902783
13.681650
13.354421
12.937784
11.629462
10.426641
8.666515
9.017587
7.332563
7.931590
6.407499
6.960630
6.513000
7.684827
7.649660
8.232594
7.477999
8.166432
8.473992
8.557439
10.796785
12.559891
17.322898
21.827817
31.989813
40.842891
52.813888
63.340664
75.718760
91.048479
102.919936
114.876628
125.693679
127.906799
131.174922
126.180649
124.041438
114.056468
##ZVALUE=225
119.735003
123.913884
149.647593
162.279606
158.738494
146.415830
123.903751
92.712641
65.576434
50.450563
39.408803
38.624406
36.908984
38.589835
37.170649
30.221939
27.869940
20.042658
15.918612
10.585785
6.350875
4.295707
4.415512
4.846454
5.875826
5.707741
5.781651
5.656481
5.685687
6.123781
6.059408
6.146431
7.442832
7.931590
8.663535
9.160638
9.516478
9.567738
11.371970
11.091828
9.605885
11.371970
11.331439
11.548996
11.871457
12.102723
11.355877
11.652708
13.129711
11.857748
12.322664
13.704896
13.117790
12.700558
12.564659
12.475848
11.951923
12.939572
10.900497
11.391640
11.047721
12.400746
11.569858
11.764765
10.309815
9.492636
10.947585
10.261536
10.940433
11.574626
13.149977
13.011694
14.137626
14.784932
15.169978
15.509725
14.569759
14.797449
13.900995
10.866523
11.482835
10.144711
9.801984
10.024905
9.487867
8.544922
7.579923
7.798672
6.610751
6.898642
6.734729
7.637739
7.026792
7.212758
7.061958
6.195903
6.215572
6.956458
6.660819
7.384419
7.396936
7.349849
7.921457
9.402633
13.031960
19.684434
27.092695
41.059852
52.054524
70.533752
85.919499
109.520555
125.673413
157.008767
163.921714
180.359483
##ZVALUE=230
79.712868
88.498592
122.940540
181.652904
228.884816
255.198479
261.582732
240.947604
206.828713
168.896914
114.633441
85.912943
63.558817
55.554509
56.608915
62.595606
58.857799
55.968761
50.964952
39.350986
32.748580
20.124912
13.731718
8.420944
5.801916
5.309582
5.279779
5.535483
6.295443
6.137490
5.804896
7.517934
7.309914
7.251501
7.658601
8.761883
8.886456
10.415912
11.833906
10.623932
10.848641
13.474822
12.863874
13.683438
13.377666
13.851523
14.296770
14.064908
13.435483
13.811588
13.678670
13.321638
13.260841
13.086796
12.644529
12.468696
11.490583
11.614561
12.754798
11.825562
10.802746
13.038516
11.511445
11.122823
11.626482
12.090802
10.338426
11.158586
11.910796
13.183951
13.624430
13.418794
15.494823
13.894439
14.531612
14.717579
15.007854
14.531612
13.234615
12.737513
10.423660
12.190938
10.648966
9.952784
9.100437
8.213520
8.042455
7.511973
7.975698
7.752776
7.843971
8.122921
8.753538
6.909966
6.797910
6.737709
7.474422
7.700920
7.132888
6.893873
6.724596
6.276965
6.368756
6.670952
7.097721
7.296801
6.548762
9.078979
8.725524
14.253855
21.406412
36.273599
48.918724
73.047876
97.417831
124.142766
##ZVALUE=235
21.163821
25.029778
51.569939
107.523799
172.071457
259.319544
322.833657
389.573574
409.633517
399.203897
345.392823
277.548432
196.563005
144.687891
97.467899
84.103942
78.653693
84.381700
91.648698
90.388656
82.121491
65.698624
51.448941
36.859512
25.323629
15.073419
10.848641
7.541776
6.065965
5.784631
7.489920
7.769465
7.178783
7.752776
8.594990
8.474588
10.207891
10.708570
11.058450
11.538863
12.099743
11.771917
12.893677
13.144612
13.847947
14.126897
12.334585
12.571812
12.201667
14.225841
12.652874
12.717843
13.863444
12.672544
12.733936
13.251901
13.662577
12.170672
12.954473
11.016726
11.008978
10.976791
11.506677
11.232495
11.947751
11.541843
11.277795
12.028813
11.448860
12.639761
12.275577
13.199449
13.465881
14.882684
15.409589
15.104413
15.323758
13.891459
15.009642
13.458729
12.013912
12.725592
11.070967
9.757876
9.588599
8.656979
8.565784
8.332729
8.923411
8.429885
7.089972
8.309484
8.575916
7.860661
7.837415
6.863475
8.765459
8.831620
7.797480
7.820725
8.124709
7.305741
6.773472
7.886887
7.067919
9.182692
8.023977
8.141994
7.803440
7.710457
6.722808
6.988645
7.813573
8.702874
15.407801
27.844906
##ZVALUE=240
2.742410
2.546906
8.672476
22.589564
52.802563
117.681623
188.674927
333.249569
415.834785
533.475876
582.359433
578.469634
525.887012
404.903889
323.301554
208.933949
151.359439
106.860995
101.568699
103.730559
112.167597
121.234655
119.087696
102.363825
82.569718
65.644979
46.218634
32.975674
20.030737
14.714599
9.716749
8.290410
8.377433
8.858442
7.588863
10.020733
10.217428
11.673570
11.989474
12.369752
12.099743
13.341904
12.216568
13.724566
13.062954
13.744831
13.735890
12.564659
13.315678
13.803840
13.515949
13.675690
12.803674
12.441874
13.683438
11.957884
12.475848
11.985898
11.429787
10.991693
10.862947
10.823607
10.467768
10.489821
10.707974
10.676980
10.388494
11.150837
11.451840
12.660623
12.097955
14.501810
14.233589
16.723871
14.723539
14.891624
15.904903
13.505816
14.791489
14.394522
12.582541
10.750890
11.171699
10.323524
11.003613
9.007454
9.567738
9.854436
8.806586
8.927584
8.306503
9.155869
7.967949
7.840991
8.010864
7.435679
8.651614
7.959604
8.672476
7.739663
8.054972
7.571578
7.929802
7.584691
7.756948
7.970929
8.587837
8.611679
8.206964
7.533431
7.497668
8.186698
7.698536
6.917715
6.996989
8.485913
##ZVALUE=245
2.083778
1.730919
2.229810
1.591444
5.196929
14.164448
46.685934
90.473890
194.709897
302.777886
463.339686
574.416518
655.840635
684.608817
648.855567
546.374917
447.430611
303.316712
216.555595
137.154460
105.638504
99.794865
113.352537
122.157931
128.308535
127.245784
110.315681
96.004605
68.913698
53.664446
37.938952
23.675561
16.580820
11.022687
8.665919
9.740591
10.679960
11.300445
11.635423
11.864901
12.036562
12.885928
11.905432
13.076663
13.361573
13.718605
12.691617
11.684895
13.076663
11.900663
12.292862
12.328625
11.490583
11.164546
11.148453
10.817647
10.123849
9.596944
9.689927
9.030700
9.572506
9.336472
9.527802
9.698868
9.359717
9.446740
9.121895
9.688735
9.556413
9.678602
10.130405
11.794567
11.837482
11.932850
12.877584
14.024973
12.314916
12.384653
12.293458
10.826588
10.600686
9.954572
9.236932
9.762645
8.599758
8.325577
8.049607
7.847548
7.530451
7.793903
7.531643
7.178783
7.024407
6.982684
7.530451
6.802678
6.892681
7.102489
7.240772
7.443428
7.407665
6.977916
7.365942
7.610917
7.241964
6.793737
7.336736
6.705523
7.387996
7.543564
7.306933
6.922483
6.494522
7.110834
6.759763
6.174445
##ZVALUE=250
1.568794
1.435876
1.792908
1.741648
1.840591
2.249479
2.407432
10.431409
29.080510
62.743425
155.699849
269.311666
439.459682
561.517477
698.449016
754.521489
752.165914
682.932734
590.047836
425.782800
293.973684
169.839859
114.944577
99.473000
104.005933
120.575428
131.713748
139.105916
130.460858
125.767589
100.125670
81.012845
56.326985
39.649606
25.218725
16.937852
13.965964
12.341738
11.259913
11.367798
12.494922
13.067722
12.198687
13.608932
13.778806
13.151765
12.147427
12.116432
12.843609
11.511445
12.000799
12.255907
11.293888
10.990500
10.362864
10.876656
9.539723
9.720922
9.038448
10.085702
9.088516
7.575750
8.345842
8.298755
7.764697
7.309914
7.677674
8.970499
8.640885
8.575916
10.230541
10.063648
10.264516
10.484457
10.779500
10.899901
10.552406
9.529591
9.488463
8.673668
8.355975
8.286834
8.767843
7.252693
6.910563
6.442666
6.278753
5.640984
7.031560
6.961823
6.882548
6.472468
5.380511
5.868673
6.422997
6.091595
6.386638
6.054640
5.965829
6.180406
6.966591
6.329417
6.529689
5.997419
6.124973
6.823540
6.461740
7.518530
6.283522
6.520748
6.121993
6.341934
6.882548
5.747676
5.439520
5.078912
##ZVALUE=255
1.352429
1.556873
1.337528
1.640916
1.471639
1.540780
1.756549
1.868606
1.793504
5.222559
17.438531
58.605671
116.514564
247.152448
371.366739
562.015772
694.712996
825.587511
858.701468
802.629590
703.721642
521.229506
360.255837
238.384008
134.954453
99.067688
91.229677
103.345513
130.484700
140.270591
150.437951
144.009590
129.033923
110.868812
80.499649
62.740445
40.891767
26.313663
17.504692
14.784932
12.412667
13.135672
13.189912
14.040470
13.161898
13.762712
13.385415
12.827516
12.441874
12.409687
12.331605
11.533499
11.606812
11.041760
10.553598
10.393858
10.402799
10.187626
9.370446
9.346604
8.508563
7.787943
8.198619
7.737875
7.916689
7.044673
7.694960
7.670522
8.119941
7.533431
9.047985
8.637905
9.074807
9.660721
10.057688
9.996891
9.195805
8.152723
7.766485
7.532835
7.766485
7.182956
6.044507
6.577969
5.911589
5.742908
5.708933
5.021691
5.628467
5.635619
5.464554
5.219579
5.911589
5.649924
5.197525
5.349517
4.948974
5.191565
5.589724
5.658865
5.384684
5.359650
5.267859
5.785823
6.176829
5.716681
5.504489
5.315542
5.931854
5.799532
5.509853
5.577803
5.096793
5.905628
5.376935
5.548596
##ZVALUE=260
1.101494
1.482964
1.475811
1.327991
1.405478
1.548529
1.649857
1.504421
1.409650
1.477599
1.637936
2.973676
9.092689
37.332773
82.448721
190.501809
312.194824
513.831973
678.567886
863.238573
944.681764
947.126746
853.369832
668.499470
502.978563
307.922959
201.996565
115.802884
86.615682
87.050796
104.994774
133.823752
148.318410
154.720545
154.332519
133.509636
115.296841
88.097453
65.679550
43.140650
31.383634
20.565987
18.288493
15.162826
14.212728
14.641881
13.833642
14.724731
14.320612
13.316870
13.297796
13.411641
12.541413
12.350678
11.402965
11.735559
11.287928
10.134578
9.730458
8.987784
9.513497
9.367466
8.315444
8.418560
7.476807
7.814765
7.168651
7.857680
7.392764
7.543564
9.335876
8.250475
8.449554
8.543730
8.815527
8.778572
8.165836
7.831454
7.051826
7.065535
6.525517
6.462932
5.705953
5.792975
5.305409
5.179644
5.458593
4.905462
4.872680
5.370975
4.942417
4.993677
5.023479
5.014539
5.255938
4.795790
4.719496
4.759431
5.298853
4.691482
4.619956
4.814863
5.108714
4.668832
5.255938
4.631877
5.085468
5.384684
5.140901
5.481839
4.765987
5.014539
5.159974
5.051494
5.456805
5.172491
##ZVALUE=265
1.292825
1.005530
1.012683
1.108646
1.356602
1.145601
1.265407
1.232624
1.256466
1.177788
1.391768
1.634955
1.751781
2.255440
4.849434
24.099946
57.829618
146.868825
255.663991
474.876761
658.632517
836.119652
1003.114581
1016.001701
965.122581
835.985541
618.425608
445.041656
258.717537
159.309506
99.297762
75.591803
84.825754
114.256740
137.528777
156.225562
164.175630
155.332685
141.272545
116.918683
92.879534
65.024495
47.547817
31.822920
23.221970
18.792748
17.145872
15.715957
16.275644
15.578866
14.719963
14.789701
14.880896
13.747811
13.758540
12.867451
12.383461
11.512637
11.431575
10.890961
10.745525
10.264516
9.553432
9.228587
8.762479
8.239746
8.753538
8.249879
8.247495
8.007884
7.974505
8.337498
8.059740
8.578897
8.890629
7.994771
7.686615
7.743835
6.858706
6.613731
6.290674
5.951524
5.428791
5.343556
4.705787
4.940629
4.949570
4.500747
4.934669
4.772544
4.480481
4.935861
4.373789
4.748702
4.280806
4.437566
4.751682
4.352927
4.578829
4.402995
4.568696
4.210472
4.832745
4.551411
4.925728
4.951954
4.614592
4.863739
4.575849
5.216599
4.977584
4.316568
4.502535
4.479885
4.690886
4.699826
##ZVALUE=270
1.029968
1.064539
1.234412
1.156926
1.234412
1.302958
1.003742
1.437664
1.149774
1.038909
1.142621
1.265407
1.531839
1.395941
1.744628
1.816750
2.397895
11.532903
33.095479
105.382800
202.939510
404.545665
598.772764
864.675641
1007.377505
1016.001701
1016.001701
1003.120542
808.451772
616.156459
373.106599
235.299468
117.280483
74.091554
68.241954
86.690784
117.091537
140.960813
163.609982
169.546008
161.428452
152.828693
123.185515
99.207759
72.128773
52.644610
34.976602
28.046966
21.880865
18.687844
17.902851
17.014742
15.997887
16.148686
15.599728
14.580488
13.645887
12.832880
13.125539
12.931824
11.689663
11.401772
10.809898
10.065436
10.245442
9.215474
9.175539
8.922815
8.219481
8.664727
8.918643
8.867979
8.524656
8.539557
8.511543
8.141994
7.237792
7.153749
6.584525
6.221533
6.232858
5.441904
5.769730
5.475879
5.344748
5.170703
4.390478
4.505515
4.835725
4.515648
4.431605
4.596710
4.411936
4.621744
4.575849
4.194975
4.413724
4.281998
4.356503
4.560947
4.382730
4.551411
4.164577
4.435778
4.785657
4.612803
4.538894
4.871488
4.748702
4.426837
4.493594
4.646778
4.397631
3.961921
4.503727
4.433990
##ZVALUE=275
0.830889
0.971556
0.965595
0.914931
1.129508
1.047850
1.023412
0.830889
1.045465
1.176596
1.179576
1.386404
1.313686
1.298785
1.569986
1.319647
1.559854
1.707673
1.954436
5.600452
19.875765
70.150495
157.198906
294.722915
544.576645
738.025904
969.294906
1016.001701
1016.001701
1016.001701
940.413475
753.792524
485.777855
313.243866
153.978467
88.873506
57.795644
66.458583
93.885660
117.124915
145.711899
161.765814
170.112848
163.669586
144.934654
125.642419
96.796751
73.428750
50.067902
38.116574
26.527643
21.579862
17.632842
16.879439
16.211867
15.297532
14.328957
14.005899
13.254881
12.741685
12.227893
11.748672
11.246800
10.765791
10.344982
10.109544
9.251833
9.261966
8.550882
9.148717
8.793473
9.073615
8.642673
8.528829
8.458495
8.238554
7.677674
7.935762
7.339716
6.783605
5.669594
5.577803
5.274415
5.315542
4.758835
4.835725
4.739761
4.812479
4.834533
4.516840
4.528761
4.584789
4.412532
4.345775
4.296899
4.417896
4.092455
4.412532
4.481673
4.383922
4.546642
4.326701
4.229546
4.252791
4.514456
4.854798
4.723668
4.535913
4.628897
4.503727
4.503727
4.320741
4.144907
4.116893
4.479885
4.098415
##ZVALUE=280
0.690818
0.743866
0.831485
0.842810
0.910759
0.898838
1.023412
1.015663
1.058578
1.057982
1.118779
0.848770
0.964999
1.082420
1.096725
1.328588
1.413822
1.412630
1.589656
1.732707
1.678467
3.120899
11.352897
51.185489
113.827586
260.804892
417.429805
607.997775
877.809525
1016.001701
1016.001701
1016.001701
1016.001701
875.422955
589.567423
400.289893
204.503536
111.956000
56.860447
52.117705
67.311525
90.065598
118.792653
141.877532
160.120726
163.217783
157.606602
144.768953
117.784739
96.235871
68.744421
50.547719
33.840537
24.309754
18.421412
15.407801
14.200807
13.702512
13.221502
12.789965
11.050701
10.940433
10.298491
10.264516
9.718537
9.372830
9.459853
8.551478
8.821487
8.761883
8.051991
8.277893
7.979870
8.615851
8.119941
7.708669
7.495880
6.874800
6.333590
5.914569
5.884767
5.603433
5.253553
4.848838
4.698634
4.799962
4.970431
4.958510
4.159808
4.392862
4.437566
4.547834
4.320741
4.201531
4.484653
4.657507
4.004836
4.485846
3.921986
4.428625
4.232526
4.396439
4.085898
4.366636
4.220605
4.477501
4.668832
4.168749
4.193783
4.277825
4.112720
4.411936
3.878474
3.922582
4.150867
4.315972
##ZVALUE=285
0.481606
0.480413
0.478625
0.555515
0.740886
0.593662
0.664592
0.746846
0.549555
0.764728
0.660419
0.736713
0.607967
0.715852
0.741482
0.881553
0.735521
0.770688
1.177788
1.248717
1.148582
1.323819
1.581907
1.789927
5.219579
20.183921
71.361661
147.019625
312.517881
499.246716
706.669688
976.997018
1015.771031
1015.771031
1015.771031
985.890627
776.473880
488.227606
308.252573
149.886012
77.590942
41.162968
42.346716
60.819983
81.315637
111.301541
132.196546
147.452950
155.650973
153.139830
139.129758
113.701820
92.992783
64.358711
47.394633
29.140711
20.078421
14.436841
11.378527
10.072589
9.300709
8.782744
9.210706
8.279681
7.840991
7.816553
7.598996
7.840991
7.637739
7.559657
7.449985
6.911755
7.370710
7.038713
6.939769
6.743670
6.300807
5.899668
5.981922
5.609989
5.457997
5.013943
4.867911
4.505515
4.816651
4.464984
4.302859
4.368424
4.233718
4.282594
4.289746
4.325509
4.003644
4.233718
4.067421
3.924966
3.738999
3.947616
4.120469
3.658533
4.102588
4.008412
3.801584
3.985763
3.686547
3.962517
4.003644
3.819466
3.609657
3.984571
3.913641
3.921986
3.804564
3.522635
3.647804
3.575683
##ZVALUE=290
0.708699
0.587702
0.583529
0.591874
0.849962
0.763535
0.783801
0.770688
0.837445
0.690818
0.847578
0.723600
0.924468
0.962615
0.927448
1.081824
0.863671
1.161695
1.108646
1.151562
1.270771
1.219511
1.523495
1.373887
1.553893
1.770854
2.521873
7.340908
36.300421
87.777972
215.973854
363.847613
633.229613
857.470632
1016.001701
1016.001701
1016.001701
1016.001701
857.432485
646.100640
380.321741
224.987864
97.271800
49.691796
29.099584
34.229755
53.908825
72.161555
99.280477
121.476650
140.613914
148.230791
145.870447
132.028461
110.569000
87.003708
59.713721
43.296814
26.870966
18.374920
12.073517
8.985996
7.073879
6.898642
6.929636
6.424785
6.603599
6.539822
6.513000
6.452799
6.572604
6.598830
6.569624
6.114841
6.446838
6.346703
5.743504
5.642772
5.438924
5.218983
5.056858
4.816651
4.880428
4.872680
4.757643
4.383922
4.370809
4.556775
4.395843
4.447699
4.209876
4.466772
4.024506
4.308820
4.295707
4.488826
4.352927
4.344583
4.062653
4.059672
4.308820
3.923774
3.998876
3.925562
3.982782
3.811717
4.229546
3.807545
3.764629
4.176497
4.210472
3.674626
3.888607
4.157424
3.550649
3.736615
##ZVALUE=295
0.645518
0.625849
0.434518
0.711679
0.677705
0.713468
0.703931
0.882745
0.810623
0.834465
0.794530
0.516772
0.684857
0.676513
0.822544
0.821948
0.828505
0.933409
0.994802
1.070499
0.964999
1.154542
1.221895
1.352429
1.290441
1.564622
1.542568
1.661777
2.081990
3.266931
18.516779
52.403808
147.502422
279.067755
530.478954
748.564601
1000.011563
1016.001701
1016.001701
1016.001701
970.302820
763.671994
473.761559
294.241905
132.652521
63.141584
27.001500
21.598935
31.858683
45.319796
69.461465
90.055466
114.754438
128.836632
139.485002
136.258602
120.306611
104.667544
79.703927
60.965419
37.813783
25.921464
15.230775
10.474920
7.191896
6.176829
5.746484
5.466938
5.595684
5.722642
6.016493
5.845428
5.606413
6.009936
5.896688
5.746484
5.492568
5.534887
4.949570
4.559755
4.755855
4.968643
4.542470
4.277825
4.272461
4.656911
4.307628
4.689693
4.297495
4.353523
4.235506
4.336834
4.211664
4.325509
4.284978
3.834963
3.992915
4.014969
4.184842
3.841519
4.257560
4.450679
3.957748
3.978610
4.002452
4.027486
4.086494
3.887415
3.872514
3.921986
3.990531
3.874898
4.005432
3.813505
3.613830
3.702641
##ZVALUE=300
0.798702
0.747442
0.695586
0.651479
0.547767
0.690818
0.598431
0.639558
0.448823
0.740886
0.656843
0.625849
0.749826
0.746846
0.762939
0.839829
0.861883
0.808835
0.765920
0.858903
1.017451
1.132488
1.034737
1.091957
1.146793
1.130700
1.180768
1.387596
1.492500
1.596808
1.901984
2.126694
7.751584
29.546618
99.800825
196.497440
406.513810
618.547797
909.224749
1016.001701
1016.001701
1016.001701
1016.001701
844.831467
618.997812
340.051651
202.015638
90.052485
42.709708
20.703673
18.431544
25.057793
41.846633
58.489442
85.443854
103.087425
123.140812
130.795836
129.048824
121.457577
100.398660
80.280900
56.282878
40.350556
24.035573
15.451908
8.898973
6.427765
5.382895
5.281568
5.286932
5.364418
5.311966
5.358458
5.020499
4.999638
4.931688
4.773736
4.735589
4.528761
4.283786
4.348755
4.474521
4.008412
4.327893
4.357696
4.378557
4.156828
4.303455
4.416704
3.962517
3.996491
3.935695
3.905892
3.981590
3.839731
4.262924
3.977418
3.999472
3.725886
3.986955
4.010797
3.905892
3.666878
3.781915
3.791451
3.883839
3.901720
4.040599
3.814697
3.832579
3.578663
3.877878
3.632903
3.297925
3.318787
##ZVALUE=305
0.655651
0.698566
0.509620
0.527501
0.757575
0.405908
0.526905
0.465512
0.536442
0.629425
0.520945
0.607967
0.845790
0.591874
0.656843
0.670552
0.528693
0.820756
0.756979
0.643730
0.737906
0.717640
0.744462
0.838637
0.810623
1.125932
1.131892
1.502633
1.387596
1.405478
1.260638
1.533628
1.509786
1.771450
4.383922
15.749931
64.178705
142.213702
319.418907
502.004623
783.999562
988.853574
1016.001701
1016.001701
1016.001701
967.357755
693.627596
481.115580
251.625776
139.523745
55.618882
24.835467
13.319850
16.009808
26.074648
36.795735
59.422851
75.915456
100.065470
112.680793
123.341680
121.243000
112.042427
97.415447
73.710680
57.063699
36.619902
24.651885
13.462901
9.004474
6.350875
5.272627
4.975796
5.069971
4.886985
4.496574
4.716516
4.533529
4.146695
4.552603
4.428625
4.144907
4.152656
4.506707
4.086494
4.150867
4.101992
4.116893
4.101992
3.842711
3.966689
3.784895
3.864765
4.012585
4.098415
3.685951
4.020929
3.838539
3.640652
3.712773
3.790855
3.679991
3.545880
3.616810
3.822446
4.074574
4.041791
3.863573
3.758669
3.975630
3.743768
3.521442
3.494620
3.714561
3.496408
3.377795
##ZVALUE=310
0.514984
0.643730
0.636578
0.587702
0.413656
0.453591
0.514984
0.502467
0.445843
0.629425
0.627637
0.651479
0.502467
0.561476
0.717640
0.692606
0.513792
0.542998
0.603795
0.731945
0.758767
0.815988
0.723600
0.842810
0.832677
0.817776
0.894666
0.967979
1.091957
1.045465
1.057982
1.185536
1.340508
1.333952
1.614690
1.826882
2.355576
6.689429
34.806728
83.586574
207.643509
360.441804
634.667873
848.227739
1016.001701
1016.001701
1016.001701
1016.001701
831.359625
614.647865
360.343456
213.183761
89.261532
41.082501
14.825463
10.917783
14.943480
21.108985
34.765005
48.595667
71.271658
87.444782
106.667876
114.641786
115.966797
108.332634
92.170835
74.643493
51.649809
36.613941
21.946430
14.802814
9.152889
6.717443
5.049706
4.802942
4.506707
3.858805
3.815889
4.086494
3.899932
3.796816
3.972650
3.833771
3.809929
3.842711
3.729463
3.987551
3.774762
3.668666
3.796816
3.722906
3.618598
3.766418
3.585815
3.375411
3.427863
3.386736
3.673434
3.646612
3.701448
3.653765
3.615618
3.663898
3.617406
3.659725
3.471971
3.756881
3.693700
3.854632
3.876686
3.721714
3.752708
3.366470
3.221631
3.265738
##ZVALUE=315
0.520945
0.436902
0.524521
0.373721
0.378489
0.511408
0.558496
0.517964
0.582933
0.660419
0.597835
0.635982
0.524521
0.657439
0.674725
0.564456
0.697970
0.716448
0.664592
0.687838
0.734925
0.743866
0.714660
0.776649
0.739694
0.757575
0.891685
0.728965
0.803471
0.940561
0.907779
1.095533
1.120567
1.227856
1.310706
1.371503
1.567602
1.582503
1.747608
3.343821
12.981892
57.148933
129.509568
300.087929
490.295887
789.982677
988.726020
1016.001701
1016.001701
1016.001701
956.844687
744.902492
461.973548
283.893943
125.031471
60.776472
20.448565
10.354519
10.031462
12.347698
20.201802
29.835701
47.217607
62.719584
83.566904
96.713901
107.682943
108.694434
100.108981
88.735819
68.795681
52.431822
33.227801
23.406744
13.671517
9.294748
6.141663
4.831553
4.084706
3.771782
3.577471
3.299713
3.431439
3.393888
3.743768
3.551841
3.604889
3.678799
3.400445
3.787875
3.539920
3.390908
3.772974
3.546476
3.246665
3.295541
3.595948
3.409982
3.511906
3.390908
3.529787
3.510714
3.514886
3.522635
3.458858
3.673434
3.533959
3.777742
3.728867
3.726482
3.294945
3.570914
3.383756
3.314614
3.401637
3.543496
##ZVALUE=320
0.473857
0.266433
0.429749
0.466704
0.557899
0.602603
0.486970
0.529885
0.396967
0.531673
0.641942
0.463724
0.518560
0.581741
0.447631
0.512600
0.463724
0.637770
0.508428
0.551939
0.591874
0.617504
0.692606
0.690818
0.812411
0.785589
0.848770
0.725985
0.917912
0.918508
1.035929
1.015663
0.878572
0.851750
1.097918
1.112819
0.920892
1.327991
1.274943
1.503825
1.635551
1.920462
8.384585
27.575493
96.274614
195.302963
394.066572
595.773458
885.957479
1016.001701
1016.001701
1016.001701
1014.680862
854.519010
573.546886
369.064808
171.473622
89.184642
32.019615
13.856888
8.089542
8.568764
11.747479
17.185807
28.160810
39.761662
58.930516
75.163841
93.472600
101.569891
103.760958
96.653700
82.265735
68.662763
47.914982
34.269691
20.523667
12.956858
7.203817
5.613565
4.007816
3.817677
3.285408
3.544688
3.116727
3.230572
3.301501
3.190637
3.270507
3.243685
3.406405
3.254414
3.365874
3.283620
3.289580
3.416538
3.352761
3.526807
3.326535
3.428459
3.247857
3.241897
3.418922
3.441572
3.248453
3.204942
3.423691
3.364682
3.611445
3.332496
3.551841
3.612638
3.401637
3.303885
3.560781
3.180504
##ZVALUE=325
0.445843
0.580549
0.498891
0.434518
0.742674
0.449419
0.486970
0.542998
0.450611
0.508428
0.530481
0.434518
0.479817
0.573993
0.474453
0.577569
0.524521
0.484586
0.608563
0.672936
0.676513
0.635982
0.694990
0.696778
0.769496
0.575781
0.617504
0.764728
0.652671
0.759959
0.872612
0.899434
0.955462
1.042485
0.973940
1.014471
1.025796
0.950694
1.134872
1.231432
1.278520
1.348853
1.533628
1.762509
3.411770
20.630956
57.637691
158.086419
283.387899
520.287752
730.229020
987.687707
1016.001701
1016.001701
1016.001701
885.027647
671.236515
409.725904
250.775814
112.308860
51.665902
15.701652
8.373857
7.156730
7.778406
10.606647
15.915632
27.002692
39.459467
57.717562
71.394444
87.766647
96.328855
95.901489
90.424418
75.713992
61.883926
43.769479
31.895638
18.966794
12.275577
7.193685
5.147457
3.899932
3.459454
3.131628
3.272891
3.179908
2.908707
3.082752
3.095865
3.128648
3.155470
3.097653
3.166795
3.156662
3.251433
3.306866
3.148913
3.504753
3.355742
3.290772
3.431439
3.247857
3.321767
3.280640
3.418922
3.429651
3.123879
3.558993
3.266931
3.168583
3.283620
3.226995
3.218651
3.270507
##ZVALUE=330
0.428557
0.416636
0.560880
0.463724
0.526905
0.463724
0.475645
0.509620
0.485778
0.496507
0.533462
0.502467
0.332594
0.303984
0.540614
0.518560
0.414848
0.486970
0.488758
0.578761
0.534654
0.666976
0.590682
0.666976
0.635982
0.628829
0.457764
0.569820
0.562668
0.819564
0.669956
0.739694
0.765920
0.809431
0.775456
0.825524
0.845790
0.845790
1.029968
0.819564
1.055598
1.203418
0.984669
1.409650
1.336932
1.518726
2.339482
7.323623
36.493540
88.574886
219.053626
370.927453
640.854836
847.960711
1016.001701
1016.001701
1016.001701
991.277695
741.909742
542.967916
302.209854
169.623494
66.544414
29.091835
10.279417
6.696582
6.087422
7.048845
10.537505
15.643835
26.370883
36.522746
52.788854
67.177415
81.814528
89.086890
89.972615
85.110664
70.099831
56.824684
39.928555
29.165745
18.153787
12.485981
7.130504
5.262494
3.993511
3.476739
3.319979
3.102422
3.044605
2.898574
2.949834
2.841949
2.825856
2.785921
3.015995
2.852678
3.093481
3.009439
3.067851
3.138781
3.181696
3.168583
3.376603
3.204942
3.250837
3.320575
3.432631
3.161430
3.248453
3.152490
3.031492
3.120899
3.004670
3.028512
##ZVALUE=335
0.506639
0.354648
0.441670
0.535846
0.471473
0.405908
0.522733
0.518560
0.415444
0.499487
0.562668
0.587702
0.550747
0.485778
0.512600
0.490546
0.374913
0.417829
0.434518
0.452995
0.630617
0.505447
0.515580
0.546575
0.423789
0.698566
0.521541
0.714660
0.536442
0.607967
0.534654
0.681877
0.540614
0.690818
0.691414
0.763535
0.772476
0.815988
0.809431
0.827909
0.798702
0.906587
0.954866
1.115799
1.236796
1.234412
1.352429
1.510978
1.848936
3.321767
18.929839
51.977634
148.636699
271.060467
509.091616
726.924539
991.574526
1016.001701
1016.001701
1016.001701
841.111541
632.037520
370.697975
227.785707
98.394752
44.125915
13.512969
7.366538
5.857944
5.925894
7.227659
9.490848
14.789701
21.973848
35.235882
47.691464
64.170957
75.645447
82.940459
83.168745
76.927543
68.069696
54.006577
42.539835
28.278828
20.035505
11.853576
8.393526
5.319715
3.792644
3.008842
2.997518
2.964735
2.860427
2.893806
2.567768
2.788901
2.740622
3.077984
3.076792
2.949834
2.984405
3.018975
3.126860
3.123879
3.165603
3.060699
3.289580
3.124475
3.180504
3.080964
3.089905
2.967715
3.088713
2.991557
3.117919
##ZVALUE=340
0.372529
0.394583
0.239611
0.347495
0.402927
0.464916
0.417829
0.487566
0.467896
0.441670
0.473857
0.537634
0.391603
0.449419
0.433922
0.347495
0.289679
0.314713
0.336766
0.456572
0.545979
0.487566
0.555515
0.553727
0.570416
0.533462
0.658631
0.582933
0.631809
0.588894
0.647902
0.635982
0.531673
0.577569
0.727773
0.674725
0.571609
0.575781
0.855923
0.843406
0.711679
0.815988
0.856519
0.964999
0.818968
1.058578
1.131892
1.005530
1.167655
1.310706
1.525879
1.848936
9.701848
31.464696
100.840926
204.507709
423.262715
618.906617
873.426795
1012.571454
1016.001701
1016.001701
897.957683
716.020465
454.149842
285.180807
130.235553
62.025785
18.327832
8.000731
6.220937
5.917549
5.930662
6.660819
9.357929
13.008714
22.525787
31.877756
47.660470
59.857965
71.911812
76.887608
77.721477
73.377490
63.239932
53.474903
38.922429
29.645562
18.188953
12.571812
7.265806
5.251765
3.695488
3.221631
3.001690
2.977848
2.925992
2.791882
2.823472
2.906919
2.822876
2.804995
2.970695
2.971888
3.021955
3.040433
3.043413
3.035665
3.288984
3.117919
3.181696
3.122687
3.002882
2.904534
2.973676
2.846718
##ZVALUE=345
0.311732
0.409484
0.385642
0.461936
0.462532
0.335574
0.372529
0.517964
0.454783
0.428557
0.459552
0.486970
0.382662
0.478625
0.485778
0.430942
0.443459
0.269413
0.460744
0.394583
0.453591
0.517964
0.388622
0.436902
0.442863
0.566840
0.551939
0.574589
0.630617
0.639558
0.534654
0.573993
0.479817
0.558496
0.605583
0.508428
0.640750
0.615716
0.593662
0.728965
0.655651
0.739694
0.796914
0.767708
0.776649
0.844598
1.005530
0.792742
0.947714
1.111627
1.223683
1.083612
1.320839
1.606941
4.092455
16.838908
69.755912
143.876672
307.137966
480.186939
742.245913
930.019617
1016.001701
1016.001701
980.013013
811.429024
552.206635
364.539623
167.856812
82.060695
26.363730
11.477470
6.522536
5.876422
5.232692
5.216599
6.034970
7.718801
12.965798
18.985868
30.536652
40.860772
54.092407
62.384605
70.497990
71.759820
67.622662
60.930848
49.125552
39.847493
27.734637
19.517541
12.325644
8.172989
5.087852
3.824830
3.372431
3.178716
2.749562
2.893806
2.767444
2.769828
2.677441
2.876520
2.864599
2.756715
2.842546
2.946854
3.110766
2.837777
2.938509
2.977848
2.758503
2.727509
2.781749
2.809763
##ZVALUE=350
0.413656
0.383854
0.371933
0.342727
0.390410
0.404716
0.314713
0.301600
0.398755
0.338554
0.449419
0.236630
0.438690
0.517964
0.383854
0.417829
0.389814
0.446439
0.275970
0.429749
0.385642
0.440478
0.457764
0.361800
0.413656
0.520945
0.536442
0.604987
0.521541
0.695586
0.640750
0.481606
0.431538
0.440478
0.472665
0.537634
0.627637
0.663996
0.656843
0.689626
0.706911
0.563860
0.627637
0.718832
0.713468
0.676513
0.790954
0.823736
0.705719
0.899434
1.058578
1.085997
0.985861
1.208782
1.334548
1.594424
2.311468
8.109808
39.232969
90.791583
221.428871
372.829437
621.984005
813.545585
1003.515720
1016.001701
1003.139615
865.096450
599.453449
411.020517
216.778517
116.420984
39.571524
16.004443
6.837845
5.547404
5.139709
4.775524
4.402995
5.124807
7.321835
10.549426
17.664433
24.970770
36.666989
45.803785
56.996942
63.158870
65.249801
64.006448
56.050420
48.429966
36.151409
27.717948
17.731786
12.646914
7.932782
5.659461
4.086494
3.600717
3.008842
2.917647
2.636909
2.845526
2.885461
2.815723
2.670884
2.643466
2.782941
2.812743
2.824664
3.010631
2.768636
2.865791
2.777576
2.532601
##ZVALUE=355
0.421405
0.424981
0.306964
0.351667
0.419617
0.303984
0.127554
0.258684
0.427961
0.429749
0.287890
0.283718
0.437498
0.262856
0.350475
0.346899
0.389814
0.368953
0.521541
0.421405
0.420809
0.542998
0.424981
0.411868
0.391603
0.487566
0.397563
0.361800
0.378489
0.395775
0.454783
0.481606
0.596642
0.653863
0.554919
0.599623
0.572801
0.690818
0.608563
0.696778
0.690818
0.872612
0.632405
0.817776
0.767708
0.715852
0.711679
0.702739
0.746846
0.805855
0.799894
1.004934
1.197457
1.049638
0.926852
1.112819
1.336932
1.314878
1.598597
5.025864
18.247962
70.850849
146.844983
310.323834
489.534736
751.855969
918.296576
1016.001701
1016.001701
886.181593
718.684793
475.183725
299.175978
132.519603
63.052773
18.871427
8.111000
5.173683
4.783869
4.541874
4.270673
4.366636
4.748702
6.429553
8.963943
14.979839
21.163821
32.054782
40.068626
50.405860
56.400895
60.174465
58.256984
52.010417
44.661760
34.480691
27.190447
18.114448
12.959838
8.635521
6.081462
4.111528
3.281832
2.976656
2.833605
2.714992
2.590418
2.713799
2.582669
2.836585
2.700686
2.715588
2.585649
2.531409
2.579689
2.438426
##ZVALUE=360
0.248551
0.403523
0.355840
0.395775
0.159740
0.303984
0.463724
0.201464
0.434518
0.528693
0.376701
0.502467
0.454783
0.446439
0.367761
0.367761
0.423789
0.502467
0.347495
0.414848
0.498891
0.499487
0.288486
0.603795
0.426769
0.551939
0.563860
0.513792
0.528693
0.436902
0.467896
0.457764
0.416636
0.564456
0.583529
0.542998
0.508428
0.538826
0.710487
0.710487
0.661612
0.605583
0.657439
0.622869
0.540614
0.658631
0.715852
0.769496
0.713468
0.821948
0.753999
0.795722
0.822544
0.876784
0.969768
1.028776
0.911951
1.152754
1.347661
1.294613
1.675487
2.083778
9.222627
29.772520
99.947453
193.798542
386.330485
569.300652
829.807520
962.506533
1014.906764
954.206586
774.395466
586.856604
349.465013
210.496783
89.468956
38.332939
10.715723
5.873442
4.746914
4.509687
4.239678
3.900528
3.771782
3.975630
5.022883
7.389784
11.641979
16.975999
26.034713
33.968687
43.380857
49.530864
53.989887
53.792000
50.242543
44.308901
35.700798
28.015971
19.824505
14.088750
8.794665
6.354451
4.430413
3.543496
3.072619
2.874732
2.605915
2.553463
2.485514
2.430677
2.425909
2.240539
2.387762
2.272725
##ZVALUE=365
0.295639
0.321865
0.231862
0.242591
0.365973
0.384450
0.475645
0.327826
0.438690
0.468493
0.438690
0.550747
0.524521
0.493526
0.309944
0.406504
0.364780
0.483990
0.362992
0.353456
0.286698
0.421405
0.451803
0.413656
0.385642
0.536442
0.465512
0.518560
0.500679
0.721812
0.380874
0.582933
0.527501
0.368953
0.440478
0.602603
0.652671
0.473857
0.568628
0.579953
0.487566
0.538826
0.710487
0.559688
0.607967
0.661612
0.599623
0.681877
0.677705
0.742674
0.552535
0.701547
0.749826
0.780821
0.894666
0.863671
1.063943
0.893474
0.879765
0.996590
1.048446
1.376867
1.640916
1.661777
4.484653
15.171766
61.407685
132.601857
303.622484
482.627749
730.913877
877.357721
994.195938
985.908508
845.688581
681.845546
424.590707
256.874561
113.339424
54.310560
17.167926
7.469654
4.389882
4.295707
4.081726
3.618598
3.594756
3.676414
3.663898
4.303455
6.701946
9.889603
15.979409
21.286607
30.009747
36.639571
44.426918
48.370957
50.100684
47.815442
42.456985
36.751628
28.112531
21.925569
14.322996
9.007454
6.492734
4.365444
3.558993
3.002882
2.713799
2.547503
2.558827
2.191663
2.264977
2.081990
##ZVALUE=370
0.452995
0.456572
0.412464
0.384450
0.345707
0.331998
0.433922
0.428557
0.504851
0.431538
0.334978
0.262856
0.450611
0.352859
0.379682
0.278950
0.417829
0.500679
0.485778
0.465512
0.447631
0.467896
0.482798
0.350475
0.483990
0.422597
0.358820
0.452995
0.561476
0.437498
0.450611
0.483990
0.433922
0.432730
0.400543
0.536442
0.552535
0.492930
0.558496
0.548959
0.352859
0.668764
0.475645
0.397563
0.588894
0.568628
0.562668
0.677705
0.777841
0.795722
0.639558
0.489950
0.539422
0.722408
0.692606
0.848770
0.788569
0.639558
0.863671
1.026988
0.942945
1.034737
1.150966
1.173615
1.419783
1.505613
2.246499
8.329749
42.465925
102.851987
242.642760
388.036966
623.784661
804.351568
972.380638
1011.340022
920.719504
757.092834
504.673719
326.524973
150.264502
77.317953
28.023720
11.045933
4.901886
4.262924
3.961921
3.684759
3.474951
3.191829
3.269911
3.173947
3.939867
5.292892
8.883476
12.446642
19.289851
25.066733
33.277869
39.537549
45.036674
46.490431
45.560598
41.771531
34.785867
28.716922
21.114945
14.445782
10.596514
7.082820
5.353689
3.610849
3.031492
2.506971
2.244711
2.146959
##ZVALUE=375
0.301600
0.412464
0.335574
0.274777
0.299811
0.324845
0.337958
0.226498
0.257492
0.395775
0.361800
0.300407
0.143647
0.348687
0.280738
0.291467
0.314713
0.400543
0.403523
0.339746
0.334978
0.349879
0.510812
0.483990
0.404716
0.394583
0.367761
0.434518
0.353456
0.449419
0.407696
0.574589
0.572801
0.512600
0.544786
0.369549
0.579953
0.480413
0.514984
0.480413
0.416636
0.270605
0.531673
0.540614
0.446439
0.402927
0.378489
0.555515
0.530481
0.619888
0.573993
0.488758
0.669956
0.614524
0.622869
0.626445
0.686646
0.638962
0.771880
0.695586
0.847578
0.899434
0.902414
0.841618
1.075864
1.012683
1.126528
1.358986
1.882911
4.709959
27.342439
67.725778
173.359513
304.992795
532.290936
717.986822
924.890637
999.503732
950.484872
826.453567
604.225993
423.038006
229.611397
129.327774
50.085783
20.494461
6.235838
4.242659
3.740788
3.643632
3.523827
3.074408
2.980828
2.776980
3.013611
3.313422
4.874468
6.188750
9.772778
14.045835
21.674633
27.974844
36.298633
41.011572
44.295788
43.888688
40.547848
36.749840
29.179454
23.844838
16.705990
12.576580
8.286834
5.827546
3.758669
2.900958
##ZVALUE=380
0.265837
0.278950
0.174642
0.329614
0.319481
0.308752
0.404716
0.314713
0.323653
0.289679
0.414848
0.325441
0.148416
0.160933
0.343919
0.271797
0.320673
0.309944
0.328422
0.248551
0.401735
0.428557
0.494719
0.452995
0.260472
0.478625
0.460744
0.431538
0.300407
0.561476
0.487566
0.540614
0.549555
0.611544
0.567436
0.604987
0.543594
0.584722
0.633597
0.429749
0.425577
0.448823
0.522733
0.652671
0.468493
0.470877
0.504851
0.570416
0.466704
0.563860
0.485778
0.634789
0.522733
0.526905
0.501871
0.707507
0.450611
0.613928
0.752807
0.613928
0.692606
0.762939
0.901818
0.709891
0.930429
0.771880
1.008511
1.033545
1.214743
1.452565
1.543760
2.513528
12.305975
38.599968
118.274689
223.782659
442.601442
633.233786
859.208703
963.761806
977.801681
891.227722
691.871643
517.861843
303.509831
178.123713
74.001551
33.295751
9.449720
4.670620
3.839731
3.434420
3.261566
3.361702
3.119707
3.152490
2.743602
2.704859
3.045797
3.738999
5.780458
8.461475
13.260841
18.136501
26.053786
31.919479
37.652850
41.581988
42.015910
39.629936
36.199689
29.997826
24.551749
17.302632
12.720823
8.575916
##ZVALUE=385
0.249743
0.336766
0.205636
0.304580
0.184774
0.411868
0.289679
0.313520
0.323653
0.279546
0.261664
0.275970
0.473857
0.252724
0.393987
0.366569
0.271797
0.288486
0.373721
0.269413
0.263453
0.315905
0.357628
0.358820
0.387430
0.371933
0.454783
0.367761
0.424981
0.471473
0.461936
0.553727
0.535846
0.661612
0.518560
0.480413
0.585914
0.508428
0.634789
0.478625
0.572801
0.494719
0.552535
0.575781
0.611544
0.544786
0.622869
0.612736
0.512600
0.498891
0.495911
0.635982
0.502467
0.616908
0.512600
0.515580
0.668764
0.793934
0.581741
0.606775
0.662804
0.617504
0.668764
0.732541
0.661612
0.770688
0.731945
0.855923
1.166463
1.085997
1.067519
1.229644
1.462698
1.616478
5.175471
19.789934
77.475905
163.754821
345.018506
515.867472
741.670728
880.725980
964.256525
934.767723
789.536834
629.420877
400.064588
255.490541
116.753578
55.445433
16.217828
6.342530
3.708601
3.543496
3.576875
3.130436
3.109574
3.168583
2.744794
2.778769
2.765656
2.790689
3.372431
4.529953
7.087588
10.435581
16.310811
22.426844
27.496815
33.201575
36.573410
38.613677
37.633777
34.941435
30.445457
24.103522
##ZVALUE=390
0.319481
0.293851
0.321865
0.239611
0.142455
0.288486
0.282526
0.389814
0.253916
0.284910
0.248551
0.338554
0.319481
0.262856
0.309944
0.271797
0.344515
0.278950
0.146627
0.268817
0.351667
0.428557
0.304580
0.339746
0.322461
0.417829
0.468493
0.435710
0.524521
0.356436
0.378489
0.493526
0.616908
0.573993
0.513792
0.589490
0.696778
0.540614
0.619888
0.569820
0.416636
0.633597
0.570416
0.527501
0.553727
0.688434
0.595450
0.620484
0.537634
0.694990
0.581741
0.540614
0.712872
0.638962
0.617504
0.553727
0.521541
0.624657
0.572801
0.553727
0.657439
0.589490
0.665784
0.677705
0.676513
0.583529
0.792742
0.910759
0.931621
0.923872
1.107454
1.292825
1.092553
1.097918
1.492500
1.502633
2.621412
11.102557
50.506592
117.316842
269.993544
424.097776
644.124746
802.634954
947.066545
973.407030
879.858732
741.804838
508.562922
343.253613
173.578858
88.042617
29.785633
11.190772
4.152656
3.723502
3.394485
3.518462
3.245473
3.185868
3.043413
2.979636
2.881885
2.575517
2.583861
2.894998
3.928542
6.179810
8.833408
13.119578
17.325878
23.360848
28.794408
33.181906
35.787821
36.402941
##ZVALUE=395
0.270605
0.403523
0.369549
0.393987
0.274777
0.385642
0.345707
0.306964
0.269413
0.120997
0.433922
0.187755
0.358820
0.290871
0.277758
0.400543
0.325441
0.245571
0.363588
0.158548
0.330806
0.202656
0.354648
0.208616
0.265837
0.302792
0.428557
0.511408
0.491738
0.382662
0.584722
0.588894
0.512600
0.668764
0.601411
0.563860
0.575781
0.574589
0.672936
0.678897
0.717640
0.664592
0.727773
0.612736
0.667572
0.643730
0.624657
0.895858
0.810623
0.759959
0.609756
0.629425
0.621676
0.685453
0.614524
0.669956
0.641942
0.641942
0.649691
0.645518
0.607967
0.691414
0.608563
0.793934
0.620484
0.581741
0.833869
0.885725
0.757575
0.984669
0.986457
1.036525
1.047850
1.077652
1.124740
1.022816
1.191497
1.184940
1.632571
7.678866
27.935505
99.771619
187.824965
357.445478
524.373651
765.155554
906.713009
995.703936
968.681574
821.633935
642.811656
401.153564
248.627663
107.640624
51.219463
16.704798
6.851554
3.745556
3.534555
3.554821
3.372431
3.449917
3.380775
3.093481
2.977848
2.799630
2.790689
2.615452
2.733469
3.320575
4.537702
7.221699
10.192990
15.225410
19.937754
26.311874
##ZVALUE=400
0.451803
0.325441
0.311732
0.367761
0.360608
0.285506
0.248551
0.255704
0.476837
0.396967
0.340939
0.253916
0.280738
0.221729
0.287890
0.357628
0.247955
0.237823
0.367761
0.425577
0.331998
0.497699
0.374913
0.452995
0.625849
0.438690
0.364780
0.475645
0.459552
0.577569
0.517964
0.635982
0.510812
0.550747
0.506639
0.668764
0.423789
0.590682
0.683665
0.572801
0.786781
0.656843
0.610948
0.720620
0.877976
0.799894
0.682473
0.718832
0.644922
0.642538
0.605583
0.586510
0.610948
0.541806
0.663996
0.474453
0.713468
0.616908
0.721812
0.604987
0.764728
0.685453
0.761747
0.746846
0.682473
0.679493
0.691414
0.683665
0.864863
0.796914
0.934601
0.884533
1.020432
1.052618
1.034737
1.003742
1.005530
0.843406
1.181960
1.228452
1.429915
3.078580
16.411543
47.125816
132.692456
242.529511
451.187491
625.345707
838.306546
941.515565
958.637595
879.938602
679.502487
500.198007
286.334753
171.489716
72.768927
34.363866
11.335611
4.864931
3.463626
3.381968
3.345609
3.360510
3.611445
3.331900
3.259778
3.050566
2.996922
2.611876
2.395511
2.253652
3.088713
3.865957
6.090999
9.505749
##END
