##TITLE=FQP00602
##FORMAT=SPECTACLE-ASCII V-1.2
##DATA TYPE=ULTRAVIOLET SPECTRUM
##SECOND TYPE=ULTRAVIOLET SPECTRUM
##DATE=11/14/17
##TIME=15:39:43
##SPECTROMETER/DATA SYSTEM=SPECTACLE
##XUNITS=NM EM
##YUNITS=ENERGY
##YFACTOR=1
##FIRSTX=220
##LASTX=410
##NPOINTS=96
##3DDATA=Equidistant
##ZUNITS=NM EX
##FIRSTZ=210
##LASTZ=400
##ZPOINTS=39
##XYDATA=(Y..Y)
##ZVALUE=210
4.916787
4.218817
4.652739
4.002452
3.284812
4.490614
4.494786
4.859567
3.684759
3.004670
2.997518
2.957582
2.974868
2.872944
3.092885
3.618598
3.800988
3.453493
4.086494
4.030466
4.042983
5.288720
4.201531
4.240870
5.024672
4.823804
5.802512
5.510449
6.143451
6.316900
6.622672
7.257462
7.330775
6.970763
7.581711
6.792545
7.153749
7.416606
7.844567
7.975698
7.702708
8.394718
9.191632
8.047819
8.061528
8.600950
8.784533
8.584857
8.671880
8.498430
9.057522
9.137988
8.559823
9.383559
9.516478
8.281469
8.910894
9.317994
9.134412
8.917451
9.177923
8.494854
10.282993
8.620620
9.574890
9.737611
9.200573
10.897517
13.090968
13.130903
15.983582
17.445683
20.669699
24.156570
24.786592
26.214719
27.868748
28.550625
28.074980
26.217699
23.667812
22.001863
20.337701
19.009709
14.725924
12.210608
9.473562
8.853674
8.105636
8.613467
7.364750
7.486939
7.218719
8.029938
9.090900
10.021925
##ZVALUE=215
13.085604
11.848807
11.373758
9.930730
8.379817
7.304549
7.572770
7.824898
7.970929
6.585717
5.922914
6.649494
5.230904
3.873706
3.085732
2.822876
3.376603
3.007650
3.320575
3.573895
3.920794
4.409552
3.873706
4.422665
5.289912
4.615784
5.074739
5.531907
6.356835
5.646944
6.504655
6.621480
6.808639
6.765723
7.219911
7.582903
7.023811
7.880926
7.574558
7.198453
6.714463
7.002950
6.643534
6.783605
7.312894
7.867813
7.689595
7.057786
7.566810
7.502437
8.223653
7.847548
7.370710
8.484721
7.709861
7.949471
8.170605
8.263588
8.681417
8.248687
8.036494
8.516908
9.002686
8.280873
8.642673
8.868575
9.308457
8.243918
10.317564
12.449622
13.922453
15.028715
16.193986
18.829703
20.007491
21.617413
22.526979
20.651817
20.443797
20.823479
18.512607
17.107725
15.700459
14.822483
11.279583
9.936690
9.169579
7.650852
6.554723
7.371902
7.130504
7.702708
6.686449
7.057786
7.718801
7.700920
##ZVALUE=220
28.949976
32.210946
32.565594
35.293698
30.527711
26.923418
21.749735
16.708970
13.855696
13.705492
15.077591
14.327765
14.620423
13.305545
10.012984
8.765459
6.338954
5.464554
5.126595
4.041791
3.678799
4.394650
4.194975
4.011989
4.879832
5.293489
5.179644
5.094409
5.672574
7.476807
7.812977
7.291436
7.838607
7.577538
8.184910
7.457733
8.750558
8.045435
8.464456
8.458495
8.277893
7.709861
8.971691
8.853674
8.355975
9.019971
9.661913
8.480549
8.261800
8.545518
8.439422
9.547472
8.850694
8.846521
8.930564
9.194613
9.771585
10.478497
9.409785
8.368492
10.730624
10.659695
9.056926
9.369850
10.231733
9.175539
9.935498
11.438727
11.209846
14.035702
13.274550
14.164448
15.603900
18.084645
20.126700
19.256473
19.423962
20.462871
20.343661
17.423630
17.776489
17.221570
15.274882
13.815761
11.973977
11.810660
10.802746
9.493828
9.174943
9.203553
8.876920
8.176565
8.346438
7.758737
7.700920
8.637905
##ZVALUE=225
38.189888
39.869547
53.236485
68.583488
81.759691
83.830953
78.304410
60.827732
44.668913
38.264990
26.188493
23.806691
24.370551
27.666688
27.194619
24.786592
21.244884
19.946694
14.361739
10.425448
7.012486
4.544854
3.957748
4.614592
4.967451
4.772544
5.561709
5.466938
5.655885
6.962419
7.174611
7.032752
7.622838
9.018779
7.268786
8.758903
9.024739
10.269880
9.552836
9.971857
10.256767
10.168552
10.322928
9.229779
10.234714
10.124445
9.846687
9.400845
10.417700
9.920597
11.386871
10.769963
10.485649
10.024905
12.511611
11.567473
10.811687
11.340976
11.433959
11.613965
12.424588
13.472438
12.294650
11.890531
12.928843
13.349652
13.108850
12.812614
13.497472
15.535951
16.491413
16.461611
18.198490
19.396544
18.102527
20.451546
19.731522
18.876791
19.242764
17.108917
18.144846
16.007423
15.829802
14.460683
13.612509
13.767481
13.489723
10.922551
12.597442
10.920763
11.767745
12.074709
11.248589
11.465549
11.383891
10.814667
##ZVALUE=230
25.323629
28.070807
49.576759
88.721514
120.489597
162.310600
179.073811
186.362863
170.507431
146.415830
102.432966
74.345469
46.814680
41.097999
39.878488
43.912530
45.400858
47.242641
43.236613
36.718845
27.847886
18.495917
13.971925
8.555651
6.493926
5.619526
6.172657
6.042719
5.864501
6.797910
6.511807
7.237792
7.698536
7.860661
7.317662
8.436441
8.550882
9.627938
10.273457
9.997487
10.216832
11.292696
11.091828
10.634661
11.214614
12.089610
12.803674
12.456775
12.041926
14.877915
12.508631
13.662577
14.331937
15.739799
15.506744
15.457869
16.207695
16.132593
16.196966
16.593933
17.985702
18.087626
18.103719
17.138720
18.468499
18.309951
18.693805
19.192696
18.565655
18.773675
22.997856
22.136569
25.067925
23.725629
24.511814
24.088621
25.639534
23.408532
22.898912
22.892952
22.599697
21.276474
20.854473
19.209981
19.069910
18.067956
18.003583
17.731786
16.353726
18.914938
18.028617
16.266704
16.192794
16.240478
16.030669
15.088916
##ZVALUE=235
7.171631
9.365678
18.433928
48.680902
84.810853
150.678754
210.080743
294.651985
336.113572
344.363451
320.315957
257.195830
188.576579
125.087500
88.115931
71.036816
61.268806
62.537789
70.531964
70.722699
71.361661
62.317848
46.760440
38.941503
24.077892
16.581416
13.024807
8.031726
7.820725
7.354617
7.534623
8.359551
7.920861
9.117723
8.197427
8.838773
9.344816
9.996891
10.732412
12.051463
10.676980
11.852980
12.404919
12.330413
12.436509
16.173720
15.173554
15.279651
17.942786
18.568635
18.041730
18.253922
20.189881
18.752813
20.691752
21.900535
22.214651
21.923780
22.979975
23.970604
24.068952
23.553967
22.297502
24.900436
26.115775
24.743676
25.761724
25.596619
25.482774
28.729439
29.907823
29.378533
30.486584
29.963851
35.455823
33.343434
31.465888
30.509830
31.675696
29.420853
29.316545
29.848814
26.166439
28.585792
27.112961
27.942657
26.035905
24.377704
24.239421
23.158789
24.365783
23.576617
24.194717
21.733642
22.690892
21.329522
##ZVALUE=240
2.090931
2.252460
3.819466
9.901524
27.593970
55.928826
123.801827
205.076933
335.292816
428.138971
507.059693
527.553558
500.409007
411.426425
313.822627
203.516483
140.216947
92.327595
76.120496
78.532696
91.798902
94.572902
97.081661
95.292926
78.047514
62.381625
46.510696
33.370852
21.682978
17.657876
13.263822
10.115504
10.359883
10.087490
9.921789
10.885596
10.549426
12.105703
10.929704
11.805892
13.177991
13.960600
14.395714
15.410781
15.090704
16.923547
18.693805
20.104647
20.184517
21.922588
25.208592
24.164915
23.869872
23.553967
26.352406
27.088523
27.972460
27.066469
28.803945
30.000806
29.768944
29.688478
30.848980
29.942989
30.588508
29.810667
31.364560
29.981732
32.598972
33.730865
34.251809
36.510825
34.856796
38.567781
39.054751
37.385821
37.941933
37.117600
35.913587
35.430789
36.277771
33.504963
34.033656
31.824708
30.395985
30.621886
32.494664
30.554533
30.407906
30.446649
29.465556
29.004812
27.784705
27.565956
26.169419
26.161671
##ZVALUE=245
1.430511
0.951886
1.216531
1.574755
3.003478
6.688833
23.106933
53.901672
128.665566
218.803883
366.773605
486.669540
591.287613
644.240975
625.851750
534.859896
433.336496
296.783447
197.487473
118.032694
82.096457
75.995922
86.985826
100.454688
109.076500
110.378861
101.017952
89.699626
70.753694
58.292747
42.169690
28.316975
21.072626
13.456941
13.525486
11.992455
11.966825
12.421608
11.859536
12.342930
13.248920
14.357567
15.823841
16.196966
17.242432
18.738508
18.390417
20.256639
22.468567
22.240877
23.347735
25.931597
27.502775
27.181506
27.543902
27.147532
27.241707
30.997992
30.557513
30.277967
30.862689
29.692650
30.077696
28.996468
30.155778
31.334758
28.963685
30.822754
30.752420
30.197501
30.256510
32.240748
31.896830
34.509897
34.536719
34.728646
34.941435
34.206510
33.538938
31.861663
32.737851
31.931996
30.616522
29.913783
30.165911
32.547712
28.731823
30.156970
29.160976
29.340982
28.029680
26.997924
27.091503
28.781891
27.940869
26.887655
##ZVALUE=250
1.566410
1.454949
1.472831
1.239777
1.305938
1.308918
1.885891
4.752874
19.067526
45.892596
119.383931
214.602947
341.041684
519.109964
635.550022
739.122629
746.867657
681.673884
571.847558
392.597914
268.328786
174.081922
97.911954
76.713562
81.433654
94.803572
110.439658
117.445588
117.425919
111.484528
97.183585
76.461434
58.787465
39.753914
27.964711
19.332767
14.496446
12.671947
12.340546
12.890697
13.817549
14.356971
15.823841
15.912652
16.223788
18.783808
18.287897
19.175410
21.130443
21.981001
23.328662
24.755597
24.951696
24.981499
24.720430
27.654767
28.685927
27.536750
27.128458
27.843714
27.344823
26.660562
26.870966
27.819872
27.454495
25.859475
26.136637
28.540492
26.696920
27.346611
27.672648
30.362606
30.002594
28.998852
30.297637
32.008886
29.052496
29.870868
29.540658
31.680465
28.792620
27.853847
27.810931
26.947856
28.391480
26.614666
25.774837
26.568770
26.263595
25.679469
25.809407
26.006699
25.659800
24.768710
26.110411
25.811791
##ZVALUE=255
1.227856
1.324415
1.182556
1.368523
1.405478
1.497865
1.227856
1.301765
1.668930
3.481507
10.158420
39.737821
82.699656
197.943449
317.488909
517.709851
658.164024
812.726021
871.912837
822.562575
721.839666
587.920547
382.195711
236.182809
120.280981
81.573725
71.018934
80.173612
100.768805
114.922523
123.543739
119.582415
116.997957
94.780922
76.792836
55.622458
39.763451
26.478767
19.933581
15.304685
12.840629
13.704896
14.593601
14.939904
15.364885
16.693473
18.787980
18.602610
18.505454
20.685792
21.155477
21.868944
21.684766
21.697879
22.167563
22.600889
23.076534
22.570491
24.466515
22.550821
23.184419
23.074746
23.080707
22.624731
22.700429
22.461414
21.840930
21.348596
22.532940
23.451447
23.556948
24.395585
25.036931
26.025772
25.160909
25.486946
26.107430
24.883747
25.316477
25.790930
24.749637
24.188757
23.236871
23.956895
23.553967
23.771524
24.133921
23.259521
23.181438
23.283958
23.016930
22.904873
22.665858
24.037957
22.123456
23.380518
##ZVALUE=260
0.988841
0.981688
1.101494
0.982881
1.023412
1.015663
1.262426
1.200438
1.270771
1.525879
1.117587
1.829863
5.552769
23.330450
59.511662
149.662495
260.052681
454.966426
623.705983
843.117833
937.708616
964.944959
859.645605
714.609623
479.477644
325.475931
181.332827
111.073852
66.987872
62.312484
74.403882
96.100569
110.775828
123.644471
122.057796
118.128657
100.362897
77.511668
59.608817
38.317442
29.644966
19.819736
16.754866
13.198853
14.617443
15.053749
16.063452
15.522838
16.796589
18.152595
18.764734
19.120574
20.209551
19.810796
18.798709
20.365715
19.697547
20.414591
21.088719
20.044446
20.314455
19.394755
20.878911
19.784570
19.086599
19.986629
19.115806
20.596981
19.128919
20.615458
22.110939
19.942522
21.732450
22.125840
22.419691
23.202896
21.666884
21.053553
22.226572
22.319555
22.871494
21.343827
20.933747
21.229982
22.532940
20.500422
20.749569
20.970702
20.824671
21.139979
21.130443
20.887852
21.087527
20.353794
20.448565
20.275712
##ZVALUE=265
0.805855
0.876784
1.176596
0.977516
0.732541
1.100898
0.993609
1.252890
1.292825
1.339912
1.564622
1.198649
1.603961
1.434684
2.970695
15.995502
42.433739
114.520788
212.792754
423.487425
612.933040
806.712508
991.270542
1015.774012
950.538516
825.943947
605.602860
429.294705
236.423612
143.774748
82.591772
53.963661
57.811737
82.227588
101.629496
120.490789
126.983523
125.826597
115.123987
98.148584
79.858899
55.956841
41.233897
28.416514
20.179749
16.957521
14.952421
14.354587
15.303493
16.237497
16.636848
17.438531
17.479658
18.356442
18.402934
17.972589
18.296838
18.696785
19.484758
18.704534
19.013882
18.162727
18.705726
18.216968
19.169450
18.157959
18.971562
17.817616
18.902421
19.103885
19.431710
20.066500
20.300746
20.271540
20.540953
20.558834
20.596981
20.207763
20.289421
19.490719
18.774867
20.153522
20.066500
19.496679
18.987656
18.870831
19.143820
19.337535
19.076467
19.115806
19.127727
19.922853
19.988418
19.995570
19.285679
19.824505
##ZVALUE=270
0.363588
0.476837
0.603795
0.669956
0.882745
0.656843
0.943542
0.818968
0.776649
0.942945
0.835657
0.905991
0.962615
1.200438
1.157522
1.500845
1.893640
7.126927
22.316575
82.506537
170.709491
313.158631
575.932860
786.748528
999.816656
1015.607715
1015.607715
980.140567
758.853555
572.130680
411.014557
207.387805
111.196637
54.943562
46.357512
60.151815
79.029799
101.524591
117.126703
126.265883
127.596855
113.634467
100.936890
77.310801
60.543418
40.354729
28.690696
21.999478
18.576980
15.481710
15.512705
16.630888
16.491413
17.087460
17.366409
17.406940
17.822981
18.184781
18.717647
18.652678
18.857718
18.267632
18.574595
19.046664
18.563867
18.046498
18.609762
18.925667
18.130541
19.334555
19.180775
19.425750
19.575953
19.512773
19.609928
20.240545
19.843578
18.508434
19.271970
18.585920
18.780828
19.094944
18.124580
18.111467
19.026995
18.393993
18.198490
18.385649
19.141436
18.593669
18.548965
18.920898
18.042922
18.459558
18.582940
17.403960
##ZVALUE=275
0.828505
0.603795
0.739694
0.612736
0.848770
0.816584
0.737906
0.819564
0.934601
1.082420
1.119971
1.238585
1.230836
1.100898
0.989437
1.372695
1.227856
1.220703
1.626611
3.796816
14.332533
43.548942
138.245821
267.249942
514.432788
719.673634
956.140757
1015.774012
1015.774012
1015.774012
983.881950
723.700523
507.721901
271.013975
151.687860
66.452622
42.389631
44.025779
59.154630
80.724955
98.322630
115.961432
123.410821
123.489499
114.671588
96.591711
78.816414
59.239864
44.443607
32.003522
24.985671
19.274950
17.461777
17.437935
17.614961
18.379688
18.098950
18.780828
18.837452
18.566847
19.141436
19.155741
19.833446
19.291639
20.100474
20.091534
19.808412
20.676851
20.786524
20.005703
20.548701
20.736456
21.046996
20.521879
20.238757
20.013452
20.706654
19.776821
18.945932
20.326972
19.245744
19.106865
18.872619
18.745661
18.545985
19.302964
18.225908
17.885566
18.198490
18.612742
17.820597
17.369986
18.227696
16.622543
17.499924
17.561913
##ZVALUE=280
0.585914
0.756979
0.757575
0.730753
0.727773
0.582933
0.844598
0.559688
0.748634
0.818968
1.060963
0.710487
0.706911
1.060963
0.903606
1.079440
0.939965
1.202822
1.370907
1.418591
1.682639
1.918674
9.031892
32.610893
111.183524
212.643743
416.571498
641.123652
945.615768
1015.774012
1015.774012
1015.774012
1015.774012
860.756636
623.050928
343.881845
197.568536
88.989735
47.880411
33.696890
40.598512
59.756637
78.539848
99.075437
112.479925
120.996833
120.403767
110.522509
97.991824
77.705979
62.002540
43.813586
33.872724
24.695992
21.486878
19.068718
18.020868
19.353628
20.534992
20.590425
20.940900
21.179914
20.859838
20.607710
20.765662
20.961761
20.288825
20.841956
21.369457
20.784736
21.544695
22.378564
21.536946
21.898746
21.426678
21.051764
20.044446
20.674467
20.557642
20.233989
18.857718
19.168854
19.252896
18.290877
18.811822
18.781424
18.631816
18.207431
17.721653
17.240644
17.429590
17.362833
17.154813
16.799569
17.043948
17.884970
##ZVALUE=285
0.606775
0.365973
0.650883
0.559688
0.629425
0.757575
0.607967
0.579953
0.536442
0.671744
0.807643
0.827909
0.758767
0.989437
1.120567
0.876784
0.908971
0.930429
0.954866
1.208782
1.285672
1.422763
1.573563
1.958609
4.580617
17.182827
63.366890
135.394931
298.591852
494.406819
727.847815
1012.635827
1015.774012
1015.774012
1015.774012
997.977853
785.632730
481.935740
294.497609
133.140683
68.982840
30.050874
27.474761
39.549470
53.503513
76.018572
92.175603
108.762980
116.818547
117.200613
112.852454
96.662641
81.863999
61.947703
48.190951
34.686923
28.338432
23.107529
21.951795
21.978617
21.625757
22.660494
22.555590
22.597909
22.195578
22.513866
22.856593
22.959709
23.265481
23.315549
22.387505
23.222566
22.956729
22.997856
22.174716
22.913814
21.780729
21.504760
21.308661
20.959973
19.673705
19.899607
19.279718
18.800497
19.249916
18.890500
18.825531
18.104911
18.592477
17.719865
17.711520
17.324686
17.843843
16.958714
16.636848
16.771555
##ZVALUE=290
0.598431
0.561476
0.528693
0.703931
0.725985
0.544786
0.617504
0.490546
0.514984
0.736713
0.503659
0.703931
0.510812
0.778437
0.863671
0.811815
0.894666
0.809431
1.003742
1.127720
1.032948
1.130700
1.117587
1.319647
1.452565
1.609921
2.241731
6.812811
33.930540
86.728930
173.709989
374.815464
590.656996
918.039680
1015.774012
1015.774012
1015.774012
1015.774012
926.357508
608.956814
396.373868
192.781687
98.797679
37.622452
22.244453
25.252700
35.131574
51.980615
68.050623
90.445876
105.312467
116.894841
117.555857
110.788941
99.646449
79.174638
65.067410
48.547983
39.308667
31.320453
27.220845
25.140643
24.761558
24.090409
24.214983
24.217963
25.097728
24.430752
24.033785
24.161935
24.758577
24.566650
23.856759
23.959875
23.238659
22.473931
21.989942
22.074580
21.338463
21.576881
21.123886
20.149946
20.748973
20.322800
19.204617
19.219518
19.219518
18.526912
18.695593
17.699599
17.903447
17.867684
17.602444
17.362833
17.364621
16.715527
##ZVALUE=295
0.542998
0.554919
0.663996
0.553727
0.536442
0.665784
0.471473
0.540614
0.367761
0.521541
0.525713
0.597835
0.562668
0.717640
0.843406
0.716448
0.717640
0.669956
0.937581
0.845790
0.905991
0.827909
0.866652
1.128912
1.109838
1.348853
1.331568
1.750588
2.143979
3.144741
17.032623
54.284930
130.001903
315.422416
508.436561
806.372762
994.528532
1015.774012
1015.774012
1015.774012
955.196619
681.100488
467.803478
239.364505
132.025480
52.053928
24.939775
18.041730
23.066998
36.378503
49.895644
70.472956
84.578991
103.540421
111.569762
114.934444
109.273791
96.351504
82.594752
64.670444
52.705407
40.663481
34.140944
28.730631
27.207732
25.638938
25.626421
25.182962
25.218725
25.643706
25.085807
24.546981
24.887919
24.551749
24.173856
23.415685
22.888780
22.320747
22.191405
21.033883
21.384954
21.142960
20.606518
20.112991
19.618869
18.841624
19.529462
19.243956
18.703938
18.561482
18.261671
17.818809
17.836690
17.100573
17.084479
16.870499
##ZVALUE=300
0.413656
0.357628
0.520945
0.297427
0.488758
0.531673
0.456572
0.574589
0.549555
0.638962
0.496507
0.386834
0.551939
0.505447
0.635982
0.543594
0.727773
0.555515
0.606775
0.583529
0.676513
0.521541
1.008511
0.969768
0.982881
1.048446
1.088977
1.102686
1.143813
1.469851
1.653433
2.137423
7.318854
28.978586
103.964806
208.948851
436.428785
659.064651
948.401690
1015.774608
1015.774608
1015.774608
1005.252600
833.515525
545.892715
354.039669
178.977847
95.951557
37.857890
20.989776
19.940734
26.080608
37.966967
48.225522
67.781806
82.633495
101.528764
111.109614
111.945868
108.329654
95.359683
83.127618
65.292716
53.443909
39.422512
33.504963
28.583407
26.872754
25.471449
25.161505
24.935603
25.356412
24.647713
24.427772
23.891926
24.165511
23.350716
22.711754
22.642612
21.716952
21.679997
21.052957
20.322800
20.385981
20.487905
20.046830
19.964576
19.165874
19.120574
18.803477
18.200874
17.750859
17.249584
16.625524
16.749501
16.511679
##ZVALUE=305
0.410676
0.493526
0.512600
0.364780
0.504851
0.433922
0.467896
0.343919
0.428557
0.548959
0.384450
0.401735
0.512600
0.638962
0.510812
0.511408
0.615716
0.617504
0.579953
0.640750
0.637770
0.771880
0.988841
1.052618
0.837445
0.837445
1.019835
0.973940
1.068711
1.333952
1.477599
1.350641
1.737475
1.799464
3.985763
15.970469
70.072412
154.982805
350.139737
548.785925
849.290490
1015.774012
1015.774012
1015.774012
1015.774012
922.007561
653.424859
450.404882
232.907534
131.374598
56.943893
29.537678
19.899607
21.660924
28.006434
36.508441
52.886605
65.664649
83.547831
94.096661
106.205940
106.521845
102.450848
92.226863
77.265501
64.979792
48.703551
40.197968
31.661987
27.832985
25.571585
24.479628
23.688674
23.710728
23.003817
23.289919
22.162795
22.401810
21.857619
21.858811
21.733642
20.870566
20.599961
20.365715
20.571947
19.833446
19.906759
19.744635
19.392967
18.566847
18.306971
18.278956
17.416477
17.449856
17.071962
16.850829
##ZVALUE=310
0.491738
0.386834
0.329614
0.440478
0.410676
0.381470
0.419617
0.459552
0.468493
0.575781
0.436902
0.417829
0.574589
0.618696
0.542998
0.467896
0.483990
0.601411
0.585914
0.703931
0.619888
0.770688
0.643730
0.765920
0.706911
0.802875
0.649691
0.964999
0.803471
0.922680
1.114607
1.181960
1.109838
1.363754
1.325607
1.651645
1.915693
8.715987
30.390620
108.163953
211.286545
430.256724
643.096566
934.977531
1015.785933
1015.785933
1015.785933
1006.361842
830.673575
548.696518
362.461805
181.956887
101.241469
41.589737
23.327470
18.527508
21.161437
26.869774
34.112930
47.446489
59.790611
75.734854
86.060762
96.748471
98.258853
94.410777
86.525679
73.249936
60.024858
46.156645
37.826896
29.543638
25.556684
22.731423
22.074580
21.966696
21.471977
21.204948
21.543503
20.472407
20.330548
20.209551
20.196438
20.136833
20.244718
19.209981
19.472837
19.372702
19.148588
18.481612
18.456578
18.019676
17.641783
17.514825
17.329454
17.018914
##ZVALUE=315
0.430942
0.398755
0.380874
0.371933
0.218749
0.301600
0.496507
0.423789
0.480413
0.324845
0.248551
0.526905
0.560880
0.354648
0.409484
0.487566
0.497699
0.450611
0.574589
0.690818
0.750422
0.663996
0.450611
0.507832
0.705719
0.641942
0.727773
0.630617
0.752807
0.688434
0.522733
1.093745
1.025796
0.969768
1.182556
1.121759
1.194477
1.408458
1.827478
3.593564
16.244650
71.630478
153.903961
335.870981
534.944534
833.844543
1002.350450
1015.774608
1015.774608
1015.774608
925.073624
660.109520
460.448861
247.733593
137.654543
55.940747
28.361678
17.123818
17.241836
20.972490
24.293661
32.919645
40.866733
55.891871
66.689849
81.166625
87.866783
90.566874
88.331699
77.780485
68.067908
54.407716
44.034719
32.992959
27.090907
22.628903
20.924807
19.831657
19.210577
19.444823
19.173622
19.655824
19.217730
19.120574
19.261837
19.517541
19.041896
18.954873
19.061565
18.559694
18.320680
17.926693
17.734766
17.454624
17.344952
17.151833
##ZVALUE=320
0.284910
0.359416
0.253916
0.159740
0.339746
0.271797
0.319481
0.313520
0.356436
0.279546
0.256896
0.380874
0.377893
0.341535
0.347495
0.443459
0.294447
0.556707
0.376701
0.361800
0.428557
0.419617
0.538826
0.371933
0.590682
0.413656
0.591874
0.597835
0.821948
0.520945
0.674725
0.606775
0.535846
0.600815
0.903606
0.828505
0.929832
0.944734
1.134872
1.252890
1.548529
2.051592
7.295609
42.765737
106.327534
262.568593
422.986746
668.741465
867.397785
1015.724540
1015.724540
1015.724540
1005.085707
779.994726
569.181442
318.568945
184.386969
82.843900
39.777756
17.298460
13.350844
14.278889
15.667677
19.152761
25.286674
36.010742
46.608448
59.973001
70.618987
80.526471
83.552003
80.680847
73.644519
61.574578
51.073432
38.089752
30.699968
24.423599
20.916462
19.163489
18.311739
17.945766
17.807484
17.899871
18.148422
18.168688
17.995834
18.355846
18.447638
17.831922
17.894506
17.940998
17.661452
17.108917
17.389655
16.720891
##ZVALUE=325
0.269413
0.208616
0.275970
0.249743
0.210404
0.366569
0.310540
0.252724
0.183582
0.192523
0.276566
0.257492
0.393987
0.399947
0.240803
0.427961
0.351667
0.383854
0.331998
0.309944
0.394583
0.480413
0.413656
0.412464
0.436902
0.465512
0.592470
0.515580
0.594854
0.652671
0.690818
0.666976
0.756979
0.505447
0.623465
0.684857
0.758767
0.779629
0.994802
1.077652
0.992417
1.212955
1.354814
1.520514
3.915429
30.808449
78.567863
190.776587
326.351523
580.164790
779.036880
999.301672
1015.684009
1015.684009
1015.684009
840.744972
635.212660
390.946865
237.997770
106.176734
52.389503
19.168854
11.144876
10.116696
10.703802
12.855530
16.191602
22.570491
30.821562
44.721961
54.837465
66.419840
73.164701
77.152848
74.302554
65.672994
57.072639
44.586658
35.747886
27.453899
22.576451
19.010901
18.390417
17.387867
17.393827
17.070770
16.883612
17.729998
17.611980
16.983747
16.936660
16.905665
16.811490
17.167926
17.156601
16.696453
##ZVALUE=330
0.261664
0.226498
0.245571
0.217557
0.311732
0.292659
0.448823
0.295639
0.312924
0.314713
0.304580
0.270605
0.395775
0.331998
0.475645
0.359416
0.457764
0.303984
0.504851
0.508428
0.371933
0.447631
0.539422
0.333786
0.399947
0.497699
0.376701
0.636578
0.529885
0.717640
0.655651
0.570416
0.680685
0.583529
0.649691
0.620484
0.641942
0.805855
0.890493
0.808835
0.977516
0.958443
1.145601
1.030564
1.333952
1.725554
2.228618
13.918877
45.988560
140.343904
249.563456
463.516712
649.039745
902.183652
1015.761495
1015.761495
1015.761495
919.631720
731.084943
470.695496
303.178430
144.068599
74.432492
27.387738
13.090968
8.790493
8.811951
9.696484
11.529922
16.122460
21.285415
30.921698
39.673448
53.458810
62.044859
69.035888
71.490407
68.534613
62.042475
51.871538
42.744875
33.053756
27.468801
22.210479
19.968748
17.683506
17.394423
16.689897
16.744733
16.591549
16.668439
16.908646
16.877651
16.530752
16.268492
16.103983
##ZVALUE=335
0.335574
0.187755
0.255704
0.205636
0.240803
0.318885
0.164509
0.347495
0.320673
0.287890
0.210404
0.295639
0.276566
0.332594
0.393987
0.448823
0.320673
0.455976
0.461936
0.352859
0.537634
0.408888
0.551939
0.488758
0.329614
0.371933
0.438690
0.552535
0.427961
0.699759
0.641942
0.560880
0.730753
0.598431
0.711679
0.653863
0.521541
0.598431
0.656843
0.718832
0.801682
0.747442
1.020432
0.972748
1.068711
1.279712
1.204610
1.428723
1.592636
6.204844
27.299523
95.883608
183.530450
365.746617
553.309917
815.146565
984.354019
1015.774608
1015.774608
988.695025
819.273591
565.805435
382.749438
201.572776
108.746886
38.848519
16.937852
9.054542
8.687973
9.490848
9.985566
12.293458
14.724731
21.947622
28.859973
39.735436
48.253536
57.720542
64.400434
66.415668
63.750744
57.141781
49.902797
41.242838
34.496784
27.301908
23.088455
19.384623
17.810464
16.602874
16.420484
15.727878
16.161799
15.900731
15.969872
15.628934
##ZVALUE=340
0.286698
0.243783
0.180602
0.291467
0.122786
0.244975
0.214577
0.313520
0.297427
0.206828
0.322461
0.203848
0.275970
0.231862
0.296831
0.436902
0.377893
0.492930
0.411868
0.381470
0.464916
0.366569
0.335574
0.408888
0.541806
0.454783
0.310540
0.589490
0.486970
0.486970
0.456572
0.489950
0.545979
0.561476
0.388622
0.686646
0.556707
0.535846
0.616908
0.662804
0.670552
0.659823
0.640750
0.938773
0.822544
0.938773
1.005530
1.095533
1.216531
1.368523
1.459718
2.795458
13.977885
67.365766
144.779682
309.270620
479.348898
716.784596
898.883939
1015.774012
1015.774012
1015.774012
900.769830
659.771562
467.570424
252.265930
139.254928
54.302812
23.300648
10.148883
8.943677
8.982420
9.038448
10.452867
11.876822
15.481710
20.062923
28.174520
36.534667
47.647953
54.010749
60.704947
62.866807
60.928464
56.424737
47.332644
41.226745
32.592416
27.081966
21.822453
18.882751
16.550422
16.192794
15.499592
15.458465
15.462637
##ZVALUE=345
0.243783
0.272989
0.219941
0.169873
0.363588
0.193715
0.378489
0.293851
0.242591
0.465512
0.152588
0.268817
0.407696
0.307560
0.344515
0.218749
0.419617
0.436902
0.446439
0.296831
0.281930
0.351667
0.346899
0.491738
0.441670
0.358820
0.421405
0.498891
0.407696
0.526905
0.477433
0.491738
0.594854
0.536442
0.389814
0.631809
0.431538
0.450611
0.377893
0.621676
0.700951
0.594854
0.668764
0.727773
0.700951
0.722408
0.866652
0.887513
0.853539
1.023412
1.082420
1.080632
1.396537
1.648664
5.573630
42.747855
105.039477
229.543447
367.206931
595.590472
772.472620
983.305573
1015.774012
1015.774012
983.161926
756.003857
559.297800
330.092907
187.905431
75.284839
34.892559
13.376474
9.306669
8.537769
9.158850
9.428859
9.741783
11.554956
14.200807
19.863844
25.961995
35.650730
42.153001
49.680471
55.234432
58.072805
57.178736
52.580833
47.416687
38.813949
32.528639
25.217533
21.089911
17.867684
16.090870
14.961958
##ZVALUE=350
0.376701
0.286698
0.289679
0.399947
0.263453
0.253916
0.430942
0.221729
0.330806
0.338554
0.305772
0.309944
0.309944
0.206828
0.433922
0.325441
0.269413
0.289679
0.296831
0.466704
0.265837
0.259876
0.405908
0.460744
0.312924
0.339746
0.380874
0.251532
0.440478
0.372529
0.282526
0.397563
0.466704
0.444651
0.492930
0.474453
0.562668
0.568628
0.611544
0.672936
0.534654
0.653863
0.736713
0.799894
0.495911
0.800490
0.728965
0.852942
0.737906
0.905991
0.996590
1.060963
1.176596
1.261830
1.382828
1.573563
2.793670
23.707747
71.432590
178.994536
296.064615
504.776835
674.910545
896.975994
1015.774012
1015.774012
1015.774012
857.352018
657.894611
402.273536
242.229700
108.800530
51.366687
16.234517
9.484887
8.438826
8.277893
8.440614
8.803606
9.828806
11.071563
14.178753
17.900467
23.960471
30.020475
38.371682
44.653416
50.243735
52.426457
52.480698
49.310923
42.436719
37.105680
30.388832
25.212765
20.508766
##ZVALUE=355
0.289679
0.318885
0.368953
0.334978
0.367761
0.311732
0.298619
0.264645
0.353456
0.287890
0.205636
0.383854
0.368953
0.237823
0.395775
0.476837
0.411868
0.251532
0.248551
0.163913
0.337958
0.318885
0.363588
0.407696
0.456572
0.315905
0.403523
0.557899
0.481606
0.495911
0.521541
0.573993
0.536442
0.459552
0.480413
0.565648
0.439882
0.674725
0.570416
0.519753
0.399947
0.606775
0.673532
0.346899
0.548959
0.787973
0.680685
0.678897
0.884533
0.693798
0.932813
0.934601
1.030564
0.999570
0.930429
1.071692
1.218915
1.486540
1.817942
10.792613
44.271946
136.463642
235.297680
410.159826
566.273928
773.372650
904.603601
1000.573635
992.787480
856.220722
692.937970
450.451970
283.257961
129.742622
64.807534
23.487806
11.241436
7.837415
7.862449
7.844567
8.107424
8.595586
9.157658
10.350943
12.361407
16.341805
20.757914
26.766658
33.124685
39.918423
44.839978
48.756599
48.005581
45.269728
40.825605
34.298897
##ZVALUE=360
0.256896
0.146627
0.274777
0.384450
0.227690
0.333786
0.187755
0.314713
0.235438
0.399947
0.351667
0.260472
0.440478
0.180602
0.386834
0.241995
0.457764
0.354648
0.244975
0.368953
0.278950
0.386834
0.419617
0.330806
0.364780
0.483990
0.500679
0.371933
0.593662
0.427961
0.504851
0.396967
0.494719
0.567436
0.520945
0.391603
0.529885
0.423789
0.439882
0.411868
0.483990
0.552535
0.444651
0.552535
0.587702
0.747442
0.508428
0.718832
0.685453
0.766516
0.784993
0.852942
0.870824
0.959635
0.904799
1.047850
0.962615
1.301765
1.195669
1.610518
1.838803
3.889799
20.580888
88.109970
171.594024
333.184004
476.778746
658.243895
798.947811
940.291882
971.104503
901.486874
768.100619
534.312725
361.899734
182.573795
97.034574
36.735535
15.074611
7.822514
7.213950
7.336736
7.445812
7.552505
7.761717
8.837581
9.280443
10.943413
13.516545
17.657876
21.963716
29.214621
33.921599
40.416718
42.338967
43.389797
##ZVALUE=365
0.273585
0.267625
0.354648
0.350475
0.343919
0.259876
0.403523
0.425577
0.294447
0.552535
0.418425
0.277758
0.400543
0.323653
0.265837
0.243783
0.273585
0.200868
0.405908
0.461936
0.388622
0.252724
0.503659
0.142455
0.373721
0.461936
0.434518
0.326633
0.387430
0.393987
0.368953
0.527501
0.250936
0.497699
0.339746
0.480413
0.500679
0.439882
0.386834
0.433922
0.433922
0.508428
0.506639
0.604987
0.567436
0.620484
0.560880
0.601411
0.718832
0.604987
0.582933
0.660419
0.730753
0.866652
0.714660
0.714660
0.907779
0.835657
0.971556
1.228452
1.533628
1.559854
1.552701
2.052784
7.116795
53.520799
123.033524
259.916782
396.350622
580.390692
714.055896
854.841471
920.704007
897.241831
793.172717
589.298606
424.403548
238.857865
133.627653
51.302910
21.426678
8.084774
6.741881
6.429553
6.611943
6.895661
6.814599
7.447600
7.481575
8.199811
9.218454
12.198687
14.389753
19.193888
24.084449
30.463934
##ZVALUE=370
0.275970
0.265837
0.352859
0.283718
0.222921
0.197887
0.281930
0.319481
0.300407
0.438690
0.281930
0.375509
0.298619
0.265837
0.357628
0.182986
0.150800
0.246763
0.371933
0.394583
0.207424
0.334978
0.376701
0.346899
0.422597
0.258684
0.257492
0.444651
0.294447
0.333786
0.322461
0.319481
0.308752
0.324845
0.347495
0.408888
0.402927
0.403523
0.422597
0.435710
0.430942
0.455976
0.365973
0.503659
0.552535
0.434518
0.564456
0.587702
0.517964
0.439882
0.579953
0.498891
0.430942
0.637770
0.574589
0.654459
0.862479
0.812411
0.837445
0.923872
0.879765
1.067519
1.074672
1.186728
1.415610
1.598597
3.948808
23.837686
107.377768
205.271840
371.701717
503.360629
668.170452
788.932443
893.308520
907.176733
814.069510
684.117675
467.023849
310.876966
151.073933
79.903603
30.707717
13.195872
6.475449
5.902648
6.148815
6.151795
6.479621
6.396770
6.662607
7.028580
7.562637
8.498430
10.800958
13.085604
##ZVALUE=375
0.270605
0.098944
0.164509
0.146627
0.142455
0.202656
0.195503
0.206828
0.396967
0.247955
0.293851
0.296831
0.261664
0.103712
0.225902
0.311732
0.261664
0.184774
0.182986
0.248551
0.237823
0.160933
0.203848
0.227690
0.420809
0.208616
0.326633
0.430942
0.315905
0.347495
0.271797
0.224710
0.266433
0.507832
0.311732
0.345707
0.300407
0.491738
0.308752
0.371933
0.439882
0.349879
0.323653
0.409484
0.626445
0.498891
0.511408
0.545979
0.522733
0.441670
0.454783
0.537634
0.583529
0.705719
0.452995
0.565648
0.608563
0.620484
0.639558
0.704527
0.623465
0.810623
0.837445
0.917912
1.054406
1.021624
1.197457
1.347661
1.906753
14.626980
57.782531
161.111951
271.269679
459.477901
596.814752
753.947496
850.453973
903.191566
870.050788
728.976727
579.479933
370.382667
238.181949
115.274787
59.234500
19.738674
8.545518
5.655885
5.645752
5.581975
5.707741
5.709529
5.977750
6.225705
6.226897
6.941557
##ZVALUE=380
0.288486
0.210404
0.131726
0.288486
0.115633
0.191927
0.233650
0.084639
0.142455
0.128746
0.037551
0.286698
0.281930
0.285506
0.247955
0.305772
0.160933
0.217557
0.101924
0.234842
0.350475
0.235438
0.231862
0.328422
0.438690
0.313520
0.298619
0.199676
0.229478
0.312924
0.377893
0.265837
0.443459
0.359416
0.294447
0.431538
0.424981
0.232458
0.238419
0.379682
0.262856
0.277758
0.360608
0.295639
0.296831
0.415444
0.271797
0.307560
0.441670
0.452995
0.477433
0.528693
0.545979
0.436902
0.420809
0.608563
0.621676
0.439882
0.535846
0.589490
0.522733
0.553727
0.686646
0.822544
0.683665
0.722408
0.863671
1.180768
1.137853
1.706481
1.687407
5.625486
33.969879
130.720735
234.186649
503.370762
575.428009
760.162473
826.267600
882.581472
867.797732
777.706504
606.579781
461.537838
276.127458
168.605447
72.973967
35.437942
10.818839
5.747676
5.044937
5.022883
5.066991
5.262494
5.494952
5.577803
##ZVALUE=385
0.215769
0.242591
0.146627
0.208616
0.265837
0.225902
0.174642
0.208616
0.197887
0.078678
0.294447
0.172853
0.304580
0.184774
0.146627
0.193715
0.194907
0.192523
0.301600
0.217557
0.279546
0.098944
0.207424
0.176430
0.213981
0.096560
0.187755
0.339746
0.427961
0.325441
0.434518
0.246763
0.342727
0.223517
0.200868
0.358820
0.251532
0.394583
0.364780
0.343919
0.245571
0.298619
0.477433
0.350475
0.224710
0.349879
0.389814
0.285506
0.231862
0.478625
0.357628
0.429749
0.411868
0.530481
0.542998
0.625849
0.541806
0.557899
0.420809
0.626445
0.351667
0.595450
0.599623
0.496507
0.701547
0.835657
0.921488
0.839829
1.012683
1.089573
1.272559
1.405478
1.598597
1.867414
17.627478
65.632463
180.789828
298.411846
484.838486
614.682436
761.144757
839.431882
870.807767
827.471018
688.869953
549.094677
353.086591
228.296518
107.827783
55.372715
19.493699
7.982850
4.725456
4.755855
4.522800
4.703999
##ZVALUE=390
0.156760
0.063777
0.114441
0.100732
0.206828
0.326633
0.123978
0.364780
0.196695
0.227690
0.076890
0.034571
0.252724
0.174642
0.137687
0.282526
0.066757
0.304580
0.193715
0.173450
0.185966
0.187755
0.293851
0.246763
0.302792
0.149608
0.353456
0.236630
0.335574
0.213981
0.302792
0.355840
0.289679
0.360608
0.314713
0.044703
0.319481
0.365973
0.419617
0.284910
0.414848
0.252724
0.251532
0.376701
0.244975
0.196695
0.263453
0.282526
0.345707
0.424981
0.473857
0.380874
0.477433
0.425577
0.392795
0.504851
0.452995
0.451803
0.440478
0.627637
0.553727
0.520945
0.502467
0.498891
0.598431
0.594854
0.627637
0.778437
0.752807
0.923872
0.996590
1.119971
1.214743
1.214743
1.218915
1.610518
5.377531
47.851801
125.400424
274.732709
415.932536
599.116683
706.880689
816.204548
873.715878
864.152908
784.924626
616.667867
471.573472
290.794969
172.726512
72.977543
34.203529
10.343790
5.094409
4.481673
##ZVALUE=395
0.189543
0.262856
0.194907
0.188947
0.154972
0.131726
0.247955
0.205636
0.074506
0.176430
0.210404
0.138879
0.229478
0.221729
0.188947
0.301600
0.148416
0.196695
0.232458
0.033975
0.272989
0.276566
0.097752
0.371933
0.335574
0.129938
0.357628
0.169873
0.447631
0.174642
0.349879
0.223517
0.321865
0.443459
0.467896
0.295639
0.337958
0.361800
0.383854
0.351667
0.352859
0.280738
0.398755
0.385642
0.358820
0.326633
0.391603
0.277758
0.345707
0.299811
0.359416
0.438690
0.544786
0.425577
0.434518
0.328422
0.404716
0.374913
0.446439
0.488758
0.474453
0.521541
0.695586
0.643730
0.568628
0.674725
0.756979
0.797510
0.888705
0.796914
0.946522
1.011491
1.094937
1.153946
1.103878
1.173615
1.209974
1.512766
2.414584
28.497577
95.581412
231.868625
352.379680
521.542430
650.361776
793.142915
877.314806
914.225578
867.264867
723.237991
564.873815
349.807739
219.735503
98.230839
48.217773
16.582608
##ZVALUE=400
0.253916
0.190735
0.242591
0.307560
0.270605
0.204444
0.201464
0.185966
0.093579
0.257492
0.248551
0.185966
0.206828
0.019670
0.157952
0.186563
0.150800
0.167489
0.257492
0.284910
0.141859
0.306964
0.171661
0.258684
0.295639
0.408888
0.328422
0.312924
0.374913
0.377893
0.193715
0.374913
0.294447
0.276566
0.290871
0.375509
0.355840
0.467896
0.263453
0.272989
0.234842
0.357628
0.282526
0.391603
0.448823
0.470877
0.466704
0.460744
0.428557
0.442863
0.549555
0.406504
0.416636
0.374913
0.495911
0.460744
0.372529
0.394583
0.604987
0.532866
0.517964
0.475645
0.704527
0.590682
0.693798
0.781417
0.837445
0.824928
1.022816
0.980496
1.078844
1.022816
0.878572
0.934601
0.781417
0.948906
1.090765
0.875592
1.145601
1.413822
1.909733
8.972883
62.166452
144.453645
294.242501
433.629751
617.729425
728.137493
848.698616
891.230702
866.693854
775.392652
590.701699
435.620546
251.985788
152.007937
##END
