Data from 0.5 5sec_RamanShift_03.txt Node
Date: Wed Mar 21 14:41:12 IST 2018
User: aro
Spectrometer: QEPB0276
Trigger mode: 0
Integration Time (sec): 5.000000E0
Scans to average: 1
Electric dark correction enabled: true
Nonlinearity correction enabled: false
Boxcar width: 0
XAxis mode: Raman Shifts
Number of Pixels in Spectrum: 1044
>>>>>Begin Spectral Data<<<<<
160.701	0
166.742	0
172.777	4
178.805	15
184.826	35
190.841	70
196.849	112
202.85	138
208.845	146
214.833	140
220.815	139
226.789	141
232.758	136
238.719	141
244.674	138
250.623	137
256.565	135
262.5	128
268.429	133
274.351	118
280.267	130
286.176	123
292.079	122
297.975	119
303.865	120
309.748	122
315.625	118
321.495	119
327.359	124
333.217	118
339.068	130
344.912	123
350.751	128
356.583	118
362.408	120
368.227	125
374.04	130
379.847	135
385.647	138
391.44	131
397.228	125
403.009	130
408.784	137
414.553	141
420.315	159
426.071	159
431.821	147
437.565	134
443.302	126
449.033	130
454.758	124
460.477	122
466.189	124
471.896	121
477.596	119
483.29	121
488.978	119
494.66	112
500.335	112
506.005	98
511.668	99
517.325	88
522.977	88
528.622	83
534.261	80
539.894	77
545.521	81
551.141	79
556.756	83
562.365	78
567.968	75
573.565	71
579.155	74
584.74	77
590.319	75
595.892	73
601.459	76
607.02	73
612.575	78
618.124	67
623.667	70
629.204	69
634.735	63
640.261	70
645.781	78
651.294	78
656.802	77
662.304	69
667.8	64
673.29	60
678.775	66
684.254	66
689.726	63
695.193	63
700.655	60
706.11	61
711.56	60
717.004	60
722.442	62
727.874	61
733.301	59
738.722	57
744.137	55
749.547	58
754.951	56
760.349	65
765.741	61
771.128	66
776.509	64
781.885	58
787.254	63
792.618	62
797.977	58
803.33	56
808.677	63
814.019	64
819.355	63
824.686	61
830.011	63
835.33	61
840.644	64
845.952	66
851.255	56
856.552	50
861.844	51
867.13	52
872.41	48
877.686	51
882.955	46
888.219	49
893.478	50
898.731	44
903.979	41
909.221	43
914.458	46
919.69	42
924.916	47
930.136	48
935.351	55
940.561	52
945.766	47
950.965	43
956.158	44
961.347	45
966.529	42
971.707	43
976.879	42
982.046	43
987.208	42
992.364	44
997.515	40
1002.66	40
1007.801	42
1012.936	41
1018.066	36
1023.19	44
1028.309	41
1033.423	43
1038.532	47
1043.636	49
1048.734	48
1053.827	44
1058.915	40
1063.998	46
1069.075	41
1074.147	43
1079.214	39
1084.276	39
1089.333	47
1094.385	44
1099.431	40
1104.472	36
1109.509	39
1114.54	34
1119.565	33
1124.586	38
1129.602	35
1134.613	38
1139.618	36
1144.619	38
1149.614	44
1154.604	41
1159.589	41
1164.57	38
1169.545	38
1174.515	37
1179.48	44
1184.44	39
1189.395	35
1194.345	36
1199.29	40
1204.23	34
1209.165	30
1214.095	32
1219.021	33
1223.941	40
1228.856	40
1233.766	34
1238.672	38
1243.572	40
1248.467	38
1253.358	39
1258.244	33
1263.124	36
1268	37
1272.871	35
1277.737	30
1282.599	36
1287.455	32
1292.306	31
1297.153	36
1301.995	35
1306.832	30
1311.664	32
1316.491	30
1321.314	31
1326.132	32
1330.945	33
1335.753	34
1340.556	31
1345.354	24
1350.148	33
1354.937	31
1359.722	23
1364.501	28
1369.276	31
1374.046	30
1378.811	29
1383.572	37
1388.327	32
1393.079	33
1397.825	23
1402.567	25
1407.304	26
1412.036	30
1416.764	27
1421.487	25
1426.205	24
1430.919	32
1435.628	26
1440.333	27
1445.032	26
1449.727	32
1454.418	26
1459.104	31
1463.785	34
1468.462	30
1473.134	31
1477.802	30
1482.465	29
1487.123	24
1491.777	27
1496.426	25
1501.071	25
1505.711	28
1510.347	27
1514.978	23
1519.604	25
1524.226	27
1528.844	24
1533.457	27
1538.065	23
1542.669	22
1547.269	19
1551.864	22
1556.454	23
1561.041	28
1565.622	29
1570.199	30
1574.772	26
1579.34	31
1583.904	27
1588.464	24
1593.019	24
1597.569	31
1602.115	26
1606.657	25
1611.195	31
1615.728	29
1620.256	25
1624.78	26
1629.3	29
1633.816	22
1638.327	21
1642.834	24
1647.336	30
1651.834	34
1656.328	31
1660.817	34
1665.302	30
1669.783	28
1674.259	31
1678.732	21
1683.199	23
1687.663	18
1692.122	20
1696.577	21
1701.028	25
1705.474	21
1709.917	20
1714.355	23
1718.788	20
1723.218	14
1727.643	17
1732.064	21
1736.481	13
1740.893	17
1745.301	19
1749.705	19
1754.105	18
1758.501	13
1762.893	14
1767.28	15
1771.663	12
1776.042	10
1780.417	14
1784.787	15
1789.154	14
1793.516	13
1797.874	10
1802.228	13
1806.578	15
1810.924	14
1815.266	7
1819.603	10
1823.937	11
1828.266	14
1832.591	13
1836.913	10
1841.23	16
1845.543	11
1849.852	9
1854.156	13
1858.457	14
1862.754	12
1867.047	12
1871.335	8
1875.62	14
1879.9	12
1884.177	10
1888.449	7
1892.718	10
1896.982	5
1901.243	4
1905.499	12
1909.752	8
1914	6
1918.245	7
1922.485	14
1926.722	13
1930.954	12
1935.183	11
1939.408	11
1943.628	8
1947.845	13
1952.058	4
1956.267	10
1960.472	9
1964.673	5
1968.87	8
1973.063	8
1977.252	8
1981.438	7
1985.619	6
1989.797	6
1993.971	7
1998.14	7
2002.306	9
2006.469	8
2010.627	9
2014.781	13
2018.932	15
2023.078	12
2027.221	8
2031.36	10
2035.495	10
2039.627	8
2043.754	7
2047.878	2
2051.998	3
2056.114	9
2060.226	6
2064.334	11
2068.439	10
2072.54	11
2076.637	9
2080.73	8
2084.82	9
2088.906	7
2092.988	4
2097.066	12
2101.14	9
2105.211	9
2109.278	11
2113.342	8
2117.401	9
2121.457	10
2125.509	3
2129.558	3
2133.602	6
2137.643	5
2141.681	6
2145.714	7
2149.744	6
2153.77	8
2157.793	3
2161.812	6
2165.827	4
2169.838	10
2173.846	7
2177.851	6
2181.851	9
2185.848	7
2189.841	9
2193.831	12
2197.817	6
2201.799	5
2205.778	3
2209.753	2
2213.725	2
2217.693	4
2221.657	9
2225.618	6
2229.575	4
2233.529	7
2237.479	5
2241.425	4
2245.368	7
2249.307	7
2253.243	5
2257.175	5
2261.104	5
2265.029	7
2268.95	4
2272.868	5
2276.783	4
2280.694	1
2284.601	1
2288.505	2
2292.405	2
2296.302	2
2300.195	1
2304.085	2
2307.971	4
2311.854	4
2315.734	2
2319.609	2
2323.482	2
2327.351	1
2331.216	6
2335.078	0
2338.937	1
2342.792	5
2346.643	2
2350.492	2
2354.336	3
2358.178	4
2362.015	6
2365.85	3
2369.681	5
2373.508	-4
2377.333	-3
2381.153	-2
2384.971	0
2388.785	2
2392.595	1
2396.402	2
2400.206	3
2404.007	5
2407.804	1
2411.597	1
2415.388	1
2419.174	0
2422.958	2
2426.738	2
2430.515	3
2434.289	4
2438.059	4
2441.825	4
2445.589	-1
2449.349	-1
2453.106	-2
2456.859	1
2460.61	0
2464.356	-1
2468.1	3
2471.84	4
2475.577	1
2479.311	4
2483.041	1
2486.768	2
2490.492	-4
2494.213	-1
2497.93	-1
2501.644	2
2505.355	1
2509.062	1
2512.766	-2
2516.467	2
2520.165	-2
2523.859	0
2527.551	-3
2531.239	0
2534.923	-3
2538.605	0
2542.283	-4
2545.958	3
2549.63	1
2553.299	1
2556.964	3
2560.626	2
2564.285	3
2567.941	1
2571.594	2
2575.243	-2
2578.89	4
2582.533	2
2586.173	-1
2589.809	2
2593.443	3
2597.073	0
2600.701	-1
2604.325	-3
2607.946	-2
2611.564	-1
2615.178	-2
2618.79	-6
2622.398	-2
2626.004	1
2629.606	1
2633.205	0
2636.801	-1
2640.394	-1
2643.983	3
2647.57	1
2651.153	-4
2654.734	0
2658.311	0
2661.885	3
2665.456	2
2669.025	1
2672.589	1
2676.151	1
2679.71	-6
2683.266	-5
2686.819	-4
2690.368	-3
2693.915	-2
2697.458	-2
2700.999	2
2704.536	-1
2708.071	-4
2711.602	-2
2715.13	-1
2718.656	-2
2722.178	0
2725.697	0
2729.214	2
2732.727	1
2736.237	-1
2739.744	1
2743.249	1
2746.75	0
2750.248	-1
2753.743	-2
2757.236	-6
2760.725	-4
2764.211	-1
2767.695	-3
2771.175	-2
2774.652	-1
2778.127	-1
2781.598	-1
2785.067	-4
2788.532	-1
2791.995	-2
2795.455	1
2798.911	2
2802.365	5
2805.816	4
2809.264	6
2812.709	-3
2816.151	-1
2819.59	3
2823.026	-5
2826.46	-4
2829.89	-2
2833.318	4
2836.742	4
2840.164	0
2843.583	2
2846.999	-4
2850.412	-1
2853.822	-1
2857.229	-2
2860.634	0
2864.035	4
2867.434	2
2870.83	1
2874.223	0
2877.613	4
2881	7
2884.385	4
2887.766	3
2891.145	1
2894.521	4
2897.894	3
2901.264	4
2904.631	4
2907.996	8
2911.358	3
2914.717	0
2918.073	0
2921.426	-2
2924.777	5
2928.124	0
2931.469	-1
2934.811	2
2938.15	4
2941.487	8
2944.821	0
2948.152	3
2951.48	4
2954.805	1
2958.128	4
2961.447	2
2964.765	3
2968.079	5
2971.39	6
2974.699	2
2978.005	3
2981.308	3
2984.609	0
2987.907	1
2991.202	1
2994.494	0
2997.784	-3
3001.07	3
3004.355	5
3007.636	2
3010.915	5
3014.191	-1
3017.464	2
3020.734	4
3024.002	5
3027.267	6
3030.53	12
3033.789	8
3037.046	9
3040.301	5
3043.552	6
3046.801	6
3050.048	6
3053.291	2
3056.532	4
3059.771	7
3063.006	7
3066.239	6
3069.469	11
3072.697	7
3075.922	4
3079.144	5
3082.364	9
3085.581	10
3088.795	8
3092.007	13
3095.216	12
3098.423	16
3101.627	15
3104.828	12
3108.026	10
3111.222	10
3114.416	12
3117.607	10
3120.795	13
3123.98	13
3127.163	13
3130.344	12
3133.521	15
3136.696	14
3139.869	16
3143.039	12
3146.206	15
3149.371	12
3152.533	17
3155.693	17
3158.85	19
3162.005	24
3165.157	19
3168.306	22
3171.453	22
3174.597	17
3177.739	16
3180.878	13
3184.014	18
3187.149	17
3190.28	18
3193.409	16
3196.536	17
3199.659	16
3202.781	16
3205.9	16
3209.016	14
3212.13	17
3215.241	18
3218.35	20
3221.456	22
3224.56	20
3227.661	22
3230.76	23
3233.856	16
3236.95	16
3240.041	12
3243.13	19
3246.216	18
3249.3	14
3252.382	12
3255.46	17
3258.537	19
3261.611	15
3264.682	16
3267.751	13
3270.818	14
3273.882	14
3276.943	12
3280.002	15
3283.059	16
3286.113	19
3289.165	16
3292.214	16
3295.261	17
3298.306	17
3301.348	12
3304.387	12
3307.425	13
3310.459	10
3313.492	13
3316.521	12
3319.549	16
3322.574	10
3325.597	9
3328.617	5
3331.635	13
3334.65	14
3337.663	9
3340.674	8
3343.682	10
3346.688	16
3349.691	19
3352.692	10
3355.691	15
3358.687	15
3361.681	11
3364.673	12
3367.662	10
3370.649	6
3373.633	11
3376.615	8
3379.595	8
3382.572	11
3385.547	6
3388.52	9
3391.49	12
3394.458	11
3397.424	10
3400.387	7
3403.348	7
3406.307	5
3409.263	9
3412.217	11
3415.168	9
3418.118	14
3421.065	10
3424.009	8
3426.951	10
3429.891	9
3432.829	7
3435.764	3
3438.697	3
3441.628	3
3444.557	7
3447.483	9
3450.407	7
3453.328	10
3456.247	7
3459.164	5
3462.079	5
3464.991	6
3467.902	8
3470.809	5
3473.715	7
3476.618	5
3479.519	6
3482.418	5
3485.315	5
3488.209	-2
3491.101	-1
3493.99	-2
3496.878	4
3499.763	-1
3502.646	2
3505.527	1
3508.405	3
3511.281	2
3514.155	3
3517.027	-1
3519.897	3
3522.764	-1
3525.629	3
3528.492	0
3531.352	-1
3534.211	2
3537.067	3
3539.921	0
3542.773	2
3545.622	-5
3548.469	-4
3551.315	-2
3554.157	-2
3556.998	-2
3559.837	0
3562.673	3
3565.507	3
3568.339	1
3571.169	3
3573.996	2
3576.822	0
3579.645	-1
3582.466	-1
3585.285	-5
3588.101	-2
3590.916	-2
3593.728	-1
3596.538	-2
3599.346	-1
3602.152	-2
3604.956	0
3607.757	-4
3610.556	-8
3613.354	-3
3616.149	-5
3618.942	-6
3621.732	-3
3624.521	-1
3627.307	2
3630.092	-3
3632.874	3
3635.654	-1
3638.432	-2
3641.208	-5
3643.982	-7
3646.753	-4
3649.523	-2
3652.29	-4
3655.055	0
3657.818	-4
3660.579	-3
3663.338	-8
3666.095	-4
3668.849	-5
3671.602	-5
3674.352	-1
3677.101	-1
3679.847	-2
3682.591	0
3685.333	-1
3688.073	-3
3690.811	-2
3693.547	-10
3696.281	-6
3699.013	-2
3701.742	-8
3704.47	-5
3707.195	-5
3709.919	-1
3712.64	-7
3715.359	-8
3718.076	-7
3720.792	-7
3723.505	-7
3726.216	-6
3728.925	-7
3731.632	-3
3734.336	-5
3737.039	-3
3739.74	-1
3742.439	-1
3745.136	-3
3747.83	-3
3750.523	-6
3753.213	-5
3755.902	-9
3758.589	-5
3761.273	-9
3763.956	-5
3766.636	-9
3769.315	-6
3771.991	-6
3774.665	-3
3777.338	-3
3780.008	-5
3782.677	-7
3785.343	-3
3788.007	-3
3790.67	-4
3793.33	-1
3795.989	-2
3798.645	-3
3801.299	-2
3803.952	-3
3806.602	-5
3809.251	-6
3811.897	-5
3814.542	-5
3817.184	-7
3819.825	-4
3822.463	-5
3825.1	-5
3827.735	-10
3830.367	-7
3832.998	-6
3835.627	-7
3838.253	-5
3840.878	-5
3843.501	-5
3846.122	-2
3848.741	-1
3851.358	-6
3853.973	-5
3856.586	-5
3859.197	-5
3861.806	-2
3864.414	-5
3867.019	-9
3869.622	-4
3872.224	0
3874.823	-4
3877.421	-3
3880.016	-4
3882.61	-2
3885.202	-4
3887.792	-5
3890.38	-6
3892.966	-6
3895.55	-9
3898.132	-5
3900.713	-2
3903.291	-6
3905.868	-3
3908.442	-6
3911.015	-4
3913.586	-7
3916.155	-7
3918.722	-4
3921.287	-5
3923.85	-1
3926.411	-4
3928.971	-3
3931.528	-3
3934.084	-4
3936.638	-7
3939.19	-5
3941.74	-10
3944.288	-3
3946.834	-7
3949.378	-5
3951.921	-5
3954.462	-5
3957	-3
3959.537	-5
3962.072	-8
3964.606	-5
3967.137	-3
3969.667	-5
3972.194	-7
3974.72	3
3977.244	-3
3979.766	-2
3982.286	0
3984.805	-5
3987.321	-5
3989.836	-4
3992.349	-6
3994.86	-8
3997.369	-8
3999.877	-8
4002.382	-2
4004.886	-8
4007.388	-4
4009.888	-3
4012.386	-6
4014.883	-7
4017.377	-6
4019.87	-7
4022.361	-3
4024.85	-4
4027.338	0
4029.823	-3
4032.307	-3
4034.789	-4
4037.269	-5
4039.747	-6
4042.224	-11
4044.699	-6
4047.172	-6
4049.643	-7
4052.112	-3
4054.58	-7
4057.046	-5
4059.51	-3
4061.972	-7
4064.432	-4
4066.891	-2
4069.348	-10
4071.803	-5
4074.256	-5
4076.708	-3
4079.158	-5
4081.606	-3
4084.052	-3
4086.497	-4
4088.939	-3
4091.38	-5
4093.819	-6
4096.257	-6
4098.693	-9
4101.127	-8
4103.559	-7
4105.989	-1
4108.418	-2
4110.845	2
4113.27	1
4115.694	0
4118.115	0
4120.535	-4
4122.954	-5
4125.37	-6
4127.785	-8
4130.198	-8
4132.609	-6
4135.019	-9
4137.427	-7
4139.833	-1
4142.237	-2
