##TITLE=FQP00652
##FORMAT=SPECTACLE-ASCII V-1.2
##DATA TYPE=ULTRAVIOLET SPECTRUM
##SECOND TYPE=ULTRAVIOLET SPECTRUM
##DATE=02/05/18
##TIME=14:17:18
##SPECTROMETER/DATA SYSTEM=SPECTACLE
##XUNITS=NM EM
##YUNITS=ENERGY
##YFACTOR=1
##FIRSTX=220
##LASTX=410
##NPOINTS=96
##3DDATA=Equidistant
##ZUNITS=NM EX
##FIRSTZ=210
##LASTZ=400
##ZPOINTS=39
##XYDATA=(Y..Y)
##ZVALUE=210
2.483726
2.555847
2.544522
1.940727
2.150536
2.386570
2.572536
2.863407
2.355576
2.705455
2.427697
2.720952
2.285838
2.555847
2.923608
2.896786
3.196597
3.375411
3.514886
3.922582
4.166961
5.004406
4.940629
4.889965
4.784465
5.071759
5.416870
6.258488
5.518794
5.896688
6.663799
6.737709
7.250905
7.711649
8.479953
8.075833
8.668900
8.684993
8.265972
7.434487
8.774996
7.811785
9.215474
7.076859
9.237528
7.372499
7.749796
7.709861
8.502603
7.753968
7.039905
7.577538
7.673502
8.510947
7.660985
8.517504
7.585883
7.689595
7.435679
7.706881
7.398725
8.459687
7.682443
8.137822
8.310676
8.742809
9.104609
9.161830
10.848641
12.602806
14.471412
17.796755
20.010471
23.554564
26.195645
27.428865
26.949644
26.498437
27.595758
25.120974
23.665428
20.577908
18.005967
16.094446
14.225841
11.406541
9.793639
8.419752
7.685423
7.096529
7.037520
6.564856
8.098483
8.024573
7.498860
8.463860
##ZVALUE=215
9.145737
8.714795
7.019639
6.224513
4.641414
3.724694
3.113747
3.338456
3.771782
4.008412
3.334880
3.422499
2.203584
2.432466
2.099872
2.418756
1.596808
1.882911
1.829863
3.093481
3.185868
3.041625
3.529787
3.174543
3.503561
4.549623
4.694462
4.846454
6.524920
7.483959
7.151961
7.347465
9.161830
10.164976
8.612871
8.891821
9.627938
9.656549
9.934902
8.859634
9.285808
7.730722
7.866621
8.540750
8.625984
7.674694
8.566976
8.179545
7.710457
7.253885
8.025765
7.881522
8.217692
6.868839
7.391572
7.285476
7.135868
6.152987
6.983876
6.444454
7.282495
7.784963
7.983446
7.959604
7.027984
7.254481
8.505583
9.297729
11.330843
11.204481
13.766885
15.631914
18.515587
21.109581
23.034811
24.514794
24.899840
23.816824
25.228858
23.275614
21.731853
17.032623
15.414953
15.009642
13.182759
10.279417
9.234548
8.177757
7.580519
6.868839
6.474853
5.883574
6.545782
6.120801
7.151961
6.484985
##ZVALUE=220
35.231709
33.946633
38.679838
38.222671
34.798980
26.781559
20.941496
14.235973
11.007786
10.756850
11.315942
11.048913
10.680556
10.177493
8.912683
7.333755
7.375479
5.426407
4.983544
4.786849
4.187822
4.086494
4.711747
5.900860
6.373525
6.753802
7.870793
8.198619
9.009838
11.098981
12.147427
13.722777
14.642477
14.269948
15.427470
16.246438
15.137792
14.953613
14.319420
13.822913
15.325546
15.347600
12.539625
13.485551
14.102459
12.265444
12.908578
12.095571
11.002421
11.885762
11.368990
9.275675
10.685921
11.124611
10.201931
9.842515
9.408593
9.667873
10.078549
8.548498
9.301901
9.853840
9.659529
9.850860
9.337664
9.280443
10.838509
10.611415
12.983680
13.479590
14.882684
16.786456
19.416809
21.115541
25.290847
25.384426
23.655891
24.490952
24.015903
22.776723
22.261739
19.166470
18.274784
15.202761
14.237761
12.608767
11.410713
9.971857
8.784533
8.882880
7.062554
8.289814
9.290576
8.082986
6.761551
7.976890
##ZVALUE=225
58.021545
59.866905
76.998472
97.347498
108.344555
107.202530
96.673965
77.052712
57.967901
46.584606
27.721524
24.941564
24.889708
25.894642
26.186705
24.165511
20.173788
17.970800
14.331937
9.546876
7.968545
5.877614
5.877614
5.927682
5.756617
7.676482
9.255409
9.373426
11.420846
13.976693
14.899969
16.581416
19.793510
19.264817
19.344687
18.806458
20.590425
20.627975
19.518733
18.725991
19.614697
17.905831
14.955997
16.191602
14.602542
14.861822
14.022589
13.556480
13.512969
12.803674
12.675524
12.599826
11.967421
11.221766
12.078881
11.359453
11.637807
12.475848
11.145473
11.406541
11.434555
12.187958
11.513829
11.293888
10.077953
11.559725
11.282563
12.365580
12.673736
14.258623
15.832782
18.543601
19.049644
22.027493
22.565722
22.997856
23.354888
21.961927
20.183921
19.459724
18.339753
16.492605
16.624928
14.141798
13.002753
11.988878
11.138916
10.124445
10.568500
10.296702
10.450482
9.280443
10.282993
8.240938
9.191632
9.811521
##ZVALUE=230
48.202872
50.308704
84.199905
142.900944
188.951492
245.023966
268.986821
277.298689
255.997777
211.971998
146.967769
101.858974
63.019991
46.538711
47.982931
48.051476
49.739480
46.362877
44.893622
35.749674
27.268529
18.746853
15.339851
9.718537
7.885695
8.225441
9.623766
10.145903
11.605620
12.020469
13.871789
15.977621
17.031431
17.773509
19.463897
18.681884
19.689798
19.712448
19.548535
19.162893
18.244982
18.396974
16.918778
16.927719
15.567541
15.741587
15.546679
14.255643
14.498830
15.002489
15.362501
13.387799
14.186502
15.061498
12.093782
13.650656
13.866425
12.672544
12.918711
12.749434
13.239980
13.824701
14.009476
13.601780
14.485717
13.937950
14.458895
15.282631
16.126633
17.797947
20.786524
22.038817
23.587942
24.330616
25.854707
25.918484
28.465986
26.409626
25.016665
22.724867
22.079945
22.553802
20.370483
19.257665
16.993880
15.702844
15.681982
14.400482
14.372468
14.581680
13.010502
12.650490
13.915896
13.354421
12.830496
12.172461
##ZVALUE=235
14.193654
16.722679
50.067902
95.916986
182.811618
272.383690
404.355526
507.492423
589.540601
599.218011
533.489585
440.251827
339.974761
199.607611
136.080980
86.333752
75.785518
77.680945
81.215501
81.618428
78.415871
66.351891
53.380728
41.710734
25.198460
20.010471
15.020967
12.063980
11.726618
13.707876
14.005899
14.661551
14.959574
14.814734
15.912652
16.448498
15.665889
16.593933
15.915632
15.204549
15.218854
16.961694
16.243458
15.964508
16.177893
16.278625
15.531778
16.066432
14.445782
13.897419
15.202761
15.590787
13.992786
14.751554
16.856790
14.508963
14.790893
14.867783
15.744567
12.763739
15.246868
15.190840
15.023947
17.085671
14.488697
16.852617
17.129779
18.022656
18.420815
21.244884
22.076964
24.786592
25.999546
29.887557
31.082630
31.875968
32.557845
30.420423
29.870868
30.910969
28.325915
24.787784
25.584698
22.230744
22.064447
21.191835
19.025803
18.490553
19.375682
19.479990
18.518567
16.899705
16.581416
17.282963
17.603636
17.758608
##ZVALUE=240
2.287626
2.760887
6.666780
25.367737
65.477490
161.136985
280.023813
485.648513
650.025606
823.144913
947.329998
947.027802
847.378969
713.464618
515.955687
361.315012
208.208561
148.129463
114.845634
105.585456
112.926960
120.789409
118.662715
101.354718
89.633465
65.849423
51.434636
35.567880
28.110743
19.743443
16.639829
15.477538
15.593767
16.127825
15.131831
15.905499
16.945601
16.558766
16.740561
18.251538
17.008781
17.415881
16.271472
16.654730
16.064644
16.898513
17.237663
16.316772
15.732646
15.387535
15.174747
15.455484
14.295578
15.891790
14.852881
15.741587
15.344620
14.485717
16.051531
13.993979
14.889836
16.146898
15.537739
16.429424
15.943646
17.497540
19.071698
20.200610
21.555424
22.676587
23.348927
27.836561
28.958917
31.025410
33.481717
34.474730
34.213662
33.791661
31.583905
30.738711
30.465722
26.710629
27.942657
25.048852
24.085641
23.428798
23.967624
22.332668
21.621585
22.167563
23.336411
23.509860
20.316839
20.250678
20.615458
21.553636
##ZVALUE=245
1.626611
1.826882
1.570582
2.019405
7.763505
24.972558
79.264641
166.230798
365.227461
547.894835
822.134614
995.261669
1015.779972
1015.779972
1015.779972
900.248885
729.718804
492.703915
343.221426
200.601816
137.804747
110.078454
115.789771
130.657554
135.031939
131.309628
118.939877
99.987984
79.472661
62.062740
46.636462
32.826662
23.511648
21.064878
17.043948
18.115640
17.955899
18.533468
19.029975
17.799735
17.965436
17.149448
17.641783
17.891526
17.667413
17.200708
15.861988
16.184449
14.937520
15.145540
15.158653
14.008880
14.154911
14.007688
14.679432
13.210773
12.421608
13.372898
13.354421
13.357997
13.995767
13.029575
14.026761
14.130473
14.595985
13.508797
16.133785
14.776587
18.074512
18.268824
20.770431
21.506548
24.892688
26.139617
26.955605
26.167631
27.409792
28.068423
28.128624
26.453733
25.813580
24.167895
24.127960
22.353530
24.830699
21.993518
20.348430
22.123456
20.102859
21.526814
20.364523
21.011829
19.968748
20.309687
19.738674
19.470453
##ZVALUE=250
1.370907
1.407862
1.650453
1.641512
2.352595
2.298951
3.022552
17.266870
51.416755
146.729946
285.877585
480.918884
783.329606
985.350609
1015.888453
1015.888453
1015.888453
1015.888453
873.414874
667.569637
411.587954
272.040963
146.855712
110.722780
113.892555
127.991438
139.839649
146.022439
142.312646
131.485462
112.979412
86.660981
65.943599
48.067570
34.810901
27.123690
22.466779
20.162463
20.959973
19.819736
19.391775
19.858479
18.440485
18.195510
18.320680
17.685890
15.520453
16.765594
16.152859
15.169978
15.237927
14.968514
13.884902
12.817979
13.036728
11.510849
12.220740
12.715459
11.678934
11.515617
11.917949
11.597872
11.219978
11.630654
11.556745
12.563467
11.889935
13.803840
15.873909
15.239716
16.787648
17.130971
20.070672
20.290613
21.496415
22.045970
22.654533
21.120906
22.584796
21.536946
21.396875
20.766854
20.680428
19.925833
19.172430
19.697547
19.468665
19.439459
19.001961
19.223690
19.007921
19.987822
18.047690
19.137859
18.057823
18.401742
##ZVALUE=255
1.282692
1.562834
1.398921
1.744628
1.640916
1.258850
1.840591
1.675487
2.362728
5.811453
30.731559
81.424713
176.217556
397.609472
623.327494
971.033573
1015.888453
1015.888453
1015.888453
1015.888453
1015.888453
867.990851
536.098480
341.196656
176.795721
117.728710
98.886490
109.205842
134.562850
147.168636
156.796575
156.821609
143.720508
118.323565
98.263621
69.948435
53.825974
38.127899
30.916929
25.740862
22.165775
21.759868
21.562576
20.288825
20.353794
19.813776
19.328594
18.247962
17.328858
16.940832
15.343428
15.347600
14.737844
13.488531
14.022589
13.015866
11.934638
11.648536
11.390448
11.560917
10.399818
10.962486
11.811852
11.421442
11.121631
10.767579
11.634827
11.681914
12.059808
13.670921
14.600754
15.276670
17.256737
17.757416
18.354654
18.774867
17.923713
18.835664
17.395616
18.760562
18.901825
18.253922
17.807484
16.353726
16.351938
17.722845
16.236901
17.545819
16.810894
17.137527
16.821623
17.555952
17.632842
17.795563
17.947555
17.271638
##ZVALUE=260
0.994802
1.070499
1.047850
1.156926
1.396537
1.331568
1.514554
1.280904
1.639724
1.828671
2.425909
2.928972
9.143949
37.500858
92.076659
246.402025
442.657471
784.327984
1015.888453
1015.888453
1015.888453
1015.888453
1015.888453
1004.486680
667.189956
443.492532
247.667432
149.282813
96.959472
98.109841
111.707449
142.377615
157.114863
167.788863
168.296695
152.066946
129.176974
102.519989
78.174472
56.732893
42.401552
31.763911
26.999712
24.309754
22.446513
21.673441
20.489693
19.221902
19.181967
17.438531
16.814470
16.168952
16.165972
14.710426
14.413595
13.389587
12.169480
12.141466
11.202693
11.851788
10.907650
10.585785
9.900928
9.814501
10.774732
10.981560
10.792613
10.786653
11.622906
12.621880
14.114976
13.863444
14.239550
15.519857
15.796423
16.367435
16.499758
16.589761
16.568899
15.502572
15.809536
16.326904
16.276836
15.203953
15.510917
15.695691
15.410781
15.448928
15.692711
15.713573
16.380548
16.091466
15.304685
16.295910
16.182661
16.306639
##ZVALUE=265
1.082420
0.932813
1.308918
1.159906
1.158714
1.248717
1.058578
1.317859
1.511574
1.582503
1.541972
1.617670
1.919866
2.568960
5.222559
25.026798
62.930584
163.979530
317.594409
673.066974
982.226729
1015.881896
1015.881896
1015.881896
1015.881896
1015.881896
843.336582
571.606755
305.730700
185.047984
117.781758
89.578629
99.629760
132.544637
153.010488
175.381899
178.561807
172.804594
157.424808
130.075812
106.283426
77.560544
58.259964
40.790439
31.428933
26.257634
22.548437
21.235943
20.068884
18.998981
17.914772
17.253757
16.732812
15.187860
14.150739
13.604760
13.160706
12.582541
12.045503
11.628866
11.054873
11.141896
10.082722
10.819435
9.747744
10.061860
10.656714
10.570884
11.084676
12.142658
12.067556
13.038516
13.700724
14.742613
15.397668
15.792847
15.188456
14.693737
15.044808
14.789701
14.811754
15.070438
15.035868
15.429854
14.597774
14.323592
13.787746
14.925599
14.346838
15.119910
14.451742
14.774799
13.880730
15.002489
15.842915
14.948845
##ZVALUE=270
0.941753
0.913739
0.945926
1.141429
1.133680
0.969768
0.956655
1.223683
1.448989
1.355410
1.302958
1.500845
1.413822
1.826882
1.888871
2.019405
3.036857
11.305809
33.763647
107.473731
220.397711
423.454642
800.988674
1015.998721
1015.998721
1015.998721
1015.998721
1015.998721
999.670625
747.675896
491.831899
252.573490
149.447918
88.377595
85.576773
108.186603
129.637718
158.333778
171.762705
177.755952
172.758698
150.879622
130.349994
97.543597
75.567961
51.029921
38.250685
28.296709
23.171902
19.523501
18.222928
16.500950
15.716553
15.198588
14.167428
13.371706
13.154745
12.238622
12.259483
11.372566
11.899471
11.115670
11.301637
10.256767
10.135770
10.148883
10.836720
10.774732
10.690689
11.265874
11.794567
12.395978
12.475848
12.790561
14.105439
12.986660
13.491511
14.209747
13.909936
13.682842
13.699532
13.708472
12.886524
13.076663
13.395548
13.196468
13.402700
12.950897
13.444424
13.108850
13.369918
13.775826
13.194680
12.588501
13.610721
14.048815
##ZVALUE=275
0.833869
0.737906
0.793934
0.766516
0.967979
0.959635
0.814795
0.990629
0.805855
1.085997
0.914931
1.168847
1.204610
1.219511
1.111627
1.211762
1.594424
1.861453
1.848936
4.504919
19.717813
55.334568
161.388516
309.367776
600.130558
832.472444
1015.888453
1015.888453
1015.888453
1015.888453
1015.888453
825.142860
581.345558
306.777954
184.376836
91.360807
69.098473
75.728893
96.328855
124.772787
143.917799
160.230994
168.049932
158.074498
146.148801
117.673874
94.560981
68.095922
50.344467
32.503605
23.510456
16.384721
13.998747
13.285875
12.675524
11.484623
11.784434
10.980964
10.354519
10.322928
10.562539
10.066628
10.396838
9.932518
10.302663
9.380579
9.700656
9.879470
10.167956
11.076927
11.105537
10.983944
11.915565
12.587905
12.420416
12.943745
12.938976
13.003945
12.682676
12.686849
12.753606
12.852550
12.971759
11.766553
11.746883
12.638569
13.048649
12.854934
12.550950
12.293458
12.262464
12.252927
11.583567
12.369752
12.620687
12.648702
##ZVALUE=280
0.650883
0.508428
0.667572
0.729561
0.710487
0.752807
0.677705
0.702739
0.878572
0.818968
0.867844
0.941753
0.722408
0.913739
0.862479
0.666976
0.915527
1.064539
1.136661
1.497865
1.818538
2.221465
11.955500
38.712621
126.039982
231.384635
436.431766
645.341873
946.696997
1015.888453
1015.888453
1015.888453
1015.888453
872.658491
650.605559
369.466543
224.355459
102.886558
60.595870
49.955845
62.931776
87.319613
110.669732
138.459802
151.366591
154.722929
150.581598
132.594705
114.233494
84.095597
63.823462
41.899681
28.893948
17.579794
13.962984
10.678768
10.442734
9.355545
9.618998
9.994507
9.219646
9.144545
9.652972
9.268522
9.515882
9.680986
9.661913
10.324717
10.649562
10.906458
11.130571
11.138916
11.880994
12.311935
11.200905
12.142658
12.431741
12.041926
12.419820
11.904836
12.544990
12.449622
12.279749
12.091994
12.325644
12.226701
12.031794
11.225939
11.949539
12.474656
11.418462
11.461973
12.030602
11.801720
12.521744
12.110472
##ZVALUE=285
0.479817
0.617504
0.687838
0.679493
0.558496
0.651479
0.736713
0.906587
0.653863
0.579953
0.870824
0.810623
0.760555
0.652671
0.951886
1.062751
0.857711
1.148582
0.905991
1.351833
1.578927
1.510978
1.698732
1.778603
5.994439
19.167662
67.903399
142.943859
310.044885
512.297750
761.774778
1015.876532
1015.876532
1015.876532
1015.876532
1015.876532
868.565440
526.894927
320.954919
143.996477
74.612498
37.682652
37.271976
55.623651
75.880885
106.048584
123.910904
141.242743
148.189664
143.062472
132.494569
107.394457
88.490844
60.405731
42.515993
26.304722
17.955899
12.335777
10.633469
9.079576
9.657741
9.159446
8.878708
9.986758
9.601712
10.096431
10.231733
10.239482
10.552406
11.157990
11.074543
12.038946
12.345910
12.487769
12.636781
12.376904
12.359619
12.394786
11.872649
12.359619
12.654662
12.189746
11.831522
12.366772
12.194514
12.050867
11.906624
11.827946
11.935830
12.226701
11.721849
11.446476
11.449456
11.839867
11.995435
12.188554
##ZVALUE=290
0.565648
0.608563
0.659823
0.629425
0.558496
0.603795
0.766516
0.790954
0.651479
0.775456
0.751615
0.735521
0.969768
0.818968
0.749826
0.894666
0.865459
0.970960
0.994802
1.098514
1.147985
1.258850
1.427531
1.367927
1.782775
1.795888
2.719760
8.164644
37.571788
89.934468
181.003809
392.995477
639.200807
1008.213758
1015.929580
1015.929580
1015.929580
1015.929580
1015.929580
706.731677
444.442630
212.048888
107.234716
43.531656
28.113723
35.626888
49.585700
74.527860
91.939569
119.476914
135.154724
145.043731
141.359568
126.707554
110.048652
81.382990
62.137842
40.217638
28.023720
18.398762
13.370514
10.695457
9.887815
9.624958
9.914637
10.318756
10.518432
10.573864
11.283755
11.666417
11.918545
12.468696
12.398958
12.903810
13.121963
12.709498
12.911558
12.734532
12.882948
12.495518
12.608767
12.446642
12.539625
12.316704
12.177825
12.475848
12.703538
11.774898
12.036562
11.884570
11.775494
11.649728
11.371970
11.963844
11.634827
11.090636
##ZVALUE=295
0.530481
0.541806
0.514984
0.494719
0.507832
0.569820
0.504851
0.742674
0.622869
0.540614
0.640750
0.644922
0.542998
0.851750
0.618696
0.740886
0.792742
0.846982
0.829697
0.954866
1.070499
1.138449
1.090765
1.102686
1.250505
1.176000
1.301765
1.492500
1.937747
3.654957
18.424988
51.981807
151.386857
284.147859
553.308725
817.881823
1015.829444
1015.829444
1015.829444
1015.829444
1015.830040
990.207791
606.657863
364.114642
153.078437
69.776773
28.598905
22.683740
31.705499
45.035481
69.361925
90.331435
112.941861
129.136443
137.216449
134.938955
120.310783
103.681684
79.894662
61.556697
40.657520
28.833747
18.864870
14.249682
11.150837
10.134578
10.016561
10.326505
10.524988
11.145473
11.610985
11.853576
12.052655
12.828708
12.707710
13.205409
12.868643
12.636781
12.602806
13.059974
12.833476
12.757778
12.568831
12.429953
12.363791
12.831688
12.054443
12.314916
12.264848
11.503696
11.600852
11.802912
11.624694
11.590719
11.516809
11.473894
##ZVALUE=300
0.492930
0.639558
0.645518
0.415444
0.720620
0.494719
0.454783
0.521541
0.416636
0.581741
0.529885
0.458956
0.706911
0.531673
0.645518
0.583529
0.748634
0.834465
0.790954
0.720620
0.805855
0.769496
0.718832
0.985861
1.117587
1.132488
1.414418
1.263618
1.441836
1.429915
1.904964
2.317429
7.420778
40.173531
96.799731
235.509872
392.721891
676.111579
916.502476
1015.889645
1015.889645
1015.889645
1015.889645
1015.889645
803.619027
455.859900
264.901519
108.351707
48.628449
19.965768
19.640923
29.370785
40.729642
62.003732
79.836845
107.035637
120.818615
131.550431
130.731463
116.491914
102.950931
78.261495
60.775876
40.995479
29.674768
18.633604
14.936924
11.574626
10.844469
11.173487
10.971427
11.145473
11.798739
11.806488
11.923909
12.373924
12.144446
12.064576
12.275577
12.618899
12.273788
12.530684
12.220740
12.606978
12.291670
12.747645
12.352467
11.739731
11.902452
11.897683
11.469722
11.355877
11.494756
11.017919
10.986924
11.027455
##ZVALUE=305
0.323653
0.195503
0.218749
0.220537
0.365973
0.333786
0.337958
0.425577
0.410676
0.305772
0.324845
0.441670
0.441670
0.422597
0.386834
0.353456
0.443459
0.468493
0.364780
0.536442
0.607967
0.550747
0.504851
0.860691
0.683665
0.873804
0.853539
0.830889
0.995994
1.080632
1.198649
1.331568
1.351833
1.661777
4.296899
18.146634
72.373748
155.496001
338.116884
523.770452
796.692967
992.316604
1015.760899
1015.760899
1015.760899
966.597795
698.000789
493.313670
264.053941
144.225955
53.967834
24.341941
14.601946
16.964674
26.747584
38.183928
61.100721
77.321529
99.644661
112.967491
122.021437
122.391582
111.417770
98.097920
75.264573
57.333708
39.524436
27.752519
17.483830
14.061928
11.765957
11.415482
11.206865
11.328459
11.354685
11.540651
11.397600
11.617541
11.745691
12.100935
11.836886
12.313724
12.192726
11.989474
12.550950
12.164712
11.799932
11.889935
11.853576
12.295842
11.918545
11.193752
11.270642
10.622740
10.736585
11.018515
##ZVALUE=310
0.304580
0.368953
0.387430
0.363588
0.414848
0.392795
0.443459
0.531673
0.610948
0.602603
0.556707
0.599623
0.390410
0.483990
0.588894
0.634789
0.445843
0.638962
0.670552
0.448823
0.595450
0.564456
0.538826
0.877976
0.642538
0.705719
0.835657
0.818968
0.864863
0.918508
1.140833
1.105666
1.139641
1.332760
1.270771
1.711845
1.874566
8.424520
29.421449
100.054741
196.098685
406.514406
608.661771
897.876024
1015.888453
1015.888453
1015.888453
1015.888453
876.196623
587.419868
391.043425
194.441676
102.133751
36.251545
15.858412
11.451840
15.326738
23.359656
34.116507
52.578449
69.636703
92.080832
105.938911
115.572810
116.089582
109.073520
94.937682
74.411631
57.606697
40.189624
28.958917
19.747615
15.444756
12.219548
11.654496
11.662841
11.221766
11.710525
11.251569
11.483431
11.678934
11.746883
12.024641
12.282729
12.325644
12.619495
12.149811
11.393428
12.098551
11.817813
11.942983
11.626482
11.205673
11.186600
11.120439
11.054873
##ZVALUE=315
0.478625
0.441670
0.357628
0.398755
0.298619
0.422597
0.268817
0.371933
0.334978
0.384450
0.361800
0.414848
0.292659
0.359416
0.477433
0.449419
0.538826
0.369549
0.501871
0.489950
0.476837
0.422597
0.641942
0.715852
0.658631
0.671744
0.610948
0.735521
0.753999
0.827909
0.723600
0.914931
0.885725
0.882745
1.029968
1.040697
1.263618
1.425743
1.622438
3.764629
13.288856
58.339834
132.214427
302.337408
488.312840
778.218508
973.450541
1015.889645
1015.889645
1015.889645
976.400971
706.697702
497.830510
267.387629
144.242644
52.798986
21.788478
10.391474
11.177659
15.126467
20.978451
33.136606
46.831965
67.054629
83.250999
101.562738
109.646916
111.017823
105.041862
88.581443
73.513985
55.104494
41.783452
27.394891
20.559430
14.742613
12.964606
11.383891
11.327863
11.735559
11.529922
11.611581
11.914968
11.743903
12.046695
12.150407
12.243986
12.299418
11.893511
11.609793
11.412501
11.377931
11.590719
11.257529
11.258721
11.188984
##ZVALUE=320
0.562668
0.459552
0.594854
0.537634
0.540614
0.496507
0.416636
0.557899
0.532866
0.589490
0.756979
0.765920
0.515580
0.479817
0.650883
0.598431
0.534654
0.425577
0.571609
0.634789
0.663996
0.724792
0.652671
0.725985
0.765920
0.827909
0.773668
0.730753
0.836849
0.932813
0.990629
0.739694
0.892878
0.911951
0.897646
0.897646
1.277924
1.210570
1.329780
1.512766
1.541972
2.165437
5.954504
33.070445
85.318685
220.991969
371.630788
622.095466
833.131671
1016.017795
1016.017795
1016.017795
1016.017795
828.588009
607.342720
341.526866
195.106864
81.979632
37.267804
12.786984
9.546876
10.263920
12.856722
19.786954
27.881861
44.498444
58.660507
78.930855
92.390776
103.472471
106.144547
99.385977
88.451505
69.003701
54.782629
37.541986
27.711987
19.435883
15.943646
12.874603
11.808872
11.600852
11.933446
11.626482
11.625886
11.658669
12.016892
11.748672
11.636615
11.513829
11.701584
11.686683
11.306405
11.303425
11.262894
11.384487
##ZVALUE=325
0.284910
0.287890
0.257492
0.332594
0.412464
0.186563
0.348687
0.317693
0.205636
0.335574
0.317693
0.204444
0.197887
0.359416
0.467896
0.444651
0.528693
0.437498
0.475645
0.343919
0.475645
0.497699
0.423789
0.574589
0.415444
0.457764
0.467896
0.531673
0.538826
0.513792
0.597835
0.666976
0.760555
0.902414
0.795722
0.818968
0.826716
0.979900
0.939965
0.759959
1.112819
1.151562
1.516938
1.512766
3.125668
19.867420
55.835843
153.405666
273.997784
508.401990
711.380839
977.863669
1015.888453
1015.888453
1015.888453
886.426568
677.286983
414.170623
255.314708
112.654567
53.013563
16.664863
9.741783
8.341670
9.589791
12.700558
18.220544
29.484630
41.538477
59.717894
74.507594
90.547800
97.260475
99.034905
93.573928
78.110695
65.877438
49.170852
37.708879
25.721788
19.608736
14.934540
12.823939
11.967421
11.686683
11.228919
11.279583
11.582971
11.425614
11.389852
11.608601
11.264682
10.941625
11.348724
11.020899
11.203885
##ZVALUE=330
0.317693
0.479817
0.214577
0.242591
0.225902
0.352859
0.486970
0.466704
0.343919
0.299811
0.419617
0.446439
0.433922
0.483990
0.361800
0.321865
0.307560
0.290871
0.416636
0.432730
0.452995
0.291467
0.365973
0.498891
0.603795
0.542998
0.581741
0.535846
0.507832
0.564456
0.636578
0.522733
0.407696
0.538826
0.592470
0.745654
0.751615
0.762939
0.703931
0.743866
0.906587
1.156926
1.094937
1.335740
1.352429
1.504421
1.851916
9.068847
29.284954
98.520517
191.502571
390.618443
582.519770
856.344700
1012.603641
1015.888453
1015.888453
967.056751
776.325464
503.587723
326.132774
151.742697
76.157451
26.802421
12.467504
8.202791
8.644462
9.582639
12.340546
18.601418
26.812553
40.913820
54.115653
72.270632
84.382892
92.933774
93.420744
86.578727
77.113509
59.886575
47.951937
33.686757
25.850534
19.141436
15.630722
13.140440
12.112856
11.445880
11.476874
11.043549
11.080503
11.059642
11.202693
10.577440
10.734797
10.684729
##ZVALUE=335
0.306964
0.228882
0.164509
0.296831
0.232458
0.183582
0.339746
0.434518
0.380874
0.533462
0.346899
0.450611
0.538826
0.312924
0.233650
0.249743
0.383854
0.327826
0.370741
0.449419
0.380874
0.263453
0.440478
0.326633
0.377893
0.422597
0.522733
0.603795
0.533462
0.459552
0.554919
0.417829
0.548959
0.545979
0.528693
0.630617
0.519753
0.614524
0.661612
0.755787
0.814795
0.872612
0.981688
1.050830
0.905991
1.041889
1.414418
1.320839
1.574755
3.342628
18.566847
52.526593
147.370696
265.322924
490.123630
699.800849
964.913964
1015.888453
1015.888453
1015.888453
837.917924
640.105605
382.262468
230.226517
96.982718
45.397878
15.359521
9.092689
8.254647
8.221865
10.078549
12.460947
18.128753
25.297999
38.337708
50.452948
67.376494
77.716708
86.627603
87.200999
81.322789
72.400570
59.099793
48.411489
34.593940
26.980639
18.846989
15.722513
12.772679
11.786819
10.993481
10.804534
10.374784
10.313988
10.237694
10.211468
##ZVALUE=340
0.240803
0.273585
0.265837
0.435710
0.294447
0.201464
0.458956
0.246763
0.296831
0.379682
0.393987
0.239611
0.366569
0.359416
0.429749
0.173450
0.270605
0.292659
0.352859
0.472665
0.355840
0.347495
0.293851
0.478625
0.426769
0.453591
0.405908
0.361800
0.442863
0.406504
0.454783
0.638962
0.566840
0.501871
0.449419
0.513792
0.531673
0.550747
0.562668
0.602603
0.752807
0.719428
0.714660
0.820756
0.773668
1.013875
1.124740
0.926852
1.140833
1.393557
1.465678
2.097487
7.218719
36.338568
89.606643
224.810839
380.788445
626.249909
817.755461
1010.532975
1015.926600
1015.926600
915.346742
681.066513
483.054519
252.016783
139.243603
56.371689
23.476481
9.502769
8.089542
8.113980
8.575916
10.084510
12.112856
17.876625
25.067925
37.447810
49.575567
65.315962
75.265765
81.940889
82.450509
76.865554
69.333911
57.648420
46.482682
33.681989
26.796460
18.993616
15.075803
12.210608
10.855794
10.189414
10.462999
10.103583
##ZVALUE=345
0.361800
0.184774
0.187755
0.237823
0.198483
0.270605
0.290871
0.172853
0.285506
0.442863
0.283718
0.400543
0.380874
0.343919
0.101924
0.421405
0.435710
0.321865
0.243783
0.236630
0.319481
0.301600
0.388622
0.451803
0.488758
0.241995
0.422597
0.426769
0.438690
0.423789
0.404716
0.280738
0.382662
0.493526
0.358820
0.535846
0.561476
0.523925
0.491738
0.547767
0.575781
0.547767
0.651479
0.650883
0.684857
0.874996
1.030564
0.979900
0.823736
1.196861
1.136661
0.959635
1.430511
1.524687
3.252625
19.484758
57.553649
158.914924
277.783871
496.825576
688.270926
923.954844
1015.889645
1015.889645
968.971848
750.124454
559.979677
333.003998
188.133717
74.457526
33.555627
11.972785
8.470416
8.225441
7.926822
8.283854
9.047985
11.967421
15.719533
24.143457
33.621788
47.023892
57.423711
67.378879
74.010491
76.525807
74.248910
65.200925
57.749748
44.945478
34.833550
24.479628
19.037724
13.890862
11.971593
10.532737
##ZVALUE=350
0.327826
0.311732
0.336766
0.324845
0.252724
0.324845
0.267625
0.305772
0.137687
0.236630
0.296831
0.282526
0.474453
0.297427
0.342727
0.351667
0.379682
0.351667
0.387430
0.280738
0.223517
0.376701
0.461936
0.349879
0.421405
0.345707
0.462532
0.517964
0.436902
0.357628
0.409484
0.496507
0.291467
0.419617
0.435710
0.455976
0.448823
0.490546
0.480413
0.671744
0.633597
0.568628
0.589490
0.605583
0.564456
0.730753
0.792742
0.764728
0.824928
0.824928
0.803471
0.853539
1.039505
1.066923
0.975728
1.321435
1.947880
9.844899
31.638741
102.939606
196.089745
392.757654
573.416948
808.398724
955.615640
1015.884876
994.350910
827.103853
638.144016
382.263660
235.077739
107.907653
49.757957
15.340447
8.979440
7.887483
7.949471
7.683635
7.625818
8.837581
10.974407
15.842915
21.112561
30.553937
38.621426
51.430464
59.522986
67.662001
69.851875
67.040920
62.107444
51.709414
42.673945
31.204820
24.369955
17.753839
##ZVALUE=355
0.224710
0.370741
0.271797
0.382662
0.389814
0.294447
0.196695
0.211596
0.299811
0.279546
0.190735
0.311732
0.157952
0.285506
0.300407
0.208616
0.305772
0.161529
0.369549
0.286698
0.304580
0.562668
0.395775
0.201464
0.453591
0.368953
0.454783
0.377893
0.365973
0.372529
0.385642
0.345707
0.409484
0.386834
0.506639
0.397563
0.419617
0.495911
0.402927
0.363588
0.480413
0.617504
0.452995
0.456572
0.415444
0.607967
0.592470
0.803471
0.712872
0.771880
0.806451
0.715852
0.824928
0.850558
0.993609
1.121759
1.139641
1.347661
1.509786
4.483461
17.191768
66.311955
135.907531
289.955735
456.061959
709.165931
866.586566
990.244746
994.351506
853.832960
693.066716
461.799502
292.657614
130.824447
62.418580
20.259619
9.462833
7.332563
7.302761
6.980896
7.201433
7.661581
8.245707
10.070801
12.687445
19.066930
25.544763
35.669804
43.747425
53.497553
60.025454
63.577890
62.484741
56.057572
49.053431
39.827824
##ZVALUE=360
0.184774
0.239611
0.305772
0.168681
0.111461
0.251532
0.288486
0.253916
0.238419
0.316501
0.422597
0.339746
0.481606
0.351667
0.291467
0.279546
0.155568
0.161529
0.316501
0.299811
0.315905
0.487566
0.356436
0.379682
0.397563
0.405908
0.398755
0.346899
0.350475
0.411868
0.321865
0.342727
0.504851
0.362992
0.467896
0.495911
0.367761
0.405908
0.423789
0.444651
0.472665
0.426769
0.577569
0.533462
0.448823
0.449419
0.598431
0.568628
0.551939
0.639558
0.585914
0.749826
0.744462
0.771880
0.589490
0.846982
0.887513
1.042485
1.180768
1.327991
1.529455
2.246499
7.467866
34.829974
86.037517
213.599801
354.425907
576.716661
761.333704
935.927629
979.505777
913.835764
776.726007
536.842942
360.133648
175.470710
91.339946
33.935905
14.647841
7.465482
6.922483
6.724000
6.796718
6.745458
6.722808
7.340908
8.381605
11.157990
14.963746
21.300912
28.514862
38.694739
46.145916
53.792596
56.822896
57.039857
##ZVALUE=365
0.375509
0.247955
0.328422
0.248551
0.304580
0.281930
0.246763
0.439882
0.284910
0.203848
0.181794
0.259876
0.322461
0.231862
0.198483
0.354648
0.269413
0.274777
0.295639
0.205636
0.223517
0.339746
0.371933
0.297427
0.445843
0.369549
0.274777
0.492930
0.302792
0.347495
0.411868
0.364780
0.454783
0.316501
0.298619
0.443459
0.508428
0.514984
0.368953
0.269413
0.426769
0.476837
0.528693
0.505447
0.565648
0.515580
0.424981
0.547767
0.569820
0.592470
0.651479
0.631809
0.672936
0.843406
0.836849
0.798702
0.916719
0.959635
0.817776
0.915527
1.146793
1.160502
1.249909
1.474619
3.959537
14.892817
57.906508
126.647949
290.788412
459.281802
692.210793
831.409693
940.594673
934.862494
802.974701
652.406812
422.251821
260.312557
114.782453
53.900480
16.649961
8.387566
6.409883
6.459951
6.117821
6.261468
6.130934
6.166697
6.749630
7.209778
9.347796
12.322664
18.397570
24.160743
33.309460
40.074587
##ZVALUE=370
0.100732
0.172853
0.284910
0.151992
0.271797
0.227690
0.189543
0.256896
0.139475
0.169873
0.187755
0.353456
0.252724
0.272989
0.197887
0.241995
0.413656
0.278950
0.313520
0.231862
0.226498
0.244975
0.349879
0.245571
0.286698
0.364780
0.183582
0.244975
0.235438
0.344515
0.436902
0.384450
0.372529
0.323653
0.474453
0.472665
0.418425
0.364780
0.625849
0.381470
0.311732
0.421405
0.502467
0.502467
0.399947
0.433922
0.617504
0.574589
0.537634
0.351667
0.499487
0.615716
0.568628
0.451803
0.555515
0.559688
0.661612
0.705719
0.721812
0.763535
0.810623
0.903606
0.952482
1.024604
1.167655
1.364946
2.140999
7.874966
40.607452
98.306537
231.011510
369.776487
587.479472
754.222870
904.220939
932.535529
844.432712
701.655746
471.702814
308.418870
144.981742
74.094534
27.752519
12.200475
6.289482
5.863905
5.764961
5.577803
5.625486
5.658865
5.539656
5.558729
6.609559
8.294582
11.461973
14.932752
##ZVALUE=375
0.211596
0.232458
0.101924
0.260472
0.146627
0.201464
0.226498
0.265837
0.130534
0.281930
0.321865
0.234842
0.351667
0.399947
0.222921
0.191927
0.266433
0.116825
0.281930
0.250936
0.413656
0.147820
0.299811
0.319481
0.334978
0.283718
0.272989
0.370741
0.346899
0.306964
0.311732
0.315905
0.282526
0.205636
0.292659
0.436902
0.391603
0.359416
0.273585
0.377893
0.330806
0.512600
0.485778
0.376701
0.508428
0.575781
0.403523
0.276566
0.208616
0.482798
0.347495
0.413656
0.645518
0.533462
0.639558
0.435710
0.458956
0.637770
0.554919
0.446439
0.765920
0.597835
0.619888
0.699759
0.649691
0.866652
1.112819
1.263618
1.484752
4.245639
23.390651
59.224963
152.260661
270.851851
486.939549
654.441714
836.286545
913.936496
880.515575
766.999722
549.179912
389.200449
217.941999
123.908520
48.227906
20.750761
7.656813
5.465746
5.306602
5.345941
5.123615
5.162954
5.149841
5.108714
5.187988
5.794764
##ZVALUE=380
0.239611
0.240803
0.141859
0.200868
0.191927
0.250936
0.037551
0.181794
0.249743
0.219941
0.290871
0.195503
0.167489
0.206828
0.269413
0.226498
0.182986
0.312924
0.336766
0.262856
0.216961
0.010729
0.319481
0.142455
0.262856
0.189543
0.237823
0.271797
0.136495
0.118613
0.270605
0.211596
0.290871
0.218749
0.386834
0.251532
0.298619
0.494719
0.360608
0.406504
0.240803
0.247955
0.483990
0.414848
0.320673
0.301600
0.405908
0.323653
0.442863
0.435710
0.368953
0.393987
0.397563
0.428557
0.537634
0.612736
0.525713
0.478625
0.639558
0.603795
0.479817
0.487566
0.629425
0.588894
0.486970
0.776649
0.727773
0.937581
1.007915
1.241565
1.364946
2.857447
9.997487
46.905875
105.571747
232.677460
378.195643
613.570809
768.947601
904.585719
911.259651
793.928504
656.017661
459.728837
310.444832
154.455900
79.208612
27.688742
11.246800
5.871654
5.166531
4.908442
4.803538
4.851818
4.593730
4.681945
##ZVALUE=385
0.236630
0.181794
0.189543
0.184774
0.176430
0.169873
0.230670
0.211596
0.245571
0.193715
0.251532
0.237823
0.220537
0.162721
0.226498
0.205636
0.184774
0.249743
0.130534
0.230670
0.199676
0.224710
0.238419
0.332594
0.359416
0.383854
0.219941
0.174642
0.198483
0.240803
0.209808
0.107884
0.353456
0.443459
0.220537
0.220537
0.457764
0.440478
0.238419
0.335574
0.303984
0.522733
0.358820
0.356436
0.443459
0.253916
0.189543
0.360608
0.324845
0.258684
0.326633
0.267625
0.366569
0.372529
0.449419
0.380874
0.484586
0.500679
0.540614
0.626445
0.423789
0.588894
0.512600
0.445843
0.457764
0.683665
0.706911
0.770688
0.898838
1.079440
1.010895
1.160502
1.372695
1.401901
5.473495
19.149780
68.900585
147.857666
315.907001
481.230617
704.967976
827.868581
895.314813
869.222879
729.704499
581.710935
369.206667
235.516429
107.973814
52.070618
18.001795
7.386804
4.762411
4.506707
4.253983
4.207492
##ZVALUE=390
0.261664
0.128746
0.193715
0.202656
0.204444
-0.004768
0.192523
0.063777
0.372529
0.102520
0.262856
0.312924
0.293851
0.271797
0.246763
0.151992
0.147820
0.171661
0.236630
0.297427
0.275970
0.230670
0.160933
0.305772
0.323653
0.382662
0.302792
0.281930
0.167489
0.104904
0.211596
0.199676
0.279546
0.163913
0.164509
0.293851
0.473857
0.238419
0.465512
0.121593
0.352859
0.333786
0.331998
0.474453
0.461936
0.425577
0.358820
0.441670
0.328422
0.318885
0.291467
0.222921
0.205636
0.343919
0.411868
0.358820
0.540614
0.383854
0.442863
0.513792
0.579953
0.474453
0.507832
0.432730
0.477433
0.661612
0.522733
0.718832
0.737906
0.809431
0.878572
1.022816
1.000762
1.130700
1.029968
1.360774
2.237558
13.442636
41.915774
126.696825
237.185955
442.603827
596.335530
773.209929
866.614580
898.129940
830.276608
653.931499
501.762629
305.511951
178.994536
72.661638
32.307506
9.662509
5.160570
4.303455
##ZVALUE=395
0.326633
0.277758
0.272989
0.363588
0.260472
0.377893
0.323653
0.264645
0.201464
0.443459
0.431538
0.346899
0.308752
0.372529
0.396967
0.442863
0.502467
0.470877
0.301600
0.389814
0.340939
0.446439
0.386834
0.373721
0.432730
0.491738
0.483990
0.335574
0.481606
0.493526
0.557899
0.510812
0.341535
0.421405
0.675917
0.644922
0.656843
0.327826
0.574589
0.528693
0.530481
0.521541
0.465512
0.681877
0.623465
0.468493
0.693798
0.641942
0.435710
0.594854
0.560880
0.572801
0.483990
0.534654
0.365973
0.489950
0.629425
0.728965
0.525713
0.502467
0.723600
0.721812
0.692606
0.644922
0.702739
0.810623
0.777841
0.808835
0.941753
0.881553
0.957847
1.118779
1.095533
1.220703
1.094937
0.897646
1.261830
1.395941
1.576543
7.545948
27.760863
93.568563
175.221562
330.731869
487.405658
708.513856
838.809609
918.799639
897.950530
762.111545
598.565936
370.950699
230.288506
101.344585
48.706532
15.734434
##ZVALUE=400
0.143647
0.178814
0.147820
0.306964
0.224710
0.235438
0.168681
0.253916
0.230670
0.237823
0.187755
0.158548
0.304580
0.137687
0.126958
0.023842
0.392795
0.345707
0.120997
0.240803
0.185966
0.251532
0.263453
0.145435
0.261664
0.244975
0.177622
0.231862
0.246763
0.372529
0.243783
0.148416
0.266433
0.303984
0.339746
0.265837
0.437498
0.419617
0.434518
0.395775
0.285506
0.355840
0.306964
0.335574
0.341535
0.438690
0.365973
0.268817
0.395775
0.219941
0.400543
0.425577
0.300407
0.309944
0.343919
0.415444
0.387430
0.529885
0.378489
0.441670
0.255704
0.442863
0.533462
0.381470
0.544786
0.528693
0.514984
0.547767
0.677705
0.714660
0.775456
0.665784
0.799894
0.805855
0.806451
0.672936
0.796914
0.984669
0.949502
1.206994
1.235604
3.995895
14.500618
53.987503
114.533901
251.546502
397.151709
613.815784
758.949518
877.548456
894.991755
789.289474
651.755929
431.497693
286.165476
144.470930
##END
