##TITLE=FQP00602
##FORMAT=SPECTACLE-ASCII V-1.2
##DATA TYPE=ULTRAVIOLET SPECTRUM
##SECOND TYPE=ULTRAVIOLET SPECTRUM
##DATE=02/05/18
##TIME=14:03:14
##SPECTROMETER/DATA SYSTEM=SPECTACLE
##XUNITS=NM EM
##YUNITS=ENERGY
##YFACTOR=1
##FIRSTX=220
##LASTX=410
##NPOINTS=96
##3DDATA=Equidistant
##ZUNITS=NM EX
##FIRSTZ=210
##LASTZ=400
##ZPOINTS=39
##XYDATA=(Y..Y)
##ZVALUE=210
2.582669
2.638698
2.349615
3.049970
2.704859
3.428459
3.021955
3.173947
3.456473
3.364682
2.907515
2.850890
3.324747
3.496408
3.495812
4.067421
3.614426
3.698468
4.330873
5.754828
5.494952
6.009936
5.541444
6.248951
6.238818
7.906556
7.231832
7.701516
8.232594
9.077787
8.812547
9.514689
10.313988
10.720491
10.362864
10.756850
10.475516
10.365844
10.943413
10.935664
10.472536
10.324717
10.346770
9.552836
10.451674
11.005998
11.058450
11.347532
10.536909
11.236668
11.588931
12.403727
10.928512
10.686517
12.718439
12.987852
12.230873
12.090802
12.578964
12.078881
12.233853
11.286736
11.707544
11.629462
12.453794
13.363957
13.332963
17.656684
16.908646
20.032525
25.205612
28.932691
32.327771
39.958954
43.754578
47.898889
47.584772
52.774549
53.638816
51.978827
46.227574
45.143962
37.194490
31.045675
26.292801
19.883513
16.997457
14.123917
13.356805
11.409521
10.721684
10.210872
11.026859
11.769533
13.126731
12.286901
##ZVALUE=215
9.362698
9.452701
8.276701
7.553697
4.404783
5.485415
4.268885
4.198551
5.388856
5.809665
4.739761
4.937649
4.120469
3.704429
4.047751
3.824830
3.633499
4.277825
4.104972
4.136562
4.386902
4.847646
5.621910
5.480647
5.978942
5.678535
6.955862
7.219911
8.348823
8.549690
9.068847
9.907484
9.640455
10.981560
11.183619
10.045767
11.031628
12.305975
9.695888
12.062788
11.266470
10.670424
10.664463
10.480881
10.141730
10.311604
9.640455
10.794997
9.621978
9.352565
9.709597
10.080934
9.716749
10.059476
9.364486
9.307861
10.059476
9.076595
7.915497
9.457469
7.918477
8.604527
8.735657
8.950830
9.096861
8.842945
10.142922
12.409687
12.935996
13.811588
16.351938
19.804835
22.066832
25.859475
28.594732
29.351711
30.304790
30.807853
31.736493
31.176805
29.035807
25.786757
23.309588
20.132661
16.879439
14.688969
11.763573
10.165572
9.836555
9.403825
8.642673
7.598996
7.642508
8.292794
8.426905
8.386970
##ZVALUE=220
30.816793
30.267835
32.774806
30.516982
26.764870
20.662546
18.136501
12.357831
10.264516
10.475516
10.558963
11.082888
11.388659
10.835528
9.478927
6.673932
5.734563
5.431771
4.640818
4.044771
4.972816
4.924536
3.960729
4.854798
6.189942
6.316900
6.919503
7.804632
8.864999
10.674596
10.943413
12.924671
13.199449
14.334917
13.709664
14.919639
14.072657
14.226437
13.644695
11.949539
14.086962
13.476610
14.307499
13.059974
12.906790
12.028813
11.631846
11.467934
11.501908
11.328459
11.234879
11.751652
11.167526
11.272430
9.376407
10.296702
10.201931
11.497736
9.084940
9.982586
10.722876
10.363460
10.373592
9.707808
10.522604
10.269880
11.276603
12.835860
13.759732
13.953447
14.906526
17.088652
19.668937
22.328496
24.004579
25.739670
26.435852
26.878715
26.490688
26.369691
24.318695
21.880865
20.353794
16.202927
15.828609
11.721849
11.992455
10.737777
9.974837
9.850860
9.950995
9.049773
8.816719
9.290576
8.306503
10.316968
##ZVALUE=225
46.814680
49.255490
67.923665
79.980493
85.252523
81.487894
76.354742
61.340928
44.544935
33.744574
25.206804
21.619797
23.179650
26.881695
26.393533
24.259686
19.138455
16.093850
12.876987
8.929968
5.887747
4.799962
4.525781
4.538894
5.391836
6.792545
7.295609
8.569956
9.569526
10.422468
12.591481
13.150573
15.116930
15.325546
16.654730
15.146732
15.057921
17.982721
17.502904
16.433001
16.156435
15.454888
14.980435
13.733506
15.470982
14.250875
14.275908
13.348460
13.001561
12.305975
11.563897
11.876822
11.770725
10.552406
11.752844
10.440946
10.444522
10.509491
11.128783
10.890961
9.548664
10.478497
9.807944
10.452867
10.509491
11.188984
11.755824
11.569858
10.741949
13.278723
14.260411
16.669631
16.517639
18.938780
20.305514
19.459724
19.607544
20.334721
19.772649
19.317865
18.706918
18.043518
18.456578
15.918612
15.817881
13.586879
14.090538
13.865829
12.265444
12.079477
11.186600
12.291670
11.732578
11.728406
11.514425
13.143420
##ZVALUE=230
42.483807
45.138001
74.432492
122.748613
160.439610
192.071795
209.503770
206.539631
177.085996
147.906542
97.334981
70.106983
50.397515
43.096542
43.252707
46.253800
48.811436
47.920942
41.721463
33.591986
25.827885
17.403960
13.387799
9.162426
7.607937
6.747842
7.072687
8.577704
9.648800
11.684895
11.294484
12.808442
14.864802
15.968680
15.696883
16.218424
15.898943
17.234683
18.290877
16.986728
17.737746
16.720891
15.646815
16.196966
14.783740
14.843941
13.788939
14.595985
13.651848
14.124513
13.508797
13.378859
13.534427
11.726618
12.931824
12.922883
13.675690
13.184547
12.904406
13.657808
13.049841
13.845563
14.534593
13.884902
14.643669
15.241504
15.313625
14.997721
15.107989
17.747879
17.707944
19.903779
20.675659
24.648905
23.668408
24.238825
24.947524
23.925900
24.607778
23.570657
23.549795
20.977855
20.634532
20.359755
20.588636
19.754767
19.579530
17.010570
18.199682
18.191934
17.163754
18.187761
16.786456
17.152429
16.214848
17.412901
##ZVALUE=235
11.533499
13.969541
33.504963
84.868670
142.422915
236.047506
321.376920
422.050953
468.149781
469.482541
411.574841
334.514976
226.264596
156.697631
102.600455
77.894926
72.187781
72.504878
83.508492
83.344579
77.293515
65.519810
52.379966
36.924481
26.202798
17.741919
12.747645
9.770989
9.822845
10.077953
10.604858
11.474490
12.907982
13.204813
13.904572
13.746619
13.193488
14.175773
15.006661
14.432669
16.395450
15.041828
14.178753
14.410615
15.220642
14.913678
13.326406
14.051795
14.463663
14.625788
13.982654
13.393760
12.987852
13.968945
14.107823
13.835430
13.469458
14.720559
15.858412
13.942719
15.747547
15.910864
16.171932
17.684698
16.957521
19.963980
19.877553
19.522905
20.515919
22.701621
23.434758
28.197765
29.276609
30.758977
33.352971
35.927892
33.510923
33.324957
33.873916
33.632517
33.667684
32.324791
32.488704
29.445887
29.943585
29.060841
29.191971
29.873848
28.249621
27.743578
25.911927
29.064417
25.464892
25.532842
25.737882
28.712749
##ZVALUE=240
2.048612
1.847744
6.053448
16.623735
48.185587
94.306469
198.872685
312.047005
472.317934
587.255955
680.935979
674.632788
628.373623
494.155884
372.874737
233.363509
164.607763
111.971498
99.973679
105.210543
114.830732
118.391514
117.210746
98.467469
85.860491
64.335465
47.365427
35.154819
22.274852
17.545819
14.707446
12.730956
12.788773
12.536645
13.000965
14.007688
12.642741
12.949705
14.240742
13.408661
13.295412
13.864636
13.748407
12.450814
13.013482
13.554692
13.573766
14.086962
13.061762
12.514591
13.212562
13.382435
12.209415
12.625456
13.443828
14.550686
14.688969
14.505982
14.734864
16.789436
16.091466
16.654730
17.810464
17.410517
19.485950
18.912554
18.614531
21.764636
22.586584
23.651719
25.958419
28.399825
31.927824
33.783913
34.346581
37.225485
37.364960
35.946965
36.311746
36.426783
35.875440
36.903620
35.547614
37.345886
34.026504
34.107566
34.785867
33.955574
34.562945
34.796596
31.245947
34.318566
34.027696
32.902956
32.907724
32.894611
##ZVALUE=245
1.467466
1.754761
1.301765
1.582503
3.923774
11.613965
40.114522
86.176991
204.596519
314.369798
495.624542
629.886985
711.859465
760.968924
722.489953
601.689816
482.517481
327.718854
230.985880
140.411854
107.170939
99.390745
115.794539
130.508542
133.467913
131.448507
115.699768
97.751617
73.455572
58.369637
42.952895
28.237700
21.164417
14.857650
15.952587
13.709664
14.182925
14.489889
13.098717
13.530850
13.482571
13.745427
12.696981
14.001727
14.122725
13.497472
12.855530
13.585687
12.119412
11.611581
13.334751
11.818409
13.147593
13.132691
12.542605
12.031794
12.901425
12.850761
13.480783
14.218688
13.784766
14.510751
14.407635
15.260577
16.182661
16.228557
17.716885
19.881725
20.754933
22.120476
24.738908
26.665926
26.788712
29.113889
29.831529
31.691790
32.930970
34.208894
33.564568
35.423636
32.738447
34.038424
34.288764
35.468936
33.932924
33.389926
33.742785
34.187436
34.844875
33.744574
34.150481
34.011602
34.294724
32.381415
33.880472
34.499764
##ZVALUE=250
1.091957
1.503825
1.457930
1.211762
1.459718
1.466870
2.627969
7.193685
34.069419
74.889660
180.502534
307.793617
437.328815
624.336004
731.554627
809.284449
798.552036
695.632696
583.340526
399.949551
273.394585
182.465911
108.669996
96.663833
107.081532
124.304891
138.378739
144.704580
141.977668
126.826763
111.624599
86.272955
65.271854
45.987964
31.602979
21.782517
17.326474
16.516447
16.623735
15.763640
15.463829
14.769435
15.169978
15.689731
15.442967
14.419556
14.833808
14.082789
14.441609
14.685988
14.119744
12.960434
13.395548
13.479590
13.035536
13.662577
12.505651
12.999773
13.270974
12.422800
13.385415
13.793707
13.628602
14.652610
15.392900
15.947819
15.427470
16.581416
18.392801
19.509792
20.693541
23.418665
24.162531
25.522709
27.657747
28.581619
29.100776
28.954744
31.126738
32.224655
30.821562
31.428933
30.569434
30.611753
31.069517
30.489564
31.642914
32.441616
31.511784
31.600595
33.522844
31.207800
32.229424
32.671690
31.999946
31.481981
##ZVALUE=255
0.928640
1.003742
0.819564
1.078844
1.255870
1.320839
1.464486
1.608729
2.095699
4.811883
24.672747
59.581399
126.452446
271.026492
415.229797
639.677644
785.893798
914.818645
949.007869
862.468481
736.408830
581.542850
361.509919
234.051943
128.590465
97.362995
94.655752
106.528401
130.777955
148.528814
156.685710
149.238706
140.038729
111.720562
91.223717
66.671968
50.127506
33.028722
25.646687
21.047592
19.900799
19.213557
19.027591
17.679930
18.371940
18.007755
17.221570
16.753674
15.306473
16.126633
15.475750
14.826655
14.429688
14.064908
13.632774
14.149547
14.469624
12.837648
13.169646
13.131499
13.150573
13.386607
13.568997
13.941526
14.271736
15.399456
15.650988
16.418695
17.441511
18.049479
19.196868
20.774603
22.162795
21.949410
23.954511
24.958849
24.412870
26.796460
26.319623
27.159452
27.207732
27.068853
27.197599
28.953552
27.690530
28.784871
28.992891
30.149817
29.495955
30.556917
28.702617
30.478835
30.045509
30.057430
28.470755
29.869676
##ZVALUE=260
0.932813
1.013875
0.897646
1.072884
1.242757
1.287460
1.289845
1.566410
1.741648
1.364946
1.688600
2.730489
8.559823
37.385821
83.935857
201.930404
333.338976
554.908514
746.333003
990.617871
1015.888453
1015.888453
1015.888453
869.114995
593.675971
413.178802
232.694745
137.652755
92.108846
93.878508
109.026432
136.403441
152.331591
165.518522
166.090727
144.664645
123.174787
97.243786
73.797703
52.547455
39.665699
29.842854
25.418997
23.086667
22.020936
19.632578
19.571781
19.364953
19.310713
18.182993
18.940568
17.166734
16.400814
15.821457
15.864968
15.384555
14.832616
14.624000
13.974905
14.413595
14.363527
14.276505
14.390945
14.466643
14.178753
15.058517
15.917420
15.579462
16.143918
17.910600
18.621683
19.615889
20.244718
20.859838
21.719933
23.630857
23.132563
24.269819
24.490952
24.306774
25.631785
25.159717
26.124716
26.448965
25.326610
26.059747
27.178526
26.950836
27.112961
27.542710
27.417541
26.997924
28.716922
28.034449
28.077960
28.321743
##ZVALUE=265
0.941753
0.997782
1.052618
1.233816
1.062751
1.055598
0.940561
0.973940
1.413822
1.195669
1.477599
1.614690
1.596808
1.910925
6.005764
29.615760
68.682432
160.702467
274.647474
515.775681
749.218464
981.418490
1015.888453
1015.888453
1015.888453
1015.888453
774.165988
550.886989
302.368999
177.214742
111.306906
84.706545
95.752478
126.144886
148.844719
169.036984
172.963738
166.116953
153.197646
121.799707
104.911923
74.087977
58.140755
40.922761
31.923652
26.089549
23.526549
22.589564
21.366477
20.054579
19.655824
19.354820
17.673969
17.091632
17.156601
16.157627
15.640855
15.365481
15.672445
14.330745
15.112758
15.853643
14.961958
14.449954
14.598966
15.056729
15.957952
16.242862
16.405582
17.584562
18.676519
19.497871
20.574927
20.778775
22.393465
22.106767
22.364855
23.196936
22.480488
24.432540
24.267435
25.164485
23.958683
23.907423
25.668740
25.550723
25.923848
25.147796
25.149584
25.147796
27.112961
26.326776
27.638674
26.973486
26.314855
26.406646
##ZVALUE=270
0.812411
0.814795
0.825524
0.801682
0.893474
0.972748
0.976920
1.115799
0.934601
1.092553
1.092553
1.367927
1.220703
1.505613
1.628995
1.856685
2.737641
18.146634
51.110983
145.835876
265.985727
435.393453
719.462037
953.999758
1015.892029
1015.892029
1015.892029
1015.892029
913.543701
682.410598
461.981893
243.195891
141.294003
82.572699
79.011917
103.264451
126.488805
154.372454
167.032480
176.766515
169.680715
151.423812
131.904483
99.213719
77.959895
52.501559
42.242408
31.097531
25.844574
21.796823
21.076798
20.218492
19.169450
17.773509
18.275976
17.236471
17.490983
16.597509
15.909672
15.837550
16.019940
15.066862
15.312433
15.659928
15.114546
16.173720
15.976429
16.751885
17.297864
18.663406
19.522905
19.373894
20.320415
21.643639
22.165775
22.116899
21.741986
23.409724
22.953749
23.897886
23.640990
24.199486
23.682714
24.425983
24.798512
24.146438
25.689602
25.539994
25.291443
25.119781
25.103688
24.185777
24.364591
24.750829
25.391579
25.396943
##ZVALUE=275
0.690818
0.727773
0.836849
0.744462
0.854731
0.795722
0.853539
0.727773
0.819564
0.787973
0.960827
0.913739
0.894666
1.208782
1.293421
1.497865
1.423955
1.629591
1.825690
5.497932
24.003983
76.914430
209.499002
368.589759
648.270845
847.062469
1015.879512
1015.879512
1015.879512
1015.879512
1015.879512
773.188472
550.369620
293.618441
173.223615
86.039901
65.911412
76.205730
96.587539
126.260519
145.495534
164.970756
169.374943
166.013837
149.769783
123.163462
99.931955
72.835684
55.515766
37.681460
27.926564
22.305846
19.578934
18.234849
16.827583
16.889572
16.326904
15.509725
16.267896
15.436411
15.148520
15.823841
16.428828
15.582442
16.229749
16.238689
16.788840
17.174482
17.727613
18.325448
19.003749
20.231605
20.646453
20.516515
21.845698
21.802783
21.739602
22.675991
23.720860
22.688508
23.558736
24.662614
23.846626
23.409724
23.777485
23.578405
23.128986
23.891926
23.542643
24.080873
23.420453
24.194717
24.178624
24.071932
23.391843
24.419427
##ZVALUE=280
0.730753
0.631809
0.659823
0.827909
0.754595
0.616908
0.755787
0.600815
0.940561
0.948906
0.822544
1.034737
0.921488
0.826716
0.964999
1.224875
1.255870
1.354814
1.291633
1.489520
1.827478
2.385974
13.550520
48.872828
151.829720
271.980762
480.599999
683.909655
931.186676
1015.889645
1015.889645
1015.889645
991.901755
756.396651
558.313727
324.724913
197.442770
95.826983
59.284568
52.818656
65.326691
93.252659
115.897655
142.581463
156.104565
161.374807
155.487657
139.213800
118.624568
90.034604
69.061518
46.515465
33.358932
23.908615
19.082427
15.777946
14.844537
14.657974
14.453530
15.087724
15.112758
14.741421
15.459657
15.569925
15.958548
15.838742
16.375780
16.326904
17.383695
18.558502
18.735528
19.697547
20.559430
21.022558
21.363497
21.608472
22.474527
22.706985
23.229718
22.754669
23.060441
22.664666
24.204850
24.212599
23.996830
23.678541
23.446679
23.477674
23.690462
23.748875
23.461580
23.287535
23.267865
23.218989
23.435950
23.108721
##ZVALUE=285
0.519753
0.666976
0.609756
0.643730
0.545979
0.745654
0.669956
0.727773
0.562668
0.634789
0.703931
0.748634
0.739694
0.951886
0.829697
1.184940
0.912547
0.904799
1.209974
1.181960
1.150966
1.173615
1.516938
1.856685
6.209612
22.437572
77.422857
161.833763
343.098640
519.227982
704.980493
950.470567
1015.879512
1015.879512
1015.879512
859.290957
675.956011
420.337915
266.248584
128.481984
69.194436
38.767457
40.321946
60.493946
79.673529
109.438896
128.750801
145.188570
151.454806
147.395730
137.729645
111.081600
88.919997
64.095855
45.657754
28.701425
21.942854
16.300678
14.232993
13.621449
13.946891
14.027953
13.747811
14.954805
14.753938
16.085505
15.274882
16.612411
17.600656
18.583536
19.132495
20.345449
20.576715
20.978451
21.600723
21.199584
22.410750
22.129416
23.274422
23.262501
23.890734
23.482442
23.342967
23.867488
23.512840
23.740530
24.087429
23.527741
23.261905
23.152828
23.244619
23.370981
23.527741
22.889972
22.447705
22.044778
##ZVALUE=290
0.597835
0.544786
0.569820
0.618696
0.717640
0.573993
0.479817
0.610948
0.655651
0.565648
0.687838
0.585914
0.720620
0.688434
0.808835
0.892878
0.780821
0.911951
1.080632
1.134872
0.919700
0.896454
1.241565
1.298785
1.432896
1.499653
2.338886
8.195639
39.127469
88.206530
201.943517
340.233445
575.993657
776.677728
996.037722
1015.889645
1015.889645
969.992876
746.878386
560.929775
334.057808
197.884440
86.405873
44.396520
27.666688
33.266544
53.138733
71.296692
97.030997
119.027495
138.120651
145.500898
141.445994
130.263567
107.677579
87.827444
58.998466
44.553876
29.628873
22.111535
16.395450
14.080405
13.476610
13.874769
14.199615
14.578700
15.495420
15.820861
16.792417
17.739534
19.151568
19.643903
20.498633
20.882487
21.546483
21.332502
22.101998
21.933913
23.307800
23.271441
23.017526
23.524761
22.712946
24.133921
23.899674
23.792982
23.351908
23.614764
23.975968
23.052692
22.669435
22.437572
22.245646
22.794604
22.308826
22.643805
##ZVALUE=295
0.644922
0.494719
0.298619
0.565648
0.461936
0.486970
0.410676
0.518560
0.558496
0.527501
0.630617
0.723600
0.644922
0.608563
0.649691
0.822544
0.790954
0.686646
0.709891
0.943542
0.825524
0.971556
1.051426
1.050830
1.055598
1.431704
1.394749
1.404881
1.710653
3.625751
13.945699
60.196519
130.302906
292.933583
457.730889
718.274713
892.981887
1015.923619
1015.923619
1010.461450
879.007578
637.171865
447.648764
238.845944
131.556988
49.361587
26.664734
22.115707
30.881763
48.981905
67.056417
92.031956
109.933615
131.390691
137.845874
134.360790
124.793649
103.072524
82.804561
59.555769
44.156909
28.533936
21.537542
16.361475
14.925599
14.236569
14.686584
15.263557
15.590787
17.143488
17.456412
18.452406
19.165874
20.086765
20.384789
21.318793
21.611452
22.903681
21.915436
22.447705
22.995472
23.052692
22.951961
23.950934
23.908615
22.821426
23.440719
23.432970
23.584962
23.002625
22.954941
22.271872
23.351908
22.928715
21.972656
22.264719
##ZVALUE=300
0.409484
0.495911
0.490546
0.409484
0.516772
0.618696
0.641942
0.525713
0.574589
0.430942
0.614524
0.456572
0.569820
0.375509
0.486970
0.778437
0.702739
0.684857
0.751615
0.815988
0.685453
0.867844
0.854731
0.948906
0.838637
1.189709
0.950694
1.156926
1.371503
1.226664
1.622438
1.940727
5.435944
35.481453
87.881684
213.094950
351.719856
593.417883
784.831643
991.630554
1015.889645
1015.889645
973.088741
742.453933
549.670458
310.707688
182.913542
80.100894
38.644671
17.865896
18.388629
28.660893
40.553808
62.627792
80.974698
104.986429
120.620728
130.984783
129.119754
118.319988
103.367567
80.386996
62.655807
43.382645
31.987429
21.481514
18.127561
15.323758
15.404820
16.043782
17.078519
17.609596
18.343925
19.445419
19.519925
19.996762
20.972490
21.466613
22.359490
22.273660
22.899508
23.024678
23.406744
23.142695
22.780895
23.556948
23.422837
23.040771
23.337603
22.862554
22.590756
22.797585
22.515655
21.961927
22.667646
22.195578
##ZVALUE=305
0.431538
0.390410
0.414848
0.473857
0.361800
0.281930
0.291467
0.501871
0.501871
0.398755
0.298619
0.619888
0.626445
0.719428
0.449419
0.651479
0.570416
0.634789
0.652671
0.543594
0.528693
0.636578
0.720620
0.622869
0.559688
0.679493
0.980496
0.866652
0.992417
0.954866
1.269579
1.292825
1.540780
1.664758
4.147887
16.211867
64.193606
139.042735
299.560428
464.133620
710.504651
887.261629
1015.843749
1015.843749
1004.386544
860.927701
621.160865
439.804792
238.226652
128.483772
48.465729
22.927523
14.153719
16.571879
27.444959
39.130449
61.372519
78.235865
99.963546
114.509463
123.570561
124.603510
113.510489
98.329782
77.388883
61.740875
43.469667
32.314658
22.273660
19.328594
17.628670
17.975569
18.496513
18.672943
19.580722
19.969940
20.677447
20.734668
22.071600
21.639466
22.857785
23.315549
23.899674
23.272634
23.438931
23.576617
23.769736
23.221970
23.356676
23.568869
23.162961
22.902489
22.745728
22.135973
22.808909
22.445917
##ZVALUE=310
0.321865
0.368953
0.309944
0.334978
0.249743
0.443459
0.247955
0.466704
0.483990
0.394583
0.524521
0.519753
0.543594
0.448823
0.335574
0.434518
0.415444
0.416636
0.283718
0.542998
0.544786
0.580549
0.652671
0.599623
0.560880
0.681877
0.818968
0.715852
0.796914
0.974536
0.780821
0.972748
1.095533
1.219511
1.329780
1.452565
1.890659
8.137822
27.136803
93.053579
181.436539
367.980003
553.783774
812.727809
974.977612
1015.888453
1015.888453
946.464539
782.172680
540.625453
359.271765
179.627538
95.483661
33.799410
16.279817
12.379885
15.448928
24.417639
34.287572
53.418875
70.155859
93.706846
107.234716
118.076801
119.316578
110.365748
97.793937
77.952743
62.652826
44.722557
34.610629
25.939941
22.073984
20.325780
19.466877
19.909739
20.080805
21.017790
21.255612
22.252798
22.999644
23.346543
22.933483
23.788810
24.007559
24.324656
23.894906
23.878813
24.055839
23.902655
23.421645
23.039579
23.052692
22.843480
23.236871
22.398829
##ZVALUE=315
0.436902
0.290871
0.343919
0.271797
0.343919
0.363588
0.439882
0.354648
0.401735
0.379682
0.377893
0.495911
0.378489
0.370741
0.392795
0.633597
0.432730
0.413656
0.511408
0.613928
0.437498
0.641942
0.590682
0.662804
0.713468
0.691414
0.678897
0.780821
0.874996
0.707507
0.825524
0.969768
0.882745
0.979900
1.046658
1.230836
1.254678
1.261830
1.527667
3.541708
13.205409
55.647492
125.824809
284.634829
452.237725
713.845491
890.474916
1015.888453
1015.888453
1011.768579
885.264874
638.254881
454.030633
240.820646
130.791664
48.640966
21.138787
11.234879
10.918975
15.642643
21.775961
35.220981
48.692822
68.608522
84.731579
103.437901
112.212896
114.466548
107.599497
93.448758
79.047680
61.119795
48.008561
35.001636
28.019547
23.241639
21.925569
21.474957
21.404624
21.842718
22.583604
23.309588
22.844672
23.735762
24.063587
24.538636
23.900867
24.701953
24.096966
24.235845
24.365783
24.061799
24.186969
24.176836
23.610592
23.347735
##ZVALUE=320
0.351667
0.316501
0.366569
0.405908
0.399947
0.254512
0.383854
0.429749
0.423789
0.404716
0.276566
0.435710
0.497699
0.545979
0.217557
0.342727
0.595450
0.290871
0.485778
0.586510
0.527501
0.472665
0.536442
0.500679
0.514984
0.540614
0.488758
0.564456
0.528693
0.567436
0.518560
0.847578
0.858903
0.853539
0.752807
0.973940
0.980496
1.015663
0.998974
1.102686
1.574755
2.082586
5.670786
31.391978
80.723763
210.247040
343.964696
566.443801
755.258799
973.121524
1015.888453
1015.888453
968.163013
746.052861
548.675656
309.193730
178.657770
76.053739
35.627484
12.971759
10.314584
11.528730
14.600754
21.348596
30.223727
48.052669
62.528849
82.299709
96.049905
108.432770
111.796856
104.907751
94.936490
76.110959
62.088966
45.994520
37.042499
29.397607
25.599599
23.617744
23.182631
23.285747
23.734570
24.192929
24.384856
24.628639
24.435520
24.346709
23.802519
24.540424
24.397969
23.899674
24.171472
24.019480
23.610592
23.275614
##ZVALUE=325
0.376701
0.357628
0.351667
0.333786
0.349879
0.304580
0.392795
0.329614
0.338554
0.370741
0.343919
0.398755
0.312924
0.427961
0.359416
0.307560
0.543594
0.452995
0.320673
0.412464
0.475645
0.472665
0.457764
0.423789
0.545979
0.593662
0.522733
0.486970
0.541806
0.618696
0.715852
0.703931
0.699759
0.819564
0.649691
0.713468
0.759959
0.866652
0.958443
0.973940
1.096725
1.118779
1.137853
1.419783
3.637671
15.116930
59.544444
127.439499
280.140638
444.062948
691.250563
864.986777
1015.889645
1015.889645
993.452668
845.821500
584.723949
404.253006
217.733979
118.289590
44.765472
19.989610
10.674596
10.090470
12.141466
14.633536
21.930933
30.709505
48.055649
63.938498
83.949566
95.062852
105.111003
106.226802
100.433826
89.938641
73.983669
60.974956
44.921637
36.851764
29.617548
26.752949
24.775863
24.126768
23.859739
23.901463
24.668574
24.363995
24.522543
24.159551
23.629665
23.822784
23.292899
23.183823
23.644567
23.753643
##ZVALUE=330
0.256896
0.452995
0.464916
0.423789
0.429749
0.382662
0.346899
0.257492
0.593662
0.061989
0.280738
0.269413
0.277758
0.281930
0.365973
0.321865
0.554919
0.466704
0.355840
0.358820
0.390410
0.517964
0.473857
0.354648
0.433922
0.277758
0.519753
0.435710
0.621676
0.419617
0.530481
0.619888
0.518560
0.471473
0.742674
0.563860
0.697970
0.751615
0.766516
0.797510
0.886917
0.896454
0.959635
1.036525
1.252890
1.300573
1.953840
6.400943
32.976866
82.907677
203.024745
337.020755
573.281646
757.953525
955.942869
1015.887856
1005.849838
899.553895
684.812665
503.722429
281.775594
161.283612
66.125989
31.237602
12.552738
10.409951
10.938644
12.359619
16.042590
22.083521
33.364892
44.979453
62.542558
76.199770
91.673732
100.286603
100.939870
97.364783
84.317923
73.788762
56.870580
47.273636
37.443638
31.733513
27.074814
24.837852
23.936629
24.203658
23.375750
23.765564
23.775697
23.185611
23.640990
23.415685
23.149848
22.736788
##ZVALUE=335
0.304580
0.452995
0.325441
0.338554
0.251532
0.440478
0.457764
0.436902
0.322461
0.363588
0.391603
0.279546
0.263453
0.422597
0.280738
0.257492
0.358820
0.225902
0.379682
0.451803
0.520945
0.291467
0.470877
0.430942
0.611544
0.622869
0.534654
0.518560
0.491738
0.450611
0.526905
0.521541
0.412464
0.562668
0.677705
0.414848
0.534654
0.661612
0.569820
0.750422
0.579953
0.683665
0.940561
0.913739
1.005530
1.047850
1.316667
1.236796
1.501441
2.941489
18.316507
51.351786
139.555931
249.877572
457.030535
650.261641
890.886784
1003.785729
1015.895605
965.997577
766.794682
584.648848
355.119705
215.200782
91.960430
43.312907
16.766787
11.475682
10.886788
12.109876
13.977885
16.797781
23.286939
31.319857
45.631528
57.544708
74.502826
85.585713
95.275640
96.905828
91.151595
84.099770
70.112944
58.965683
46.340823
38.447976
31.103492
27.869940
24.748445
23.323894
23.114681
22.599697
22.697449
22.964478
22.457838
22.100806
##ZVALUE=340
0.282526
0.141859
0.093579
0.154972
0.357628
0.194907
0.237823
0.254512
0.207424
0.267625
0.368953
0.402927
0.363588
0.355840
0.430942
0.273585
0.284910
0.222921
0.247955
0.368953
0.388622
0.328422
0.358820
0.369549
0.268817
0.493526
0.327826
0.397563
0.395775
0.540614
0.489950
0.501871
0.499487
0.527501
0.745654
0.587702
0.600815
0.640750
0.591874
0.655651
0.560880
0.532866
0.602603
0.738502
0.821948
0.708699
0.951886
0.972748
1.183748
1.036525
1.330972
1.791716
8.966923
29.568672
96.579790
189.353824
386.534929
557.724833
783.306956
922.715664
1015.888453
992.568731
835.911036
665.791035
417.051911
262.291431
121.001601
59.898496
20.771623
12.356639
11.732578
12.155771
12.945533
14.322996
17.845631
22.326708
32.107830
42.523742
58.838725
71.174502
84.128976
90.721846
91.602802
88.521838
78.770518
69.010854
55.749416
46.908855
35.528541
30.734539
25.986433
23.719668
21.976829
21.713972
21.648407
21.387935
##ZVALUE=345
0.241995
0.255704
0.218749
0.144839
0.295639
0.310540
0.444651
0.364780
0.260472
0.319481
0.240803
0.295639
0.232458
0.306964
0.268817
0.270605
0.196695
0.211596
0.253916
0.394583
0.391603
0.386834
0.283718
0.283718
0.285506
0.368953
0.290871
0.383854
0.358820
0.415444
0.323653
0.434518
0.434518
0.438690
0.413656
0.582933
0.269413
0.473857
0.567436
0.566840
0.571609
0.597835
0.652671
0.665784
0.742674
0.653863
0.760555
1.105666
0.715852
0.810623
0.810623
1.090765
1.343489
1.404881
2.983809
19.737482
55.494905
146.784782
259.759426
471.691489
645.254850
855.580568
961.102843
979.899764
905.388594
708.494782
524.866581
300.330520
173.417926
74.453950
34.897923
14.921427
11.710525
12.153983
12.294650
13.517737
14.742613
17.655492
22.214651
31.380653
39.787889
55.506825
66.240430
77.993870
83.219409
85.394979
83.251595
74.331760
65.427423
54.036975
44.461489
35.194755
29.670596
24.842620
22.730827
21.313429
##ZVALUE=350
0.301600
0.226498
0.274777
0.247955
0.277758
0.133514
0.299811
0.360608
0.265837
0.379682
0.362992
0.358820
0.478625
0.144839
0.272989
0.317693
0.361800
0.376701
0.220537
0.398755
0.148416
0.269413
0.287890
0.278950
0.249743
0.481606
0.265837
0.319481
0.393987
0.349879
0.286698
0.413656
0.513792
0.409484
0.506639
0.548959
0.468493
0.529885
0.421405
0.546575
0.473857
0.538826
0.611544
0.644922
0.649691
0.767708
0.725985
0.692606
0.704527
0.700951
0.658631
0.869632
0.855923
1.067519
1.240969
1.249909
1.893640
10.097623
31.829476
98.271966
187.672973
372.151732
537.675619
746.626854
881.553888
960.015655
916.749835
767.315626
594.377518
359.602571
219.438672
97.191930
46.253800
17.083883
12.248755
11.466742
11.799932
12.145638
12.955666
15.147924
17.031431
22.511482
28.107762
37.608743
46.549439
59.315562
67.731738
76.115727
78.746676
76.349974
71.214437
60.673952
52.206516
40.946603
33.631921
27.363896
##ZVALUE=355
0.169873
0.316501
0.156760
0.267625
0.311732
0.245571
0.279546
0.422597
0.381470
0.269413
0.310540
0.309944
0.300407
0.310540
0.247955
0.291467
0.285506
0.395775
0.362992
0.337958
0.254512
0.501871
0.329614
0.374913
0.272989
0.304580
0.418425
0.302792
0.345707
0.394583
0.428557
0.585914
0.358820
0.540614
0.429749
0.459552
0.492930
0.647902
0.577569
0.556707
0.402927
0.530481
0.577569
0.517964
0.458956
0.770688
0.564456
0.577569
0.569820
0.585914
0.625849
0.796914
0.815988
0.875592
0.974536
0.971556
1.259446
1.214743
1.472831
4.544854
16.766787
66.030622
135.455728
281.562805
440.637469
674.030781
818.130970
926.511884
926.126838
797.501802
648.216605
434.781909
275.726914
123.775601
60.498714
22.028685
13.059974
11.232495
11.333823
11.359453
12.135506
12.928843
14.251471
15.953779
19.437671
25.661588
32.088757
43.048859
51.167607
60.965419
68.082809
71.064830
70.390701
64.607859
58.561563
48.578978
##ZVALUE=360
0.312924
0.252724
0.254512
0.371933
0.320673
0.279546
0.187755
0.247955
0.304580
0.303984
0.312924
0.307560
0.255704
0.228882
0.373721
0.409484
0.294447
0.276566
0.238419
0.276566
0.407696
0.501871
0.338554
0.431538
0.389814
0.250936
0.398755
0.319481
0.490546
0.419617
0.345707
0.592470
0.448823
0.539422
0.487566
0.561476
0.569820
0.400543
0.515580
0.510812
0.487566
0.527501
0.639558
0.509620
0.444651
0.599623
0.590682
0.440478
0.535846
0.514984
0.687838
0.745654
0.631809
0.832677
0.911951
0.941753
0.812411
1.115799
1.195669
1.293421
1.340508
2.322793
7.675886
35.204887
85.475445
206.688643
339.330435
546.889901
713.475943
877.548456
916.564465
854.975581
726.760030
503.607988
337.314606
167.682767
88.923573
34.588575
16.342998
10.496974
10.249615
10.852814
10.836720
11.349916
11.808872
12.394786
13.696551
16.458631
20.545721
27.375817
34.788847
45.106411
52.867532
61.245561
64.002872
63.837767
##ZVALUE=365
0.366569
0.323653
0.389814
0.266433
0.345707
0.311732
0.324845
0.400543
0.224710
0.387430
0.284910
0.295639
0.234842
0.413656
0.232458
0.214577
0.270605
0.288486
0.230670
0.451803
0.481606
0.329614
0.503659
0.405908
0.400543
0.433922
0.497699
0.386834
0.364780
0.403523
0.385642
0.282526
0.488758
0.387430
0.338554
0.435710
0.509620
0.315905
0.375509
0.311732
0.478625
0.523925
0.547767
0.556707
0.537634
0.658631
0.686646
0.577569
0.609756
0.459552
0.607967
0.700951
0.647902
0.840425
0.699759
0.647902
0.871420
0.739694
0.911951
1.001954
1.154542
1.343489
1.356602
1.615882
3.527999
20.013452
53.216815
138.492584
253.220797
460.828543
619.605780
797.261000
883.154869
869.416595
771.245956
567.547679
407.250524
227.440596
125.061870
46.833754
20.513535
10.020733
9.188652
8.999705
9.730458
9.652972
9.698868
10.094643
10.638833
11.786819
13.795495
18.024445
22.884607
30.828714
37.956834
47.308803
##ZVALUE=370
0.144839
0.261664
0.309944
0.176430
0.315905
0.264645
0.298619
0.352859
0.340939
0.362992
0.339746
0.301600
0.435710
0.345707
0.336766
0.160933
0.355840
0.313520
0.324845
0.391603
0.453591
0.270605
0.179410
0.285506
0.478625
0.375509
0.365973
0.231862
0.476837
0.391603
0.330806
0.408888
0.331998
0.259876
0.339746
0.362992
0.339746
0.512600
0.408888
0.402927
0.461936
0.482798
0.701547
0.408888
0.507832
0.505447
0.429749
0.480413
0.370741
0.608563
0.655651
0.514984
0.403523
0.662804
0.645518
0.561476
0.639558
0.678897
0.734925
0.775456
0.849962
0.987649
1.067519
1.122952
1.150966
1.268983
2.009869
9.508729
32.788515
105.654597
195.496678
365.899801
531.475544
744.439960
848.660469
878.491998
813.030005
639.469028
475.984812
268.875957
152.050853
61.037540
28.886795
12.237430
8.573532
8.446574
8.364916
8.462667
8.589625
8.787513
8.959770
9.556413
10.831952
12.901425
15.373826
20.712614
##ZVALUE=375
0.230670
0.154972
0.224710
0.166893
0.282526
0.239611
0.280738
0.337958
0.339746
0.299811
0.283718
0.232458
0.315905
0.291467
0.146627
0.198483
0.254512
0.270605
0.275970
0.271797
0.221729
0.286698
0.429749
0.364780
0.182986
0.390410
0.382662
0.324845
0.319481
0.213981
0.331998
0.439882
0.457764
0.339746
0.236630
0.347495
0.314713
0.360608
0.443459
0.339746
0.413656
0.477433
0.334978
0.364780
0.539422
0.296831
0.471473
0.388622
0.340939
0.424981
0.426769
0.462532
0.571609
0.487566
0.558496
0.430942
0.512600
0.568628
0.688434
0.618696
0.833869
0.727773
0.724792
0.857711
0.947714
1.009703
0.975728
1.164675
1.559854
4.053712
22.652745
57.454705
147.956610
263.513923
468.373895
625.920892
804.095864
876.582861
846.560001
737.865567
530.009866
374.667645
212.381482
119.996667
47.898889
21.577477
9.196997
7.489920
7.515550
7.495880
7.711649
8.010864
8.066893
8.397698
8.788705
9.281635
##ZVALUE=380
0.162721
0.148416
0.236630
0.155568
0.024438
0.261664
0.250936
0.169873
0.273585
0.252724
0.313520
0.241995
0.190735
0.266433
0.263453
0.315905
0.297427
0.369549
0.157952
0.157952
0.233650
0.400543
0.143647
0.217557
0.286698
0.282526
0.184774
0.233650
0.322461
0.209808
0.259876
0.302792
0.320673
0.307560
0.474453
0.316501
0.398755
0.363588
0.373721
0.349879
0.275970
0.390410
0.348687
0.430942
0.245571
0.465512
0.389814
0.418425
0.510812
0.551939
0.479817
0.413656
0.387430
0.468493
0.415444
0.521541
0.373721
0.589490
0.547767
0.514984
0.307560
0.610948
0.484586
0.664592
0.657439
0.788569
0.842810
0.990629
1.109838
1.105666
1.501441
2.297759
8.577704
43.619871
101.095438
234.597921
375.314951
580.371618
732.878447
861.809850
870.872736
759.747028
627.747774
443.538427
299.369693
148.561001
76.468587
27.451515
12.827516
7.212758
6.853938
6.945729
6.932616
7.209778
7.394552
7.334948
##ZVALUE=385
0.218749
0.233650
0.029802
0.222921
0.265837
0.140667
0.399947
0.106692
0.266433
0.161529
0.124574
0.063777
0.162721
0.340939
0.298619
0.246763
0.246763
0.153780
0.217557
0.129938
0.168681
0.250936
0.145435
0.311732
0.169873
0.253916
0.348687
0.189543
0.341535
0.205636
0.263453
0.229478
0.360608
0.241995
0.298619
0.290871
0.323653
0.458956
0.314713
0.400543
0.345707
0.262856
0.310540
0.416636
0.263453
0.283718
0.344515
0.358820
0.355840
0.270605
0.372529
0.318885
0.467896
0.491738
0.497699
0.280738
0.424981
0.334978
0.435710
0.592470
0.621676
0.519753
0.513792
0.455976
0.549555
0.805855
0.693798
0.841618
0.583529
0.962615
1.057982
1.102686
1.196861
1.545548
4.099011
24.055839
62.372684
157.771707
276.173949
487.119555
647.647977
812.195539
858.607888
820.730925
726.806521
536.061525
380.827785
208.121538
118.278861
49.299002
20.977855
7.786751
6.342530
6.150603
6.265640
6.504655
##ZVALUE=390
0.136495
0.118613
0.107884
0.073910
0.015497
0.042915
0.204444
0.255704
0.068545
0.153780
0.172853
0.181794
0.046492
0.074506
0.252724
0.197887
0.163913
0.221729
0.082850
0.025630
0.221729
-0.008941
0.005960
0.199676
0.160933
-0.065565
0.105500
0.146627
0.204444
0.197887
0.229478
0.254512
0.203848
0.119805
0.289679
0.329614
0.275970
0.213981
0.252724
0.242591
0.168681
0.213981
0.127554
0.219941
0.380874
0.513792
0.255704
0.265837
0.326633
0.352859
0.466704
0.342727
0.264645
0.302792
0.328422
0.490546
0.466704
0.553727
0.160933
0.287890
0.438690
0.424981
0.431538
0.412464
0.536442
0.440478
0.551939
0.598431
0.684857
0.792742
0.923872
0.925660
0.828505
0.882745
1.047850
0.989437
2.099872
12.556911
39.220452
119.862556
225.593448
416.886806
568.246841
737.037659
830.648541
863.443017
803.732872
640.302896
489.449501
298.380852
175.150633
71.329474
32.842755
10.554790
6.514788
5.731583
##ZVALUE=395
0.194907
0.205636
0.166893
0.078678
0.040531
0.096560
0.154972
0.104904
0.204444
0.165701
0.277758
0.178814
0.301600
0.206828
0.298619
-0.010729
0.111461
0.225902
0.231862
0.223517
0.230670
0.215769
0.076890
0.317693
0.268817
0.175834
0.250936
0.381470
0.238419
0.236630
0.303984
0.435710
0.302792
0.359416
0.332594
0.261664
0.382662
0.196695
0.185966
0.454783
0.354648
0.226498
0.375509
0.359416
0.377893
0.341535
0.350475
0.457764
0.375509
0.451803
0.404716
0.283718
0.280738
0.335574
0.371933
0.326633
0.377893
0.448823
0.534654
0.399947
0.489950
0.354648
0.499487
0.493526
0.400543
0.625849
0.580549
0.663996
0.665784
0.797510
0.969768
1.002550
0.808835
0.882745
0.887513
0.944734
1.055598
1.204610
1.320839
6.507635
24.343729
85.918903
167.640448
329.011679
480.926633
687.468648
813.450813
896.222591
872.899890
744.396448
590.089560
367.316008
233.730674
110.216737
52.581429
17.940998
##ZVALUE=400
0.104904
0.059605
0.273585
0.106692
0.250936
0.119805
0.125766
0.216961
0.108480
0.100732
0.242591
0.082850
0.001788
0.173450
0.074506
0.110865
0.099540
0.151992
0.244975
0.144839
0.166893
0.129938
0.238419
0.179410
0.195503
0.174642
0.219941
0.056624
0.281930
0.200868
0.236630
0.182986
0.448823
0.260472
0.306964
0.267625
0.270605
0.218749
0.238419
0.287890
0.311732
0.251532
0.202656
0.189543
0.294447
0.410676
0.319481
0.151992
0.197887
0.239611
0.241995
0.169873
0.411868
0.422597
0.252724
0.313520
0.405908
0.258684
0.270605
0.143647
0.517964
0.309944
0.338554
0.195503
0.488758
0.554919
0.549555
0.505447
0.541806
0.682473
0.832677
0.840425
0.642538
0.763535
0.761747
0.663996
0.710487
0.712872
0.804663
0.893474
1.168847
3.550649
13.179779
49.409866
107.448697
238.849521
380.961895
589.433908
724.335909
846.273899
862.904787
768.463016
640.105009
444.764495
294.482708
149.198771
##END
