##TITLE=QP00351
##FORMAT=SPECTACLE-ASCII V-1.2
##DATA TYPE=ULTRAVIOLET SPECTRUM
##SECOND TYPE=ULTRAVIOLET SPECTRUM
##DATE=02/05/18
##TIME=14:37:32
##SPECTROMETER/DATA SYSTEM=SPECTACLE
##XUNITS=NM EM
##YUNITS=ENERGY
##YFACTOR=1
##FIRSTX=220
##LASTX=410
##NPOINTS=96
##3DDATA=Equidistant
##ZUNITS=NM EX
##FIRSTZ=210
##LASTZ=400
##ZPOINTS=39
##XYDATA=(Y..Y)
##ZVALUE=210
2.072453
2.524853
2.044439
2.552867
2.239943
2.214909
2.357960
2.803802
2.702475
2.275705
2.255440
2.186894
2.419949
2.529621
2.259612
2.204776
2.626777
2.863407
2.703667
2.867579
2.905726
3.399849
3.307462
3.480911
3.989935
3.527999
3.826618
4.154444
4.248619
3.658533
4.808903
4.585981
4.376769
5.197525
4.410744
5.321503
4.280806
5.502701
4.632473
4.997849
5.206466
5.094409
4.876852
5.383492
5.823970
5.653501
5.797744
6.036758
4.911423
5.400777
6.127954
5.554557
5.706549
7.131696
5.958676
6.200671
6.511807
6.286502
5.954504
6.099939
5.785823
6.058812
6.442666
6.506443
6.779432
6.118417
8.430481
8.622408
9.735823
11.522770
12.558699
13.111830
15.145540
15.778542
16.902685
18.091798
18.907785
20.130873
19.039512
19.061565
18.624663
15.996695
14.417768
12.352467
9.997487
8.060932
7.120967
7.034540
6.937981
5.310774
6.086826
5.918741
6.517768
7.013679
6.249547
6.122589
##ZVALUE=215
6.176829
5.812645
5.675554
4.692674
4.513860
4.365444
4.479885
4.563928
5.277991
4.234910
4.351735
4.508495
3.493428
3.146529
3.281832
2.281666
2.744794
2.293587
3.389716
2.937913
3.263950
2.935529
3.769994
3.287792
3.716946
4.188418
4.231930
3.310442
4.628897
4.556775
4.284978
4.848838
4.542470
5.270839
4.669428
5.067587
5.562901
4.298687
5.392432
5.924702
5.375743
5.534887
5.307794
4.962683
5.774498
5.733967
5.487800
5.083680
5.322695
5.346537
5.949736
6.323457
5.752444
6.430745
5.747676
5.843639
5.698800
6.085634
5.873442
5.212426
5.849600
5.975962
6.627440
5.884767
6.063581
6.881952
7.809997
8.316636
7.712841
8.860826
10.453463
13.205409
13.741851
15.223622
16.534925
17.335415
16.641617
16.635656
16.513467
15.480518
14.195442
13.605952
11.858940
10.820627
8.430481
7.443428
5.931854
5.799532
5.007982
5.519986
5.272627
4.692674
4.917979
5.744696
6.082654
6.139874
##ZVALUE=220
22.711754
22.104979
24.046898
23.110509
21.893978
17.981529
15.590787
11.049509
10.511875
9.801984
10.225773
12.100935
11.739731
9.445548
9.102821
6.852746
5.696416
5.438924
3.850460
3.211498
4.108548
3.471971
3.751516
3.745556
4.495978
4.025698
4.526973
4.497766
4.929900
4.569888
5.075932
4.568696
5.956888
5.367994
5.339980
6.522536
5.613565
4.950762
5.793571
5.814433
5.697608
5.105734
4.745722
6.052852
5.992651
6.316900
6.104708
5.713701
6.077886
6.175637
5.994439
5.890727
7.192492
6.546974
6.307960
5.869865
5.911589
6.412864
6.440878
6.131530
6.507635
7.540584
6.527901
6.758571
7.088780
8.498430
7.347465
8.401871
8.801818
9.827614
13.653636
13.583899
15.201569
15.937686
16.332865
17.948747
18.505454
17.671585
19.124746
17.739534
16.252995
15.567541
13.960600
13.562441
11.123419
9.857416
7.952452
6.994605
5.915761
6.054640
6.325841
6.465912
6.266832
6.283522
6.012917
6.140471
##ZVALUE=225
38.863420
41.124821
53.652525
69.452524
74.548721
71.680546
71.850419
51.893592
39.553642
31.997561
23.588538
21.833777
24.012923
24.078488
25.262833
23.870468
18.971562
15.827417
14.333725
8.955598
6.310940
4.165769
4.481673
4.576445
5.252957
5.071759
4.669428
4.270673
5.363822
5.644560
5.221963
5.976558
5.892515
6.248951
5.673766
6.656647
5.842447
6.318688
5.222559
6.557703
6.103516
7.598996
6.132722
7.008910
5.728602
6.219745
5.146861
6.520748
6.520748
6.619692
6.967783
6.006956
6.840825
6.638765
7.853508
6.788969
6.678700
7.525682
7.343888
7.256866
8.594990
7.352829
6.647706
7.666945
7.930994
8.541942
9.440780
9.600520
10.458827
12.806654
13.092756
14.723539
15.104413
14.637709
16.759634
17.422438
18.851757
18.705726
16.333461
16.865730
14.959574
14.487505
13.570786
10.612607
10.836720
8.571744
9.386539
9.134412
7.526875
7.497668
7.622838
6.804466
7.610917
7.812977
7.352829
7.255673
##ZVALUE=230
36.256909
39.241910
62.177777
101.988912
131.666660
159.945488
177.654624
180.968642
159.526467
139.147639
91.807842
68.991780
52.956939
43.442845
42.598844
47.606826
51.746964
49.013495
44.497848
37.285686
29.011965
18.844604
12.875795
8.007884
6.017685
5.148649
5.787611
6.579757
5.367994
7.192492
6.550550
7.213950
6.670952
7.612705
7.126927
7.241964
7.512569
7.189512
6.464720
6.719828
6.374717
6.867647
7.374883
7.523894
6.059408
6.494522
6.322861
7.656813
7.498860
6.519556
6.551743
7.582903
7.398725
7.872581
8.513927
7.002950
7.170439
7.856488
7.850528
7.723570
8.123517
7.962584
9.582639
8.834600
9.620786
9.546876
9.683967
9.792447
10.858774
11.954904
12.851954
12.646914
15.132427
16.335845
16.518831
17.909408
17.239451
16.121864
16.305447
14.684796
14.878511
12.911558
12.470484
11.867881
10.794997
10.732412
10.285974
11.421442
10.206699
8.645654
10.791421
10.185838
10.860562
9.896755
10.012984
9.133816
##ZVALUE=235
11.760592
14.000535
29.901862
72.656870
119.333863
188.554525
248.628855
328.587890
359.117985
357.099771
311.946869
254.169703
179.081559
125.872493
87.224841
71.919560
70.863962
76.802969
81.951618
80.745816
80.150962
62.723756
49.844980
34.585595
25.551915
14.921427
10.826588
7.779598
7.200837
6.503463
6.371737
7.342696
7.955432
7.366538
6.750822
7.099509
7.711649
7.508993
7.110834
7.663965
6.543994
6.846786
6.902814
6.856918
6.874800
7.253885
7.245541
7.507801
6.756783
7.715821
7.939935
7.562637
7.250905
7.714629
7.586479
8.503795
7.989407
8.550882
9.180903
8.112788
9.784698
8.230805
8.859634
10.038614
9.373426
10.355711
9.805560
11.784434
12.612939
14.816523
14.242530
15.224814
17.557740
19.915700
19.060969
18.887520
19.320846
18.799901
19.832850
17.211437
16.459823
17.902851
16.492605
15.354753
13.460517
14.765859
14.489889
13.868809
13.848543
13.387799
14.167428
13.416409
13.194680
12.952685
12.540817
12.534857
##ZVALUE=240
2.101660
1.922846
6.184578
17.742515
47.866702
87.312460
179.139972
279.418826
416.514874
506.805778
574.000478
579.607487
528.066754
423.988700
330.131650
207.828879
149.549842
110.232830
94.816685
101.649761
112.474561
115.645528
111.896992
103.605986
80.163479
66.560507
48.064590
34.352541
22.389889
15.286803
12.672544
10.148883
9.976625
9.778738
8.701682
9.056926
9.539723
9.140968
8.143783
8.133650
7.414818
7.557869
7.829666
8.120537
6.962419
9.168983
8.300543
8.494854
7.229447
7.799864
9.285808
7.363558
8.433461
7.857680
8.566976
8.740425
9.662509
9.498000
10.765791
9.836555
10.022521
10.882616
10.634661
10.953546
11.290908
11.772513
13.488531
13.998747
16.280413
17.342567
18.284917
21.286607
19.683838
21.624565
23.222566
23.944974
25.489926
25.001764
24.234653
24.708509
22.103786
21.964908
20.633936
20.383000
21.061897
17.195940
18.587708
19.358993
18.429756
18.094778
18.886924
17.523766
18.671751
15.056729
17.745495
16.287565
##ZVALUE=245
1.818538
1.383424
1.829863
2.033710
3.413558
13.952851
35.616755
96.309781
181.234479
289.573669
493.736863
656.376481
797.547698
829.295516
789.915919
688.809752
502.755642
383.941531
263.129473
148.103833
112.246871
103.672743
115.256906
126.519799
132.138729
132.880807
115.114450
97.073913
78.177452
55.246949
38.591623
22.948980
18.655658
13.436675
11.018515
10.363460
11.319518
9.032488
9.414554
8.227825
8.220673
8.248687
8.333921
8.008480
7.632971
6.833673
6.541610
7.266998
7.337928
7.374883
6.692410
7.391572
8.490682
7.674694
8.603930
8.339882
7.773638
8.740425
9.578466
8.770823
10.285974
9.846687
9.682775
10.420680
11.271834
11.163950
13.011694
13.036728
14.218688
13.872981
15.598536
18.944740
19.170642
20.996928
21.499991
23.824573
24.905801
22.954941
23.194551
23.149848
22.284985
20.786524
19.317865
19.582510
19.128919
19.039512
18.529892
17.933846
18.281937
17.689466
17.487407
17.690659
17.063618
17.585754
16.857982
17.174482
##ZVALUE=250
1.588464
1.479983
1.548529
1.603961
1.701713
2.221465
2.522469
7.839799
32.033920
69.844723
171.583891
292.596817
446.400642
685.616732
837.591887
970.283747
985.585451
891.771913
760.049820
522.098541
353.932977
229.620934
125.809908
103.856921
106.202960
124.507546
140.469670
143.748522
136.750937
126.233697
109.975934
81.201792
61.747432
39.827824
27.304888
15.538931
12.394786
9.892583
9.730458
9.664893
8.602738
8.129478
8.102655
7.504821
6.545782
7.196665
7.490516
7.098913
6.818771
7.236600
7.265806
6.292462
7.279515
6.921887
6.950498
7.829666
6.953478
7.553697
7.600784
7.719994
7.972717
8.742809
8.067489
8.638501
8.602738
9.563565
10.291934
10.787845
11.843443
12.429953
13.026595
14.066696
16.008615
18.218756
19.167662
18.753409
19.477606
18.658638
18.132925
17.982721
17.514825
17.567873
16.388893
15.946627
17.147660
16.987920
15.941858
16.093850
16.169548
16.293526
16.340613
16.218424
16.261935
16.063452
15.588999
16.416907
##ZVALUE=255
1.272559
1.135468
1.107454
1.317859
1.119971
1.382828
1.477599
1.408458
1.712441
4.456639
19.184947
50.660968
131.311417
225.734711
394.557714
539.539456
732.987523
825.106502
866.721869
812.332034
711.854696
523.251891
379.625559
218.904614
139.135718
94.916821
91.234446
111.068487
127.223730
143.246651
148.945451
143.534541
127.788782
104.430914
82.743764
54.426789
39.244890
21.497607
14.946461
9.237528
6.931424
6.825924
5.873442
5.774498
5.267859
5.421638
5.668998
5.062819
5.475879
5.097985
5.117655
5.305409
5.232692
5.478859
5.388856
5.584955
5.670786
5.672574
6.024837
6.170869
6.392598
6.358624
6.599426
6.607771
7.204413
8.223653
7.767677
7.897615
8.622408
9.628534
11.200905
12.582541
11.674762
13.020635
12.453794
13.767481
14.434457
13.911724
14.467835
14.720559
14.016628
14.247894
13.990998
13.283491
14.280677
13.777614
14.103651
13.568997
14.015436
13.629794
14.061928
13.122559
14.602542
14.600754
14.465451
14.638901
##ZVALUE=260
0.962615
1.019835
0.911951
1.038909
0.744462
0.948906
1.043677
1.164675
1.013875
1.377463
1.391768
2.555847
9.488463
39.474964
86.486936
197.669864
322.172642
525.749922
690.627694
868.285894
954.124928
960.457921
840.894580
696.361661
460.317731
313.916802
179.412961
114.389658
81.869960
85.194707
108.054876
127.554536
143.085718
154.193640
149.989724
129.759908
109.183788
82.659721
60.471892
35.768747
23.978949
13.187528
7.935762
5.511642
5.081892
4.434586
5.061626
4.934669
4.776716
5.332828
5.139709
4.511476
4.853606
4.752874
4.376769
4.984736
4.924536
4.944801
5.679727
5.570650
5.692840
5.347729
5.817413
5.674958
6.073713
6.351471
6.533861
7.358789
8.036494
8.323789
9.110570
9.282827
10.543466
11.532903
11.403561
11.807680
11.443496
12.443662
11.713505
12.355447
13.140440
12.488961
12.141466
12.498498
12.415648
12.228489
11.936426
12.690425
12.301803
12.273788
12.663603
12.441874
12.486577
12.467504
12.933612
13.360977
##ZVALUE=265
0.694990
0.983477
0.999570
1.014471
0.821948
1.021624
0.989437
0.853539
1.152754
1.036525
1.336932
1.326799
1.632571
1.916885
4.059672
23.221970
56.743622
147.875547
259.688497
478.392839
672.850013
842.633843
1010.944843
1015.888453
956.794620
822.271705
608.309507
427.784920
234.968662
146.564841
94.940662
70.503950
80.733895
111.289620
133.064985
150.583982
154.664516
145.720840
131.882429
104.863644
81.256628
54.969788
36.641955
19.941926
12.448430
7.442832
5.918741
4.901886
4.877448
4.822612
5.013943
4.822612
4.768968
5.309582
4.810691
5.264878
5.361438
5.013943
6.003976
5.811453
5.832911
5.620718
5.356669
6.161928
5.874634
5.968809
6.454587
7.412434
7.626414
8.268952
8.720756
9.789467
10.471940
10.203719
10.976791
10.738969
10.626912
11.268854
11.082888
10.410547
11.181831
12.099743
11.417866
11.576414
11.363626
11.683702
11.371970
11.335611
11.358857
11.046529
12.553930
11.700988
12.218952
12.000799
12.062788
12.026429
##ZVALUE=270
0.894666
0.790954
0.818968
0.872612
0.827909
0.638962
0.988841
1.125932
0.963807
1.176596
1.008511
1.397729
1.096725
1.565814
1.560450
1.619458
2.422929
11.392832
34.297705
109.116435
209.110975
353.226662
623.878837
835.157633
1015.889645
1015.889645
1015.889645
986.519456
764.138699
574.448705
415.420532
210.839510
117.611885
63.297749
61.691999
84.661841
108.025670
133.065581
147.930980
156.589746
150.404572
129.904747
108.921528
78.764558
56.723952
35.221577
22.348762
12.164712
8.201599
6.147623
5.409718
4.985929
5.457997
5.378723
5.823970
5.414486
5.417466
5.748868
5.682707
5.845428
6.258488
5.753636
5.644560
5.832911
6.163716
6.402731
6.692410
7.049441
7.277727
8.480549
8.819699
9.902716
9.416938
10.343790
10.806918
10.493994
11.136532
10.479689
10.198951
10.913610
10.928512
10.868907
10.160804
10.300875
10.150671
10.793805
10.342598
10.650754
10.752678
10.386705
10.446906
10.869503
11.108518
10.353923
10.932684
11.335611
##ZVALUE=275
0.534654
0.652671
0.649691
0.687838
0.809431
0.564456
0.851750
0.843406
0.826716
1.061559
1.000762
1.008511
1.043677
1.112819
1.045465
1.196861
1.458526
1.449585
1.603961
4.971623
18.858910
53.354502
160.911679
309.162736
577.911735
792.317986
1012.248993
1015.842557
1015.842557
1015.842557
936.548710
733.168721
453.982949
280.900598
132.550001
75.994730
49.613714
56.684613
83.775520
103.407502
130.876899
145.906806
152.464509
148.950815
127.851963
108.995438
79.492927
59.239864
36.214590
23.660660
12.455583
9.146929
6.568432
5.586743
5.448461
5.411506
5.949736
5.822778
5.622506
5.729795
6.127954
6.356835
6.017685
6.118417
6.522536
6.708503
6.702542
7.463694
7.477999
7.753968
8.800626
9.232759
9.836555
10.283589
10.279417
10.055900
10.240674
10.583997
10.257959
10.216832
10.183454
9.821653
10.323524
9.624958
9.340644
9.977818
10.209680
9.886622
9.410977
9.821653
9.426475
9.873509
9.846687
9.902716
10.541677
10.269880
##ZVALUE=280
0.555515
0.566840
0.591874
0.672936
0.519753
0.784993
0.682473
0.646710
0.983477
0.904799
1.000762
0.852942
1.122952
0.886917
1.186728
1.017451
1.156926
1.236796
1.338720
1.498461
1.616478
2.548695
12.407899
41.170716
129.607916
240.184665
456.293821
670.449734
961.392522
1015.888453
1015.888453
1015.888453
1015.888453
832.648873
610.703826
338.765979
198.271871
87.055564
50.414801
41.866899
54.562688
80.417991
103.685856
131.077766
143.416524
148.961544
142.772794
124.893785
107.928514
78.206658
58.241487
34.923553
24.341941
13.546944
9.014606
6.425977
5.923510
5.840659
5.635619
5.974770
6.124973
6.235838
6.312728
6.287694
6.472468
6.980896
7.498860
7.194877
7.283688
7.469654
8.536577
8.803606
8.668900
9.585619
9.489655
9.454489
9.968877
8.912683
9.647608
9.495616
9.089708
9.159446
8.531809
8.884668
9.473562
9.641647
9.035468
9.220839
9.151697
9.729862
9.626746
9.142756
8.960962
9.632707
9.342432
9.667873
##ZVALUE=285
0.684857
0.651479
0.741482
0.596642
0.717640
0.611544
0.695586
0.647902
0.702739
0.783801
0.804663
0.623465
0.815988
0.925660
0.905991
0.883937
0.856519
1.084805
1.072884
1.148582
1.480579
1.508594
1.740456
1.761913
6.082654
22.070408
75.722933
156.722665
337.736011
522.624850
800.765753
1001.770496
1015.888453
1015.888453
1015.888453
986.273885
763.697028
470.462441
289.288759
132.968426
67.551732
34.990907
35.122633
54.038763
73.987842
102.401972
121.779442
140.439868
148.099661
142.613649
127.527714
107.106566
85.037947
58.279634
39.946437
23.243427
15.589595
9.515882
7.582903
6.558895
6.183982
6.201863
6.436706
6.532669
6.813407
7.013679
7.095933
7.624626
7.729530
8.095503
8.443594
9.005666
9.062886
9.457469
9.492636
9.049773
9.134412
8.905530
9.247661
8.897781
8.961558
8.895993
9.573698
9.167790
9.186864
8.847713
8.534789
9.385943
9.219646
8.760691
8.634925
9.001493
9.134412
8.961558
9.082556
8.798838
##ZVALUE=290
0.720620
0.692606
0.666976
0.559688
0.542998
0.703931
0.617504
0.647902
0.735521
0.605583
0.843406
0.830889
0.628829
0.893474
0.843406
0.743866
0.854731
0.964999
0.802875
1.031756
1.021624
1.297593
1.371503
1.422763
1.444817
1.770854
2.554655
8.449554
42.447448
101.644397
199.311972
415.787697
642.647743
950.852633
1015.888453
1015.888453
1015.888453
1015.888453
883.568525
582.373738
377.659798
183.390975
92.910528
37.094951
25.323629
34.198761
48.391819
71.834922
93.089938
120.318532
132.203698
141.173601
140.970945
124.055743
105.684996
78.701973
57.388544
37.331581
25.534630
14.905930
10.996461
8.050799
7.307529
7.356405
6.830692
7.040501
7.271767
7.716417
7.715821
8.486509
8.543730
8.984804
8.770823
9.421706
9.096861
9.160638
9.071827
9.017587
9.296536
8.901954
9.018779
9.399652
9.652972
8.860826
9.258986
8.936524
8.954406
9.190440
9.159446
8.975863
9.029508
8.505583
8.620620
8.735657
8.629560
8.952618
##ZVALUE=295
0.583529
0.551939
0.464916
0.742674
0.744462
0.500679
0.614524
0.667572
0.583529
0.588894
0.627637
0.701547
0.560880
0.835657
0.642538
0.721812
0.626445
0.853539
0.779629
0.922680
0.974536
0.970960
0.983477
1.091957
1.252890
1.176596
1.432896
1.550913
1.972914
3.990531
21.664500
62.987804
144.647956
336.288810
540.734529
861.607790
1015.889645
1015.889645
1015.889645
1015.889645
1004.227996
724.128485
488.326550
248.766541
136.029720
50.623417
26.005507
21.930933
28.943419
47.297478
64.627528
91.463923
109.797716
129.422545
134.922862
131.398439
120.808482
98.190904
79.119802
56.598783
40.804744
24.764538
17.045736
11.361837
9.037852
8.189678
7.454753
7.762909
7.908940
8.257627
8.722544
8.936524
9.104609
9.627938
9.320974
9.397864
9.977818
9.018779
9.277463
9.404421
9.344816
8.908510
9.578466
9.112954
9.084940
9.260774
8.707643
9.248853
8.886456
8.703470
8.602738
8.992553
8.935928
8.565784
8.320808
8.505583
##ZVALUE=300
0.528693
0.413656
0.385642
0.479817
0.541806
0.567436
0.436902
0.610948
0.610948
0.753999
0.666976
0.614524
0.634789
0.616908
0.781417
0.502467
0.733733
0.754595
0.674725
0.545979
0.908971
0.952482
0.975728
0.768900
0.945926
1.035929
1.373887
1.309514
1.276731
1.482964
1.609921
2.079606
8.806586
30.509830
106.925964
216.975808
452.226996
689.790845
994.538665
1015.888453
1015.888453
1015.888453
1015.888453
899.123549
580.720901
369.957685
181.256533
95.854998
35.249591
18.381476
18.690825
26.688576
42.838454
58.837533
83.502531
102.485418
122.728944
128.065944
127.624869
118.193626
99.429488
80.183744
57.992935
41.573644
25.781989
18.155575
11.744499
9.819865
8.285642
8.626580
8.593798
8.703470
9.129643
9.171963
9.263754
9.305477
9.480715
9.581447
9.694695
9.121895
9.154677
9.300709
9.447932
9.292960
9.196997
8.804798
9.035468
8.958578
8.962750
8.968711
8.800626
8.978844
8.581877
8.626580
8.804798
8.132458
##ZVALUE=305
0.425577
0.441670
0.516772
0.537634
0.387430
0.511408
0.258684
0.483990
0.463724
0.452995
0.567436
0.626445
0.585914
0.724792
0.589490
0.657439
0.770688
0.717640
0.859499
0.683665
0.621676
0.590682
1.026988
0.798702
0.825524
1.006722
0.927448
1.136661
1.189709
1.095533
1.085997
1.355410
1.484752
1.954436
3.534555
22.304654
62.308908
181.453824
329.362750
611.827970
856.982470
1015.892625
1015.892625
1015.892625
1015.892625
974.997878
749.225020
468.688607
287.681818
127.028823
60.865879
21.981001
14.374852
18.186569
25.563836
41.700602
58.083534
80.984831
98.190904
116.017461
120.527744
121.713877
112.421513
94.743967
78.884959
55.114627
40.059686
24.464726
17.280579
12.112856
9.908676
9.394884
9.097457
9.086728
9.058714
9.370446
9.190440
9.744763
9.168983
9.331703
9.238720
8.992553
9.491444
9.374619
9.294748
9.071827
9.042621
9.241700
9.033680
9.110570
9.001493
8.192658
8.802414
8.464456
8.166432
8.669496
##ZVALUE=310
0.537634
0.437498
0.418425
0.537634
0.423789
0.441670
0.349879
0.522733
0.448823
0.299811
0.431538
0.547767
0.329614
0.431538
0.594854
0.446439
0.324845
0.631809
0.636578
0.612736
0.674725
0.831485
0.711679
0.715852
0.700951
1.021624
0.860691
0.884533
0.761747
0.882745
1.040697
1.209974
1.153946
1.391768
1.506805
1.950860
2.297759
9.656549
32.189488
110.306740
219.088793
454.398990
687.429905
993.521810
1015.892029
1015.892029
1015.892029
1015.892029
968.285799
637.359023
421.504974
205.774903
107.733607
38.277507
16.669631
12.373924
15.205741
23.818612
34.329891
53.763986
69.716573
92.346668
105.337501
116.690993
115.197897
106.302500
94.221830
73.926449
57.054758
37.165880
27.137995
17.839670
13.941526
10.438561
9.891987
9.127855
9.381771
9.432435
9.043813
9.156466
9.378791
9.245872
9.083748
9.165406
9.681582
9.383559
9.468794
9.328723
8.857846
8.657575
9.132624
8.937716
8.862615
8.555651
8.889437
8.537769
##ZVALUE=315
0.492930
0.338554
0.377893
0.531673
0.474453
0.451803
0.551939
0.468493
0.501871
0.490546
0.676513
0.512600
0.541806
0.585914
0.576973
0.597835
0.492930
0.555515
0.524521
0.612736
0.538826
0.718832
0.608563
0.677705
0.629425
0.819564
0.791550
0.909567
0.890493
0.894666
1.037717
1.080632
1.107454
1.116991
1.293421
1.468658
1.573563
1.646876
2.095699
4.198551
16.819835
70.421696
157.465935
358.615518
566.130877
884.903669
1015.957594
1015.957594
1015.957594
1015.957594
1015.957594
820.809007
571.739674
298.345685
156.763792
55.842996
22.796988
10.803938
11.094809
15.383959
21.452904
35.044551
47.868490
67.117810
83.386898
101.879835
109.112859
109.768510
103.782415
87.381601
73.963404
53.539872
40.184855
25.299788
18.047690
13.049841
10.802746
9.406805
9.037852
8.899570
9.257793
9.079576
9.443760
9.654760
9.496808
9.310842
9.118915
9.438992
9.308457
9.442568
9.426475
8.985996
8.671880
9.022951
8.620620
8.756518
##ZVALUE=320
0.449419
0.482798
0.361800
0.480413
0.392795
0.354648
0.405908
0.440478
0.346899
0.454783
0.418425
0.402927
0.519753
0.459552
0.437498
0.461936
0.345707
0.569820
0.508428
0.528693
0.385642
0.517964
0.623465
0.578761
0.572801
0.618696
0.826716
0.698566
0.759959
0.763535
0.860691
0.874996
0.829697
1.028776
0.933409
1.179576
1.100898
1.311898
1.281500
1.504421
1.705885
2.400875
7.451773
39.905906
100.741982
256.617665
434.884429
726.846457
963.161588
1015.889645
1015.889645
1015.889645
1015.889645
982.589722
735.689998
406.918526
229.298472
91.030002
38.673878
12.691617
9.493828
10.386705
12.720823
19.282699
28.499961
44.862628
59.840679
78.576803
91.650486
103.155971
104.844570
97.308755
87.926984
67.752600
52.060485
35.219789
25.954843
17.606616
13.144612
10.506511
9.654760
8.854866
9.213686
8.523464
9.342432
9.216666
8.950830
9.125471
9.140968
8.790493
9.029508
8.773804
8.637905
9.031892
8.394718
8.556843
##ZVALUE=325
0.347495
0.306964
0.366569
0.349879
0.401735
0.386834
0.563860
0.347495
0.549555
0.453591
0.492930
0.546575
0.324845
0.455976
0.450611
0.496507
0.416636
0.374913
0.541806
0.535846
0.495911
0.396967
0.594854
0.551939
0.610948
0.511408
0.689626
0.620484
0.685453
0.655651
0.722408
0.746846
0.805855
0.823736
0.885725
0.874996
0.983477
1.058578
1.072884
1.212955
1.298785
1.559854
1.842976
1.822710
4.190803
26.153922
69.409609
185.956955
337.244868
640.777946
886.935592
1015.888453
1015.888453
1015.888453
1015.888453
1000.211835
789.065957
489.739776
302.752852
132.739544
60.928464
18.361807
9.615421
8.734465
9.498596
12.647510
17.772913
29.059649
40.851831
59.419870
73.968768
90.419650
96.766949
97.792745
92.945695
77.006817
64.429641
47.078729
35.794973
23.818612
16.883612
12.643933
10.888577
9.583831
9.215474
9.026527
9.191632
8.876920
8.892417
8.719563
8.858442
8.546710
8.402467
8.464456
8.616447
8.422732
##ZVALUE=330
0.269413
0.380874
0.266433
0.300407
0.381470
0.266433
0.282526
0.227690
0.324845
0.357628
0.490546
0.413656
0.361800
0.416636
0.499487
0.382662
0.296831
0.461936
0.520945
0.324845
0.570416
0.529885
0.451803
0.650883
0.603795
0.687838
0.458956
0.632405
0.643730
0.521541
0.473857
0.651479
0.620484
0.723600
0.762939
0.729561
0.815988
0.904799
0.868440
0.807643
1.130700
1.157522
1.143813
1.438856
1.625419
1.790524
2.371669
11.649728
39.414763
133.216977
264.585018
542.223454
809.139609
1015.888453
1015.888453
1015.888453
1015.888453
1015.888453
905.009508
603.218675
390.725732
185.922980
96.717477
33.480525
13.388991
8.516908
8.666515
9.500980
12.186766
19.153953
26.532412
40.891767
54.082870
72.231889
84.079504
91.843605
92.732906
85.848570
75.820684
58.328509
45.563579
30.991435
24.040937
17.100573
13.512969
10.820627
9.959936
9.310842
8.646846
8.810759
8.586645
8.649826
8.471608
8.373857
8.499622
8.523464
##ZVALUE=335
0.340939
0.276566
0.379682
0.580549
0.457764
0.354648
0.306964
0.476837
0.403523
0.339746
0.465512
0.240803
0.342727
0.477433
0.478625
0.497699
0.306964
0.387430
0.347495
0.341535
0.376701
0.444651
0.377893
0.648499
0.500679
0.513792
0.315905
0.344515
0.460744
0.515580
0.354648
0.704527
0.570416
0.611544
0.700951
0.767708
0.753999
0.609756
0.775456
0.872612
0.719428
0.979900
0.886917
1.017451
1.132488
1.248717
1.475811
1.534820
1.778603
5.253553
18.925667
74.679852
160.656571
367.909670
599.181652
959.177613
1015.888453
1015.888453
1015.888453
1015.888453
988.538861
657.057762
429.166555
213.868022
110.547543
37.435889
16.305447
8.560419
8.148551
8.548498
9.306669
12.449622
16.893744
27.136803
37.747622
53.137541
65.810680
78.566670
85.791945
86.447597
81.291795
67.992806
58.283806
44.589639
34.037828
23.510456
17.675757
12.917519
10.586977
9.209514
8.794665
8.565784
8.298755
8.265972
8.113980
8.075833
##ZVALUE=340
0.197887
0.283718
0.283718
0.354648
0.145435
0.452995
0.399947
0.306964
0.365973
0.425577
0.379682
0.513792
0.489950
0.293851
0.265837
0.362992
0.422597
0.359416
0.436902
0.327826
0.530481
0.322461
0.400543
0.397563
0.425577
0.442863
0.418425
0.326633
0.535846
0.468493
0.597835
0.548959
0.570416
0.589490
0.443459
0.530481
0.560880
0.570416
0.632405
0.758767
0.677705
0.761747
0.749826
0.800490
0.915527
1.086593
1.149774
1.134872
1.481771
1.330972
1.799464
2.257824
11.446476
38.769841
128.223896
254.340768
528.360009
759.593844
1015.888453
1015.888453
1015.888453
1015.888453
1015.888453
849.918723
511.564016
307.841897
134.869814
62.062740
18.501878
9.791851
8.172989
8.193851
8.422732
9.376407
12.461543
16.337633
24.750829
34.895539
50.435662
61.997771
74.919462
80.139637
80.786943
76.208711
67.157745
56.887865
42.463541
33.516884
23.196936
17.595887
12.621880
10.018945
8.981824
8.202791
8.093715
8.270741
##ZVALUE=345
0.243783
0.318885
0.349879
0.296831
0.410676
0.274777
0.397563
0.255704
0.267625
0.431538
0.303984
0.400543
0.176430
0.396967
0.320673
0.327826
0.349879
0.324845
0.373721
0.325441
0.442863
0.312924
0.437498
0.523925
0.331998
0.598431
0.468493
0.426769
0.489950
0.447631
0.529885
0.503659
0.564456
0.435710
0.486970
0.555515
0.616908
0.630617
0.498891
0.643730
0.647902
0.758767
0.785589
0.732541
0.616908
0.862479
0.927448
0.935793
1.036525
1.198649
0.982881
1.423955
1.656413
1.747608
4.714727
19.118786
79.974532
178.180933
399.267673
620.006919
949.317813
1015.888453
1015.888453
1015.888453
1015.888453
966.860652
635.195971
406.796932
178.385973
86.126924
30.374527
13.317466
8.457899
8.133650
7.963777
7.943511
8.586645
10.724664
15.749931
22.572875
34.423470
43.867826
56.994557
65.851808
73.148608
75.067878
71.824789
64.666867
52.689910
44.098496
31.994581
23.645759
16.295910
12.944937
9.891987
8.543730
##ZVALUE=350
0.375509
0.227690
0.319481
0.182986
0.334978
0.439882
0.179410
0.285506
0.160933
0.262856
0.338554
0.267625
0.432730
0.410676
0.481606
0.367761
0.552535
0.452995
0.347495
0.396967
0.420809
0.408888
0.480413
0.418425
0.325441
0.382662
0.386834
0.271797
0.419617
0.378489
0.518560
0.463724
0.448823
0.509620
0.609756
0.550747
0.538826
0.576973
0.577569
0.527501
0.499487
0.667572
0.601411
0.518560
0.646710
0.829697
0.766516
0.700951
0.811815
0.863671
0.937581
1.092553
1.340508
1.048446
1.207590
1.517534
2.466440
12.093782
38.316846
123.628974
240.608454
488.734841
720.980763
1000.576019
1015.888453
1015.888453
1015.888453
1002.805829
780.576468
467.620492
273.391008
115.082860
52.111745
15.812516
8.870959
7.546544
7.386804
7.261634
7.280707
8.226633
10.111928
14.629960
20.549893
29.913783
38.797855
50.845742
59.580803
66.991448
69.150925
66.302419
60.716867
50.033927
41.630864
30.474663
23.407936
16.317964
##ZVALUE=355
0.267625
0.242591
0.286698
0.194907
0.325441
0.188947
0.328422
0.251532
0.307560
0.135899
0.383854
0.287890
0.341535
0.323653
0.288486
0.335574
0.392795
0.395775
0.478625
0.434518
0.366569
0.408888
0.453591
0.475645
0.294447
0.359416
0.346899
0.317693
0.508428
0.495911
0.594854
0.526905
0.494719
0.478625
0.651479
0.376701
0.513792
0.482798
0.414848
0.668764
0.481606
0.691414
0.589490
0.585914
0.699759
0.666976
0.701547
0.731945
0.791550
0.695586
0.753999
0.718832
0.949502
1.102686
1.179576
1.261830
1.326799
1.355410
1.805425
5.851984
20.850897
78.748465
162.391663
344.203711
552.557707
870.368481
1015.889645
1015.889645
1015.889645
1015.889645
855.023861
565.695763
353.680849
151.648521
71.074963
21.789670
9.839535
7.197857
6.882548
6.587505
6.830692
6.882548
7.427931
9.743571
12.532473
18.184781
24.593472
34.853816
43.714643
53.105950
58.887601
62.918663
60.982704
54.958463
48.198700
37.758946
##ZVALUE=360
0.298619
0.190735
0.393987
0.364780
0.385642
0.365973
0.244975
0.312924
0.283718
0.244975
0.323653
0.233650
0.211596
0.354648
0.282526
0.329614
0.272989
0.339746
0.414848
0.403523
0.463724
0.418425
0.367761
0.400543
0.415444
0.356436
0.353456
0.389814
0.487566
0.552535
0.365973
0.425577
0.437498
0.410676
0.532866
0.545979
0.464916
0.612736
0.539422
0.472665
0.538826
0.542998
0.560880
0.629425
0.502467
0.650883
0.667572
0.655651
0.512600
0.700951
0.685453
0.857711
0.880957
0.895858
0.886917
0.960827
1.267791
1.226664
1.170635
1.394749
1.538992
2.743602
8.874536
42.230487
102.150440
254.177451
421.208739
688.561797
908.162594
1015.882492
1015.882492
1015.882492
919.607878
623.746514
414.294004
200.263858
101.147890
35.269856
14.594793
7.188916
6.771684
6.323457
6.211996
6.074905
6.333590
6.679893
7.445812
10.548830
13.952851
20.728707
27.802587
38.122535
45.470595
52.517653
56.066513
56.416988
##ZVALUE=365
0.349879
0.360608
0.396967
0.576973
0.345707
0.175834
0.153780
0.323653
0.326633
0.285506
0.178814
0.300407
0.471473
0.299811
0.299811
0.371933
0.364780
0.303984
0.378489
0.376701
0.414848
0.363588
0.255704
0.380874
0.344515
0.334978
0.298619
0.352859
0.461936
0.444651
0.547767
0.508428
0.350475
0.492930
0.456572
0.408888
0.347495
0.535846
0.551939
0.603795
0.642538
0.587702
0.545979
0.766516
0.773668
0.631809
0.445843
0.513792
0.578761
0.622869
0.480413
0.674725
0.739694
0.737906
0.686646
0.945926
0.955462
0.978708
1.044869
1.154542
1.267791
1.330972
1.437664
1.830459
3.846884
23.024678
62.457919
164.977908
305.009484
557.719469
757.924914
982.432961
1015.880704
1015.880704
950.772762
694.397688
491.342545
267.889500
142.665505
50.981641
20.287633
7.695556
6.396770
6.301999
5.936623
5.693436
5.795956
5.548596
5.685687
6.641746
8.404851
12.341738
16.548634
24.550557
31.651855
40.205717
##ZVALUE=370
0.147820
0.145435
0.253916
0.200868
0.258684
0.107884
0.118613
0.213981
0.236630
0.039935
0.232458
0.224710
0.162721
0.215769
0.111461
0.112653
0.160933
0.296831
0.259876
0.239611
0.276566
0.266433
0.251532
0.257492
0.282526
0.238419
0.440478
0.199676
0.200868
0.342727
0.499487
0.476837
0.223517
0.355840
0.191927
0.352859
0.308752
0.318885
0.354648
0.536442
0.341535
0.368953
0.415444
0.312924
0.370741
0.412464
0.284910
0.331998
0.390410
0.457764
0.416636
0.501871
0.497699
0.444651
0.679493
0.477433
0.599623
0.641942
0.796914
0.873804
0.866652
0.846982
0.990629
1.039505
1.244545
1.572967
2.158880
11.373758
38.705468
125.106573
234.716535
438.683629
637.266636
890.697837
1011.585593
1015.802026
992.317796
801.835656
620.623827
380.389690
225.281715
91.616511
40.688515
12.370944
6.648898
5.640984
5.545616
5.232692
5.290508
4.960895
5.058646
5.346537
5.825758
7.517934
9.928942
14.906526
##ZVALUE=375
0.202656
0.343919
0.274777
0.061989
0.308752
0.197887
0.183582
0.242591
0.278950
0.291467
0.169873
0.188947
0.190735
0.258684
0.195503
0.109673
0.415444
0.223517
0.301600
0.340939
0.376701
0.216961
0.368953
0.432730
0.237823
0.294447
0.342727
0.453591
0.200868
0.362992
0.470877
0.345707
0.301600
0.380874
0.541806
0.349879
0.328422
0.328422
0.314713
0.425577
0.355840
0.423789
0.354648
0.481606
0.509620
0.307560
0.386834
0.398755
0.459552
0.503659
0.449419
0.424981
0.578761
0.579953
0.572801
0.646710
0.593662
0.603795
0.702739
0.687838
0.853539
0.725985
0.801682
0.807643
0.863671
1.095533
1.239777
1.432896
1.617670
6.112456
21.260977
75.834990
163.626671
362.282395
559.002757
822.241902
972.945690
1015.881896
1005.471945
816.165805
620.853901
370.321870
232.801437
112.782717
55.724978
17.371774
7.801652
5.354881
5.007982
4.923940
4.766583
4.689693
4.537702
4.531741
4.742742
5.292892
##ZVALUE=380
0.197887
0.119805
0.277758
0.398755
0.343919
0.233650
0.264645
0.285506
0.308752
0.155568
0.274777
0.342727
0.429749
0.253916
0.242591
0.303984
0.233650
0.269413
0.366569
0.296831
0.346899
0.372529
0.304580
0.282526
0.302792
0.259876
0.409484
0.454783
0.427961
0.399947
0.381470
0.413656
0.314713
0.436902
0.334978
0.393987
0.303984
0.445843
0.462532
0.376701
0.525713
0.544786
0.415444
0.455976
0.403523
0.382662
0.476837
0.360608
0.388622
0.473857
0.331998
0.565648
0.514984
0.513792
0.557899
0.542998
0.633597
0.453591
0.672936
0.523925
0.546575
0.665784
0.730753
0.730753
0.899434
1.008511
1.104474
0.989437
1.325607
1.438856
1.697540
3.187656
12.597442
58.176517
130.035877
301.688910
480.835438
735.414624
915.288925
1015.938520
1015.938520
894.157887
727.797747
502.647758
334.630609
163.815618
83.399415
28.276443
11.753440
5.658865
4.808903
4.534721
4.380941
4.523993
4.325509
4.154444
##ZVALUE=385
0.152588
0.104904
0.161529
0.162721
0.244975
0.245571
0.247955
0.100732
0.125766
0.260472
0.199676
0.313520
0.279546
0.258684
0.323653
0.443459
0.361800
0.259876
0.224710
0.319481
0.240803
0.182986
0.300407
0.119805
0.275970
0.184774
0.294447
0.244975
0.205636
0.501871
0.388622
0.377893
0.349879
0.281930
0.258684
0.371933
0.321865
0.214577
0.472665
0.234842
0.466704
0.467896
0.322461
0.325441
0.436902
0.358820
0.316501
0.266433
0.310540
0.573993
0.323653
0.194907
0.330806
0.544786
0.400543
0.526905
0.550747
0.402927
0.448823
0.515580
0.515580
0.626445
0.709891
0.654459
0.701547
0.724792
0.817776
0.804663
1.041889
1.170635
1.209974
1.343489
1.386404
1.863837
5.797744
34.663677
88.549852
220.574737
384.802818
659.135580
855.918527
1015.888453
1015.888453
997.679830
857.326984
615.115762
427.971482
229.867697
129.724741
52.891970
20.871758
6.668568
4.625916
4.316568
4.068613
4.074574
##ZVALUE=390
0.184774
0.368953
0.342727
0.345707
0.255704
0.185966
0.374913
0.265837
0.130534
0.191927
0.240803
0.250936
0.276566
0.096560
0.266433
0.153780
0.366569
0.242591
0.129938
0.266433
0.179410
0.229478
0.143647
0.211596
0.219941
0.114441
0.125766
0.188947
0.260472
0.290871
0.277758
0.333786
0.406504
0.326633
0.409484
0.180602
0.263453
0.399947
0.449419
0.320673
0.319481
0.306964
0.330806
0.328422
0.333786
0.292659
0.453591
0.339746
0.452995
0.308752
0.497699
0.425577
0.459552
0.387430
0.371933
0.397563
0.476837
0.287890
0.443459
0.552535
0.493526
0.524521
0.442863
0.668764
0.574589
0.612736
0.653863
0.828505
0.862479
1.079440
1.042485
1.274943
1.256466
1.336932
1.305938
1.551509
2.699494
16.859770
55.707693
172.215700
320.356488
591.012836
791.867971
994.516611
1015.861034
1015.861034
990.039706
762.609839
571.517944
341.112614
196.748972
78.300834
34.012794
9.742975
5.151629
4.177690
##ZVALUE=395
0.220537
0.145435
0.265837
0.310540
0.213981
0.381470
0.273585
0.162721
0.274777
0.138879
0.140667
0.232458
0.021458
0.095963
0.227690
0.174642
0.294447
0.229478
0.222921
0.171661
0.206828
0.370741
0.253916
0.192523
0.185966
0.403523
0.328422
0.309944
0.306964
0.347495
0.357628
0.319481
0.394583
0.208616
0.177622
0.281930
0.230670
0.223517
0.355840
0.395775
0.505447
0.399947
0.241995
0.466704
0.446439
0.359416
0.330806
0.217557
0.269413
0.350475
0.437498
0.464916
0.342727
0.411868
0.551939
0.384450
0.363588
0.563860
0.484586
0.546575
0.457764
0.588894
0.575781
0.569820
0.685453
0.585914
0.774860
0.760555
0.792742
0.955462
0.988841
1.073480
1.071692
1.148582
0.924468
1.231432
1.184940
1.381636
1.750588
8.942485
35.951734
129.220486
244.834423
453.873873
651.418567
908.371806
1015.886664
1015.886664
1015.886664
876.197815
672.088861
405.963659
250.909925
114.389658
52.946806
17.121434
##ZVALUE=400
0.220537
0.170469
0.184774
0.254512
0.238419
0.301600
0.172853
0.132918
0.161529
0.171661
0.194907
0.270605
0.326633
0.162721
0.023842
0.269413
0.132918
0.228882
0.234842
0.224710
0.307560
0.238419
0.302792
0.316501
0.372529
0.393987
0.343919
0.229478
0.341535
0.386834
0.371933
0.370741
0.319481
0.296831
0.310540
0.270605
0.330806
0.507832
0.260472
0.458956
0.398755
0.312924
0.247955
0.348687
0.396967
0.308752
0.285506
0.314713
0.309944
0.338554
0.420809
0.520945
0.366569
0.302792
0.442863
0.303984
0.517964
0.499487
0.322461
0.539422
0.513792
0.429749
0.547767
0.417829
0.560880
0.587702
0.730753
0.826716
0.765920
0.831485
1.020432
0.933409
0.954866
0.898838
0.834465
0.955462
1.000762
1.050830
1.265407
1.274943
1.622438
4.879832
17.181635
67.037940
149.107575
338.642597
536.701679
817.121863
985.555649
1015.889645
1015.889645
965.206027
781.250596
511.003733
331.947803
160.407424
##END
