sinacsa
Scan
1.1
25sep17 ddw.dsp
nm
200
800
2
301
A
-0.0088
0.0002
0
dvir

25/09/2017 14:19:45
25/09/2017 14:20:51
25/09/2017 14:19:09
0
version 1, 25/09/2017 14:20:51, dvir: |Created; Method: Nadia Oil.msc (version 5 / 17/05/2017 15:12:23)||
Nadia Oil.msc (version 5 / 17/05/2017 15:12:23)
1
0
0
sec
0
0

GENESYS 10S
2.001
2L7M233003
5
0.2
1
1
0.2
0
0

1
0
0
 VISIONlite Scan Version 2.2






||


Front










1
0
0
0
1
3
1
0
0
0
0
0
0
860.8
0
0
860.8
0
0
1
1
1
0
0
0
0
0
0
0
0
0
0
0
0
0
0
0
0
0
0
3
0
5
100
0
0
0
0
100
100
100
0
0
0
0
0
0
0
0
#SPECIFIC1
0
0
0.01

#SPECIFIC2

#SPECIFIC3

#DATA
-0.0088
-0.0077
-0.0072
-0.006
-0.0055
-0.0048
-0.0045
-0.0037
-0.0032
-0.0031
-0.0027
-0.0023
-0.002
-0.0019
-0.0017
-0.0011
-0.001
-0.0011
-0.0009
-0.001
-0.0012
-0.001
-0.0008
-0.001
-0.0009
-0.0008
-0.0008
-0.0008
-0.0009
-0.001
-0.0009
-0.0008
-0.001
-0.001
-0.001
-0.0006
-0.0008
-0.0006
-0.0007
-0.0009
-0.0007
-0.001
-0.0008
-0.0009
-0.0007
-0.0009
-0.0008
-0.0007
-0.0006
-0.0007
-0.0006
-0.001
-0.0009
-0.0007
-0.0009
-0.0008
-0.0009
-0.0007
-0.0008
-0.001
-0.0008
-0.0008
-0.0008
-0.0007
-0.0009
-0.001
-0.0008
-0.001
-0.001
-0.0008
-0.0014
-0.001
-0.0011
-0.0007
-0.0011
-0.0013
-0.0012
-0.0005
-0.0009
-0.0011
-0.001
-0.0008
-0.0009
-0.0008
-0.0008
-0.0009
-0.0009
-0.0012
-0.0011
-0.001
-0.0008
-0.001
-0.0006
-0.0009
-0.0009
-0.001
-0.0011
-0.0009
-0.001
-0.0009
-0.001
-0.001
-0.0007
-0.001
-0.0012
-0.001
-0.0012
-0.0012
-0.0011
-0.0012
-0.0011
-0.0012
-0.0009
-0.0009
-0.0009
-0.0008
-0.0008
-0.0011
-0.0011
-0.0011
-0.001
-0.0012
-0.0011
-0.0009
-0.0009
-0.0009
-0.0007
-0.001
-0.0008
-0.001
-0.0009
-0.0009
-0.0009
-0.0011
-0.0011
-0.001
-0.001
-0.0009
-0.0011
-0.0009
-0.0008
-0.0012
-0.0013
-0.0008
-0.0009
-0.001
-0.001
-0.0009
-0.0011
-0.001
-0.0008
-0.0012
-0.0006
-0.0011
-0.001
-0.0007
-0.0013
-0.0008
-0.0011
-0.001
-0.0008
-0.0011
-0.0011
-0.0011
-0.0012
-0.0009
-0.0009
-0.0008
-0.001
-0.001
-0.0011
-0.0008
-0.0007
-0.0011
-0.0009
-0.0008
-0.0009
-0.001
-0.0009
-0.0007
-0.0012
-0.0012
-0.0008
-0.0009
-0.001
-0.0004
-0.0008
-0.0008
-0.0013
-0.0009
-0.0007
-0.0008
-0.001
-0.0013
-0.0008
-0.0009
-0.0009
-0.0007
-0.0007
-0.0011
-0.001
-0.0007
-0.0005
-0.0004
-0.0013
-0.0011
-0.0011
-0.0008
-0.0013
-0.001
-0.001
-0.0008
-0.0009
-0.0014
-0.0006
-0.0001
-0.0011
-0.0012
-0.0007
-0.001
-0.0009
-0.001
-0.0007
-0.001
-0.0015
-0.0005
-0.0006
-0.0013
-0.0011
-0.0005
-0.0014
-0.0005
-0.0016
-0.0006
-0.0011
-0.0013
-0.0005
-0.0011
-0.0002
-0.0007
-0.0003
-0.0001
-0.001
-0.0007
-0.0007
-0.0007
-0.0001
-0.0009
-0.0007
-0.001
-0.0007
-0.001
-0.0003
-0.0007
-0.0005
-0.0011
0
-0.0016
-0.0005
0.0002
0
-0.0008
-0.0012
-0.0004
-0.0002
0
-0.0004
-0.0012
-0.0011
-0.0015
-0.0007
-0.0008
-0.0005
-0.0012
-0.0011
-0.0002
-0.0003
-0.0004
-0.002
-0.0012
-0.0007
-0.0006
-0.0003
-0.0008
-0.0008
-0.0005
-0.0009
-0.0018
-0.0005
0.0001
-0.0003
-0.0012
-0.0009
-0.0007
-0.0029
-0.0008
-0.0025
-0.0002
-0.0021
-0.0015
-0.0011
