##TITLE=QP00352
##FORMAT=SPECTACLE-ASCII V-1.2
##DATA TYPE=ULTRAVIOLET SPECTRUM
##SECOND TYPE=ULTRAVIOLET SPECTRUM
##DATE=02/08/18
##TIME=15:48:22
##SPECTROMETER/DATA SYSTEM=SPECTACLE
##XUNITS=NM EM
##YUNITS=ENERGY
##YFACTOR=1
##FIRSTX=220
##LASTX=410
##NPOINTS=96
##3DDATA=Equidistant
##ZUNITS=NM EX
##FIRSTZ=210
##LASTZ=400
##ZPOINTS=39
##XYDATA=(Y..Y)
##ZVALUE=210
2.019405
2.283454
2.207756
2.382994
2.233982
2.596974
2.363920
2.483726
3.059506
2.954602
2.262592
1.951456
2.048612
1.838803
2.182722
2.040863
2.278686
2.450943
2.239943
2.376437
2.686977
2.579689
2.851486
3.374815
2.756715
3.088713
2.687573
3.340840
3.795624
3.245473
4.246831
3.910661
3.753901
4.050732
3.928542
4.189610
4.018545
4.545450
3.847480
4.113913
3.977418
4.058480
4.488826
3.121495
3.965497
3.807545
4.078746
4.431605
4.216433
4.296899
4.325509
4.268885
4.671812
4.226565
4.560947
4.236698
4.867911
5.097985
4.405975
5.001426
4.707575
4.256964
4.486442
4.898906
5.331635
5.102754
5.400777
5.922914
6.638765
7.766485
7.819533
9.103417
11.306405
11.598468
12.661815
12.674928
14.154911
14.457703
13.169646
12.577772
10.401607
9.412766
8.753538
7.345676
6.178617
6.296635
5.782843
5.184412
4.914999
5.441904
5.009770
4.431605
4.481673
5.988479
5.664825
4.859567
##ZVALUE=215
5.967617
5.883574
5.027652
4.971623
4.743934
3.967881
4.302859
5.247593
4.803538
5.435944
4.858971
4.127622
3.890991
3.142953
2.566576
2.497435
2.178550
3.583431
3.298521
2.995729
3.639460
3.283620
3.228784
2.789497
3.039837
3.053546
3.695488
3.163815
3.206730
3.965497
3.561974
3.548861
3.257990
3.451705
4.306436
4.128814
4.396439
4.779696
4.191995
3.968477
4.212856
4.982948
4.053712
3.828406
4.518628
4.187822
4.527569
4.750490
4.753470
4.049540
4.297495
5.278587
4.359484
4.958510
5.591512
4.779696
4.873872
4.747510
4.628897
5.720854
4.084706
4.412532
6.210804
5.644560
5.469918
4.570484
5.880594
6.449819
6.849766
7.028580
8.481741
9.950995
10.962486
11.487603
12.711883
12.618899
12.955666
13.830662
13.079643
12.470484
11.705756
9.606481
8.444786
7.642508
7.192492
6.783605
5.821586
5.672574
5.580783
4.738569
5.361438
4.101992
4.726648
4.829764
4.822612
5.252957
##ZVALUE=220
22.020936
20.221472
21.677613
21.137595
18.595457
14.007688
12.973547
10.245442
9.997487
9.400845
11.097789
11.912584
11.685491
9.923577
9.637475
7.896423
5.131960
3.933907
3.911853
2.936721
3.277659
3.153682
3.282428
2.856851
3.595948
3.682971
4.116893
4.011989
3.509521
3.678799
3.757477
4.339814
4.785657
5.176663
4.071593
4.247427
4.584789
3.905892
4.892945
4.323721
4.829764
4.557967
5.283952
4.534721
4.142523
5.299449
4.713535
5.362630
5.456805
4.861951
5.433559
5.059838
5.219579
5.145669
5.492568
5.910993
5.905628
4.976988
5.219579
5.644560
5.846620
4.956722
5.010962
5.792975
6.071925
5.904436
6.487966
6.955862
7.817745
7.968545
9.782910
10.026693
11.606812
13.490915
13.791919
14.010668
13.098717
14.287829
14.108419
12.730956
11.395812
12.362599
10.677576
9.570718
8.273721
7.854700
7.619858
6.893873
5.923510
6.008744
5.525947
7.009506
6.180406
6.804466
6.016493
5.275607
##ZVALUE=225
38.024783
38.382411
47.919750
59.522986
63.286424
62.522888
58.919787
44.420958
37.555695
25.494695
22.453666
24.057627
24.271607
25.556684
26.641488
24.161935
21.956563
16.855597
11.877418
8.004904
6.168485
3.806949
4.470944
3.964901
3.807545
3.284812
4.369617
4.222989
3.687739
4.759431
4.532933
3.937483
4.451871
4.576445
4.867911
5.228519
4.994869
4.904866
4.769564
5.580783
4.266500
5.001426
4.723668
4.969835
4.894733
5.704761
5.312562
5.031824
5.150437
5.815625
5.240440
5.864501
5.499721
5.585551
6.065965
6.147623
5.893707
6.422997
5.792975
5.912781
6.498694
6.437898
7.280707
7.285476
6.313920
7.804632
6.797910
7.946491
7.803440
9.338856
10.394454
12.249947
11.595488
14.764667
13.548732
14.549494
13.720989
14.050603
12.840629
13.271570
12.487769
10.939837
10.674596
9.914637
8.261800
8.326769
7.454753
7.568598
8.628964
9.012818
7.514954
7.826686
6.759763
7.295609
7.605553
6.661415
##ZVALUE=230
32.690763
37.259459
56.242943
93.611479
120.950937
145.102739
157.396793
158.544779
139.797926
120.376945
84.606409
64.525604
47.136545
42.583942
43.305755
49.799681
49.595833
48.385859
46.903491
37.507415
28.340816
18.753409
12.210608
7.504821
5.454421
4.631877
4.640818
4.329681
5.717874
4.902482
6.172657
4.784465
5.488992
5.375743
5.564690
5.131960
5.469918
5.635619
6.114841
5.471706
4.973412
5.261898
6.521940
5.004406
6.649494
5.951524
6.106496
5.979538
5.604625
5.854964
6.084442
7.155538
6.960630
6.676912
6.890893
7.064939
7.033944
6.742477
7.383823
7.305741
7.716417
7.594824
7.831454
7.046461
8.558631
8.350611
8.393526
9.922981
11.094809
11.784434
13.678670
13.544559
16.198754
15.747547
16.882420
17.155409
17.106533
17.393827
16.414523
17.602444
15.105605
15.703440
14.866590
14.054775
11.527538
12.775660
11.118650
11.337996
12.453794
10.613799
10.394454
11.119843
10.343790
11.600852
11.329651
11.570454
##ZVALUE=235
11.442900
13.918877
29.504895
67.398548
109.132528
169.772506
228.730440
287.812948
313.678980
318.670869
287.491679
223.634839
167.266726
113.561749
86.278915
73.054433
69.286823
77.414513
82.106590
85.120797
76.874495
65.958500
48.204660
37.617683
23.652911
15.715957
10.690689
7.325411
6.571412
6.771684
6.498694
7.502437
6.389618
6.254911
5.691648
6.323457
7.269979
6.774664
6.024837
6.254911
5.771518
5.396605
6.459951
5.854964
6.808639
6.329417
6.708503
6.410480
6.774664
6.878972
7.714629
6.770492
7.381439
7.362962
8.040667
8.407831
7.868409
8.793473
7.948875
8.117557
9.094477
9.319782
8.569956
10.997653
10.076761
11.701584
12.222528
11.573434
13.758540
13.622642
15.223622
19.226670
20.192862
21.421909
21.573901
22.234917
21.633506
22.343993
20.453930
20.524859
21.004677
20.397902
18.683672
18.614531
17.762780
16.996861
15.928745
15.219450
15.639663
16.014576
15.025735
15.056729
16.454458
16.016960
14.109612
14.577508
##ZVALUE=240
1.761913
2.304912
5.627871
17.427802
37.724972
87.380409
144.737959
250.077844
330.561996
404.476523
470.872521
483.159423
423.742533
355.505943
260.148644
186.489820
119.715929
97.507834
89.532733
97.236633
106.136799
116.034746
107.920766
93.137622
77.997446
60.165524
46.689510
28.916597
19.252896
13.749599
9.148717
8.018613
7.842779
7.144809
7.670522
7.367730
7.358789
6.490946
7.055998
6.141663
7.101893
7.174611
6.414652
6.574988
6.236434
6.023645
6.397963
6.469488
7.211566
7.210970
6.805658
7.436872
7.683635
8.099675
7.872581
8.139610
7.098913
7.433891
8.210540
8.015633
8.550882
8.745790
9.181499
11.138916
10.862947
11.655688
12.699962
13.349652
14.370680
16.489625
18.154979
19.701719
18.979907
20.676851
21.661520
22.898912
23.297668
23.316741
22.707582
22.790432
23.210645
21.131635
20.118952
21.629930
19.408464
20.063519
19.995570
18.618703
17.773509
18.654466
17.799735
18.046498
17.629862
18.112659
17.992854
16.896725
##ZVALUE=245
1.549721
1.577735
1.586676
1.750588
3.181696
13.077855
33.086538
81.329942
144.341588
261.660814
361.199975
485.765934
549.440980
571.406484
546.342731
463.584661
373.303890
254.041553
178.590417
118.058920
96.033812
95.540881
111.947656
123.231411
125.189424
124.635696
109.013915
91.054440
67.823529
53.171515
33.731461
23.407936
15.841722
9.968877
8.607507
9.356737
7.286668
7.944703
7.260442
7.020831
6.387830
6.952882
6.240606
6.072521
6.189942
6.504655
5.991459
6.106496
5.655885
6.563663
6.142855
5.762577
6.629825
6.803870
7.094741
6.633997
6.793737
7.291436
7.651448
6.849766
7.846951
7.699728
8.264780
8.755922
9.307861
10.026693
11.059642
11.727810
11.911988
14.021993
16.510487
16.395450
17.749667
18.815994
19.687414
20.104647
22.142529
20.885468
23.012757
20.490885
20.361543
20.068884
18.964410
20.209551
19.181967
18.187761
19.554496
20.914674
19.061565
19.602776
20.570755
18.727779
17.885566
18.315911
18.495917
19.888878
##ZVALUE=250
1.347661
1.479983
1.538992
1.490712
1.417994
1.674891
2.176762
7.133484
28.579831
60.262680
148.339868
240.256786
351.468921
495.224595
594.548583
664.708018
652.681589
582.034588
491.713881
345.906615
243.015885
163.608789
107.174516
93.715787
103.266835
119.360685
134.393573
137.346983
132.310987
118.020773
102.940798
77.396631
57.441592
36.214590
24.159551
13.062954
9.929538
7.421970
6.795526
7.367730
6.054640
5.914569
5.543828
5.781651
5.798936
6.455779
5.626678
5.901456
5.515814
6.107688
5.743504
5.403757
5.533695
5.122423
5.839467
5.024672
6.128550
6.684661
6.461740
6.875992
7.672906
8.183718
7.558465
7.579923
8.336902
8.630753
10.815859
10.358691
10.737777
12.495518
13.323426
14.680624
15.839934
17.550588
18.586516
17.983913
19.033551
18.575788
19.916892
19.704700
17.512441
18.159747
18.776655
18.417835
19.290447
18.017888
19.051433
18.133521
18.928647
18.296838
18.586516
18.048882
18.538833
17.971992
17.999411
17.607808
##ZVALUE=255
1.098514
1.205802
1.245737
1.317859
1.319647
1.487732
1.399517
1.606941
1.864433
4.994869
19.906759
49.241781
94.692707
207.177997
318.033695
481.126904
598.000884
711.795688
737.802982
699.407458
599.202514
482.032895
313.715935
205.987692
117.192864
92.076659
90.268850
103.129745
123.276711
137.394667
143.072605
140.301585
125.786662
101.972818
79.152584
52.710772
36.386847
19.851923
13.211966
7.611513
6.628633
5.550981
5.289912
5.529523
5.456805
5.669594
5.579591
5.250573
5.337596
4.880428
5.154610
5.903840
5.412698
5.541444
5.481839
4.982948
5.294681
5.435944
6.060600
5.590916
5.683899
6.324649
6.586909
6.803870
7.384419
7.476807
7.947683
8.531809
9.384751
9.967685
11.400580
12.198687
14.062524
14.529824
15.962720
15.855432
15.335679
16.529560
16.208887
16.383529
16.926527
17.883778
16.526580
16.726851
17.035604
16.847849
17.072558
16.999841
17.272830
16.978979
16.776919
17.360449
16.181469
17.007589
16.024709
17.885566
##ZVALUE=260
0.899434
1.012683
1.291633
1.511574
1.203418
1.375675
1.207590
1.467466
1.426935
1.348853
1.833439
2.297759
7.474422
30.153990
67.641735
164.384842
268.540978
438.832641
571.177602
741.089582
808.688998
810.242891
717.660785
590.354800
400.856733
280.950665
168.224573
106.371641
80.223680
82.077980
103.692412
121.974945
137.733817
147.020817
145.466924
126.500726
107.154846
78.926682
56.397915
34.239888
22.097826
11.189580
7.320642
5.235672
4.784465
5.082488
4.595518
4.802942
5.049706
4.341602
4.766583
4.873872
4.431605
4.566908
4.827976
5.371571
4.857779
5.298853
5.603433
5.549788
5.508661
5.447865
5.315542
6.219745
6.545782
7.072687
6.971955
7.958412
8.606911
9.518862
9.950995
11.608601
11.997819
13.024807
13.304949
13.305545
13.894439
14.580488
14.412999
14.548898
14.468431
15.631914
14.796853
15.185475
15.470982
15.601516
15.273690
15.179515
15.335679
15.573502
14.846921
15.834570
15.891790
16.078949
15.233755
16.013980
##ZVALUE=265
1.053810
1.128912
1.225471
0.950694
1.270771
1.086593
1.325607
1.274943
1.338720
1.387596
1.447797
1.516938
1.381636
1.739860
3.912449
21.882653
51.566958
128.579736
224.654675
410.969853
573.680997
729.553699
868.752003
888.452530
808.698535
701.373816
520.274639
375.694036
216.403604
132.756829
85.085630
66.716671
77.423453
106.442571
126.649737
145.308971
149.580836
141.248703
130.554438
105.076432
78.360438
54.084659
35.072565
20.091534
12.102723
7.159710
5.410910
5.172491
4.692674
4.745722
4.932880
4.363656
4.993677
5.052686
4.636645
4.915595
4.822612
5.012751
5.001426
5.380511
5.870461
5.624890
5.647540
6.053448
6.178617
6.415844
6.680489
7.306933
7.682443
9.052753
9.302497
9.900928
10.826588
11.609793
11.353493
12.845993
13.113618
12.771487
13.386607
13.252497
13.002753
12.637973
13.587475
14.036894
13.930798
13.109446
13.709664
14.013648
14.645457
14.218688
14.415979
14.268756
14.316440
14.233589
14.950633
15.459657
##ZVALUE=270
0.945926
0.907779
1.119971
1.181960
1.137853
1.071692
0.973940
1.134872
1.166463
1.159906
1.282692
1.220703
1.470447
1.283884
1.558661
1.647472
2.394915
7.407665
34.059882
77.566504
186.414719
317.733884
549.151897
708.051920
880.796909
940.517783
910.154581
822.222829
641.881824
485.759974
295.547843
182.000995
106.843710
60.700774
58.503747
80.756545
102.509856
128.476620
143.130422
147.351623
145.193934
126.798749
104.786754
75.516701
55.063963
32.402873
21.796823
12.209415
7.862449
5.893707
4.750490
4.577637
4.310608
5.193949
5.228519
5.016923
4.905462
4.842877
5.129576
5.594492
5.337000
6.008744
5.502701
5.926490
6.123781
6.759763
6.816983
6.949902
7.308722
7.939935
8.611679
9.233952
9.721518
10.556579
11.134744
11.316538
11.701584
11.773705
12.005568
12.097955
12.252927
12.077689
11.771917
12.835860
12.572408
12.856722
13.209581
13.112426
13.057590
13.186932
13.292432
12.548566
12.671947
13.279915
13.285875
14.054775
##ZVALUE=275
1.039505
0.967979
0.984669
1.076460
1.090765
1.048446
0.979900
1.036525
1.222491
1.260638
1.173615
1.160502
1.088977
1.063943
1.303554
1.343489
1.435876
1.757741
1.654625
4.142523
16.577840
48.085451
138.542652
256.066918
468.690991
631.116033
816.720724
924.575925
966.785550
913.710594
805.505514
601.918697
429.923534
232.893825
136.717558
64.366460
46.911836
57.246685
76.483488
103.689432
123.487711
143.089890
149.062872
142.409801
128.292441
100.516677
81.699491
54.812431
38.599968
22.100806
13.764501
7.878542
5.911589
4.895926
4.700422
4.696846
5.072951
4.863739
5.372763
5.188584
5.266666
5.671978
5.681515
5.919933
6.210804
6.391406
6.337762
7.166862
6.997585
7.976890
8.223653
9.015799
9.063482
9.846687
10.125637
10.721684
10.559559
10.628700
11.391640
11.121631
11.361837
12.168884
11.248589
11.479855
11.164546
12.104511
11.735559
11.785626
12.304783
11.988878
11.804700
12.137890
12.290478
11.970997
12.125969
12.592673
##ZVALUE=280
0.952482
0.896454
0.816584
0.832677
0.902414
0.799894
0.853539
1.066923
0.919700
1.005530
0.985861
1.032948
1.176000
1.286864
1.108646
1.435876
1.385808
1.338720
1.449585
1.367927
1.541972
2.703667
8.943677
40.800571
94.211698
218.982697
358.517766
523.839593
758.723617
905.436873
1002.913713
995.394588
770.318508
694.657564
475.382805
318.010449
161.339641
56.978464
42.120814
38.606524
50.556660
99.444985
103.654861
120.514631
139.740705
146.795511
131.580830
125.316978
95.139742
74.857473
55.970550
34.381747
23.288727
12.553930
8.765459
5.846620
5.247593
5.001426
5.266666
5.294681
5.452633
5.635619
5.927682
5.827546
6.139874
6.133914
6.903410
6.848574
7.430911
7.825494
8.023977
9.268522
9.115934
9.313822
10.091662
10.180473
10.587573
10.593534
10.846853
10.917783
10.626912
10.705590
10.860562
11.140704
11.255741
11.103749
11.230707
11.397600
11.816621
11.297464
11.692643
11.651516
11.224747
11.804700
11.490583
11.549592
##ZVALUE=285
0.578761
0.626445
0.617504
0.543594
0.613928
0.460744
0.708699
0.867844
0.523925
0.484586
0.640750
0.549555
0.637770
0.683665
0.895858
0.816584
0.740886
0.857711
0.779629
0.951886
1.027584
1.066923
1.264811
1.557469
4.919767
16.731620
58.637857
127.175450
281.424522
439.654589
611.901879
852.735639
989.836454
1015.398502
984.479785
794.160962
617.989898
376.052856
234.095454
109.474659
58.311820
30.847788
33.027530
51.832795
69.602728
99.105835
118.124485
135.080814
141.485929
135.026574
124.182701
101.420879
81.220865
54.723620
38.644671
21.767616
13.782978
8.623600
6.473660
5.744696
5.399585
5.346537
5.624890
5.623698
6.010532
6.235838
6.328821
6.738901
7.065535
7.809997
8.171797
8.245707
8.759499
9.449720
9.443760
9.649992
9.528995
9.863973
10.462999
10.576844
9.866953
10.297894
10.454655
10.147691
10.324717
10.538697
10.833740
11.124611
10.746717
10.763407
11.221766
10.461807
10.956526
11.184812
10.495782
10.754466
##ZVALUE=290
0.816584
0.782609
0.686646
0.717640
0.823736
0.846982
0.712872
0.773668
0.733733
0.902414
1.065731
0.806451
0.858903
1.153946
1.128912
1.135468
1.019835
1.132488
1.048446
1.271963
1.079440
1.315475
1.315475
1.399517
1.755953
1.777411
2.709627
7.387400
33.237934
80.749989
165.383816
349.908471
544.773936
822.320580
987.682939
1015.695930
1015.695930
898.324847
724.545717
474.873781
309.825540
150.330663
77.948570
33.265948
24.295449
32.706857
46.120882
68.807602
88.882446
113.452673
128.731728
138.878822
134.686828
120.119452
102.909803
75.278878
55.967569
35.379529
24.502873
13.505816
9.453893
7.212758
6.526709
6.468892
6.422997
6.820560
6.776452
7.177591
7.634759
7.636547
8.607507
9.153485
9.149909
9.804964
9.569526
9.832978
10.142922
9.974837
10.197759
10.231733
10.434985
10.891557
10.900497
10.538697
10.582805
10.595918
11.110902
11.079907
10.556579
10.570884
10.528564
11.012554
10.629892
10.994673
11.084676
10.835528
##ZVALUE=295
0.875592
0.935793
0.925660
0.740886
0.894666
0.750422
0.906587
0.883937
0.918508
0.862479
0.727773
0.776649
0.914931
0.786781
0.905991
1.062751
0.978708
1.143813
1.055598
1.254678
1.042485
1.054406
1.321435
1.089573
1.394749
1.499653
1.623631
1.767874
1.973510
3.463626
11.316538
47.986507
112.747550
273.096561
444.669724
717.898607
906.351805
1015.724540
1015.724540
1009.354591
868.932009
611.060858
415.853858
218.738914
116.867423
41.707754
23.598671
20.280480
27.998686
45.831800
63.383579
87.024570
105.522871
122.623444
130.675435
127.146840
117.394924
95.639825
77.911615
53.109527
38.674474
22.703409
15.315413
10.093451
7.792711
6.952882
7.002950
7.333755
7.237792
7.763505
8.627772
8.748770
8.983612
9.604692
9.910464
9.427667
10.399818
10.172725
10.162592
10.262728
10.892749
10.521412
10.650754
10.689497
10.720491
11.098981
10.722876
11.069775
10.615587
10.830760
10.787845
10.736585
10.452867
10.561943
10.364652
10.793805
##ZVALUE=300
0.601411
0.747442
0.641942
0.841618
0.667572
0.706911
0.798702
0.781417
0.732541
0.740886
0.870824
0.805855
0.839829
0.728965
0.754595
0.780821
0.801682
0.905991
1.021624
0.995994
0.992417
1.232624
1.308918
1.063943
1.242757
1.229644
1.232624
1.400709
1.288652
1.681447
1.624823
2.086759
7.268786
25.357008
84.376931
168.885589
354.162455
539.218783
802.374482
966.328979
1015.695930
1015.695930
942.426920
773.587823
508.579016
332.126617
161.612630
85.536838
31.843781
16.905665
17.837882
24.690628
40.027499
55.930614
78.980923
99.349618
119.126439
122.928619
123.229623
113.060474
93.646646
77.785850
54.986477
39.340854
23.933649
17.047524
11.210442
8.787513
7.853508
7.822514
8.253455
8.586645
9.158850
9.383559
9.465814
9.769797
10.138750
9.973645
10.054708
10.384917
10.527968
10.405779
11.041760
10.768771
10.857582
10.778904
11.028647
10.693669
10.529757
10.756850
10.204911
10.497570
10.789633
10.532737
10.182858
10.509491
##ZVALUE=305
0.679493
0.690818
0.560880
0.733733
0.657439
0.700951
0.678897
0.750422
0.726581
0.660419
0.805855
0.829697
0.741482
0.831485
0.881553
0.871420
0.835657
0.898838
0.967979
0.874996
0.973940
0.977516
0.968575
1.067519
1.084805
1.302958
1.130700
1.094937
1.242757
1.479983
1.222491
1.535416
1.555681
1.898408
3.091693
16.970634
47.233701
132.542849
244.323611
460.146666
650.956035
901.384950
1015.699506
1015.699506
1015.699506
852.954984
666.905642
422.334671
260.394812
112.529993
53.524971
18.992424
12.718439
16.317964
23.013949
39.740801
54.031610
76.983571
94.099641
110.969543
117.778778
115.010738
107.951760
90.776682
74.139833
50.919652
37.402511
24.360418
16.725659
11.273623
9.982586
9.110570
9.560585
9.255409
9.501576
9.720922
9.984970
9.712577
9.513497
10.054708
10.309815
10.500550
10.214448
10.595918
11.010766
10.928512
10.696650
10.952950
10.792613
10.409951
10.579824
10.582805
10.479689
10.612607
10.409951
10.314584
##ZVALUE=310
0.793934
0.477433
0.714660
0.707507
0.797510
0.687838
0.630617
0.617504
0.676513
0.775456
0.732541
0.778437
0.804663
0.776649
0.772476
0.808835
0.957847
0.781417
0.775456
0.867844
0.805855
1.064539
0.840425
0.910759
0.902414
1.022816
1.029968
1.226664
1.100898
1.132488
1.257658
1.369715
1.289845
1.527667
1.597404
1.802444
2.070665
7.597804
24.813414
81.263781
159.830451
334.817767
524.636507
797.897577
979.296565
1015.717983
1015.717983
1005.874872
857.765675
581.044555
386.679769
189.518929
96.878409
32.444596
14.725924
10.923743
13.907552
22.299886
32.096505
50.435662
66.139698
86.843967
101.369619
111.325979
112.617612
104.004741
91.319680
71.561933
55.076480
35.651922
26.248693
17.693639
13.295412
10.755658
9.717941
9.499788
9.673834
9.826422
9.675622
9.743571
10.348558
10.527968
10.498762
10.261536
10.528564
10.909438
10.422468
10.727644
10.828972
11.026859
11.046529
10.650754
10.593534
10.529757
10.563731
10.334849
##ZVALUE=315
0.562668
0.758767
0.756979
0.593662
0.686646
0.605583
0.457764
0.702739
0.693798
0.787973
0.806451
0.836849
0.789762
0.643730
0.771880
0.795722
0.873804
0.796914
0.744462
0.779629
0.694990
0.817776
0.880957
0.889897
0.930429
0.822544
0.926852
1.104474
0.980496
1.137853
0.908971
1.128912
1.050830
1.137853
1.408458
1.426935
1.538992
1.525879
1.752973
3.862977
12.961626
53.070784
115.078688
267.095566
437.040925
722.209811
906.329751
1015.695930
1015.695930
1015.695930
965.368748
701.797009
495.193601
260.051489
135.669708
46.799779
19.614697
10.255575
10.333657
14.171600
19.903779
32.516718
45.005679
63.463449
79.995990
96.439719
105.129480
105.938911
100.215673
85.347891
71.193576
51.975846
38.406849
25.193691
18.343925
13.297796
11.470914
10.264516
10.541677
10.007620
10.102987
10.203719
10.358691
10.460615
10.561943
10.885000
10.532737
10.693669
10.509491
10.712743
10.825992
10.366440
10.674596
10.578632
10.253787
10.277629
##ZVALUE=320
0.567436
0.597835
0.518560
0.692606
0.755787
0.705719
0.652671
0.702739
0.730753
0.735521
0.825524
0.649691
0.512600
0.645518
0.638962
0.774860
0.670552
0.767708
0.618696
0.767708
0.775456
0.875592
0.871420
0.894666
0.730753
0.899434
0.831485
0.916719
1.075864
0.891685
0.921488
0.953674
1.035929
1.083612
1.171827
1.128912
1.215935
1.452565
1.516938
1.501441
1.789927
2.000928
7.592440
25.160909
89.607835
176.726580
358.701944
530.977845
775.085688
945.740938
1015.695930
1015.695930
958.107710
798.571706
537.172556
345.443487
157.201886
79.615712
29.003620
13.509989
8.671880
9.572506
12.647510
17.398000
28.894544
40.572882
59.375763
74.268579
91.422796
99.498630
100.146532
95.714927
82.356930
69.245696
51.011443
38.028955
25.553703
19.024611
13.568997
11.790991
10.469556
10.207891
10.141730
10.110736
10.319948
10.475516
10.149479
10.275841
10.079741
10.661483
10.512471
10.425448
10.316968
10.558963
10.347962
10.322928
##ZVALUE=325
0.527501
0.634789
0.558496
0.576973
0.604987
0.749826
0.781417
0.816584
0.611544
0.577569
0.709891
0.705719
0.718832
0.655651
0.687838
0.437498
0.595450
0.568628
0.623465
0.634789
0.821948
0.720620
0.772476
0.727773
0.774860
0.794530
0.963807
0.864863
0.803471
0.911951
0.954866
0.983477
0.919700
0.932813
1.169443
1.225471
1.163483
1.188517
1.215935
1.265407
1.480579
1.293421
1.594424
1.822710
3.540516
19.794703
52.938461
138.927698
249.974728
473.428965
654.316545
880.517960
1004.841924
1015.695930
1000.815630
819.301605
630.750656
390.985608
236.754417
102.560520
48.380494
15.671849
9.202957
8.327961
9.115934
12.073517
17.403960
28.340816
40.092468
57.879686
71.613789
87.204576
94.137788
94.925761
90.084672
75.425506
63.657761
47.538877
36.000609
24.200678
17.864704
13.217926
12.064576
10.729432
11.009574
10.203719
10.639429
10.477901
10.039806
10.220408
10.183454
10.171533
10.088682
10.083914
9.952784
10.044575
##ZVALUE=330
0.522733
0.627637
0.554919
0.519753
0.558496
0.688434
0.531673
0.594854
0.696778
0.655651
0.669956
0.658631
0.620484
0.650883
0.692606
0.588894
0.772476
0.439882
0.576973
0.654459
0.893474
0.692606
0.657439
0.779629
0.816584
0.761747
0.810623
0.798702
0.723600
0.724792
0.852942
0.795722
1.067519
1.010895
0.941753
0.941753
1.083612
1.015663
1.096725
1.093745
1.075864
1.271963
1.184940
1.406670
1.627803
1.847744
2.247691
9.050965
28.279424
95.733404
186.316967
373.594761
552.001595
800.490975
958.367586
1015.695930
1015.695930
879.040956
712.240934
470.641851
305.361748
143.185854
72.192550
25.827885
12.008548
8.237958
8.499622
9.068847
11.513829
17.972589
26.261806
40.262938
53.318739
71.504712
81.714988
89.547634
90.178847
82.886815
74.406862
58.127642
46.032667
32.167435
25.206804
17.999411
14.335513
11.975765
10.982752
10.233521
10.052919
9.917617
9.946823
9.839535
9.761453
10.323524
9.674430
10.029674
##ZVALUE=335
0.648499
0.632405
0.666976
0.613928
0.552535
0.702739
0.623465
0.619888
0.649691
0.599623
0.583529
0.618696
0.542998
0.709891
0.528693
0.607967
0.613928
0.644922
0.664592
0.713468
0.664592
0.750422
0.644922
0.733733
0.709891
0.680685
0.643730
0.729561
0.763535
0.781417
0.756979
0.865459
0.787973
0.806451
0.901818
0.719428
0.854731
0.993609
0.988841
0.969768
0.956655
1.141429
0.872612
1.107454
1.110435
1.453757
1.441836
1.549721
1.722574
4.222989
14.799833
57.884455
125.564933
285.045505
457.463861
726.220608
905.826688
1015.686989
1015.686989
966.245532
815.028548
560.194850
375.106931
194.128752
101.845860
34.855604
15.302896
8.660555
8.049607
8.411407
9.216666
12.412667
16.575456
26.306510
36.086440
52.758455
64.746737
77.204704
83.490610
84.960461
79.787970
67.662001
58.242679
43.963790
34.443736
24.011731
18.330812
14.018416
11.656880
10.713935
9.864569
9.693503
9.607673
9.480715
9.517670
9.433627
##ZVALUE=340
0.612736
0.526905
0.655651
0.737906
0.713468
0.651479
0.518560
0.661612
0.764728
0.620484
0.547767
0.532866
0.561476
0.659823
0.689626
0.843406
0.753999
0.753999
0.705719
0.624657
0.756979
0.628829
0.762939
0.603795
0.441670
0.631809
0.735521
0.723600
0.563860
0.665784
0.891685
0.768900
0.921488
0.727773
0.843406
0.967979
0.829697
0.845790
0.844598
1.038909
1.017451
1.005530
1.044869
1.031756
1.127720
1.232624
1.341701
1.377463
1.463890
1.563430
1.836419
2.496839
7.684827
37.790537
95.177889
245.453715
419.984460
690.037012
901.114941
1015.700698
1015.700698
1015.700698
989.764929
727.264881
504.376888
260.010958
140.947700
55.515766
22.661686
9.712577
8.652806
8.605719
8.615851
9.898543
12.056828
17.532706
24.606586
36.030412
47.247410
62.716603
72.453618
79.173446
80.178976
75.300932
67.691803
54.641962
44.689775
32.567978
24.844408
18.051863
14.016628
11.091828
10.073781
9.364486
9.154677
9.402633
##ZVALUE=345
0.601411
0.596642
0.621676
0.573993
0.723600
0.679493
0.566840
0.428557
0.589490
0.510812
0.582933
0.564456
0.572801
0.683665
0.659823
0.610948
0.489950
0.594854
0.653863
0.590682
0.590682
0.673532
0.634789
0.695586
0.652671
0.680685
0.602603
0.829697
0.616908
0.752807
0.645518
0.778437
0.668764
0.622869
0.817776
0.922680
0.962615
0.906587
1.000762
0.821948
0.881553
0.861883
0.900626
1.043677
1.017451
1.131892
1.190901
1.220703
1.057982
1.377463
1.303554
1.640916
1.629591
1.842976
4.487634
15.908480
68.324804
145.937800
317.591429
499.664545
796.938539
997.009873
1015.696526
1015.696526
1015.696526
955.017805
646.136999
416.373610
183.077455
86.636543
27.080774
12.690425
8.628964
8.202791
8.109808
8.224845
9.077787
11.088848
16.026497
22.041798
33.740997
43.998957
56.297779
64.118505
72.666407
73.845983
70.826411
64.388514
53.116679
43.403506
31.532645
24.929643
17.340779
13.870597
11.085868
9.867549
##ZVALUE=350
0.566840
0.571609
0.634789
0.518560
0.598431
0.571609
0.708699
0.561476
0.616908
0.556707
0.598431
0.699759
0.678897
0.604987
0.660419
0.529885
0.439882
0.734925
0.579953
0.612736
0.632405
0.601411
0.744462
0.627637
0.748634
0.612736
0.648499
0.624657
0.696778
0.841618
0.675917
0.558496
0.653863
0.638962
0.784993
0.700951
0.891685
0.775456
0.845790
0.949502
0.809431
0.770688
0.857711
0.809431
0.837445
1.052618
0.934601
1.039505
1.024604
1.065731
1.138449
0.972748
1.180768
1.467466
1.394749
1.763701
2.208948
9.887815
31.941533
104.426742
208.961964
424.740911
623.636842
863.780975
1002.581716
1015.695930
1015.695930
852.649808
663.326979
410.196781
249.163508
111.206770
50.804615
14.972687
8.829832
7.660985
7.317662
7.282495
7.695556
8.522868
10.242462
15.211701
20.018816
30.294657
38.262606
50.481558
58.652759
65.259933
67.314506
65.149665
60.290694
49.864650
41.443706
31.145811
24.306774
17.418861
##ZVALUE=355
0.591874
0.489950
0.510812
0.624657
0.577569
0.613928
0.623465
0.537634
0.595450
0.544786
0.681877
0.677705
0.740886
0.558496
0.560880
0.788569
0.686646
0.678897
0.572801
0.742674
0.547767
0.655651
0.725985
0.658631
0.770688
0.800490
0.710487
0.641942
0.651479
0.594854
0.843406
0.751615
0.832677
0.693798
0.590682
0.597835
0.736713
0.720620
0.850558
0.784993
0.805855
0.947714
0.816584
0.895858
0.752807
0.752807
0.887513
0.754595
1.019835
1.076460
1.009703
1.072884
1.212955
1.241565
1.325607
1.383424
1.529455
1.518726
1.881719
3.576875
20.271540
55.831671
157.366991
288.737416
528.298616
718.753934
926.948786
1011.528969
985.935926
862.779617
633.603930
462.371707
263.797641
147.531629
57.473779
24.719834
9.756684
7.377863
6.865859
7.135868
7.131696
7.103682
8.020997
9.357929
12.631416
17.363429
25.667548
33.222437
44.092536
51.654577
58.505535
61.407685
59.638619
55.786967
46.772957
40.182471
##ZVALUE=360
0.687838
0.603795
0.614524
0.449419
0.493526
0.441670
0.620484
0.586510
0.533462
0.609756
0.607967
0.657439
0.487566
0.675917
0.615716
0.641942
0.577569
0.708699
0.655651
0.690818
0.740886
0.794530
0.796914
0.601411
0.602603
0.666976
0.635982
0.707507
0.731945
0.700951
0.677705
0.708699
0.656843
0.461936
0.799894
0.854731
0.880957
0.902414
0.824928
0.784993
0.809431
0.754595
0.918508
0.945926
0.948906
0.800490
0.823736
1.014471
1.016855
1.165867
1.103878
1.087785
1.095533
1.121759
1.101494
1.068711
1.267791
1.414418
1.449585
1.426935
1.845956
2.590418
7.511973
34.122467
88.531971
241.447687
419.344902
694.985986
911.893845
1015.695930
1015.695930
1010.362506
853.039026
562.893748
368.739963
177.704692
93.132854
34.425855
14.344454
7.354617
6.810427
6.771684
6.560683
6.437898
6.582737
7.370710
8.352995
11.158586
14.018416
20.349622
27.569532
37.498474
44.607520
52.450895
54.802895
55.297613
##ZVALUE=365
0.569820
0.614524
0.631809
0.526905
0.511408
0.497699
0.427961
0.578761
0.724792
0.553727
0.568628
0.677705
0.632405
0.611544
0.693798
0.720620
0.695586
0.647902
0.690818
0.685453
0.601411
0.535846
0.817776
0.691414
0.687838
0.662804
0.728965
0.567436
0.740886
0.577569
0.544786
0.701547
0.634789
0.656843
0.806451
0.710487
0.817776
0.788569
0.790954
0.741482
0.855923
0.779629
0.742674
0.855923
0.917912
0.927448
0.781417
1.056790
1.008511
0.910759
1.089573
0.924468
0.944734
0.931621
1.129508
1.218915
1.180768
1.301765
1.272559
1.393557
1.503825
1.634955
1.782775
2.083778
3.651977
19.099712
51.855445
143.729448
276.900530
536.784530
763.903856
1001.057029
1015.701890
1015.701890
962.334871
692.563653
481.225848
255.343914
136.643648
48.275590
20.365715
7.711649
6.632805
6.227493
6.157756
6.197691
6.114841
6.061792
6.460547
7.289648
9.007454
12.960434
17.005801
25.129914
31.965971
39.745569
##ZVALUE=370
0.534654
0.454783
0.675917
0.415444
0.511408
0.581741
0.598431
0.498891
0.660419
0.377893
0.526905
0.715852
0.639558
0.491738
0.684857
0.600815
0.646710
0.575781
0.588894
0.549555
0.550747
0.572801
0.363588
0.620484
0.605583
0.650883
0.718832
0.728965
0.637770
0.578761
0.659823
0.708699
0.784993
0.564456
0.759959
0.706911
0.747442
0.747442
0.635982
0.747442
0.764728
0.657439
0.827909
0.783801
0.687838
0.746846
0.853539
0.732541
0.903606
0.743866
0.863671
0.894666
0.749826
0.939965
0.871420
0.810623
0.960827
1.002550
0.993609
0.986457
1.120567
1.250505
1.214743
1.505613
1.437664
1.612902
2.122521
10.082722
33.132434
105.269551
198.241472
381.712914
558.948517
793.719888
912.207961
948.244929
879.200697
695.420504
510.261655
281.451941
156.242847
60.470700
26.944876
10.493994
6.789565
5.932450
5.651712
5.799532
5.545616
5.544424
5.402565
5.759597
6.151795
7.961988
10.312796
14.949441
##ZVALUE=375
0.457764
0.405908
0.362992
0.696778
0.399947
0.509620
0.681877
0.516772
0.584722
0.432730
0.562668
0.416636
0.536442
0.480413
0.536442
0.555515
0.550747
0.413656
0.610948
0.518560
0.532866
0.481606
0.461936
0.619888
0.501871
0.714660
0.606775
0.647902
0.716448
0.678897
0.569820
0.463724
0.509620
0.488758
0.572801
0.525713
0.357628
0.481606
0.711679
0.627637
0.720620
0.675917
0.773668
0.741482
0.780821
0.651479
0.746846
0.694990
0.711679
0.741482
0.753999
0.698566
0.737906
0.816584
0.741482
0.717640
0.808835
0.760555
0.890493
0.828505
0.934601
0.904799
0.988841
1.031756
1.049638
1.262426
1.367927
1.576543
1.893640
5.140901
18.925667
69.260597
146.915913
320.696831
478.484631
689.343810
835.494995
933.196545
902.722478
747.764707
574.181676
345.633626
212.947726
104.004741
51.356554
16.828775
7.954836
5.824566
5.267859
5.235672
5.212426
5.173683
5.052686
4.989505
5.349517
5.467534
##ZVALUE=380
0.563860
0.423789
0.448823
0.429749
0.577569
0.616908
0.468493
0.512600
0.431538
0.552535
0.650883
0.595450
0.371933
0.429749
0.612736
0.523925
0.569820
0.603795
0.516772
0.490546
0.531673
0.422597
0.739694
0.492930
0.555515
0.614524
0.563860
0.688434
0.572801
0.691414
0.456572
0.573993
0.594854
0.591874
0.740886
0.667572
0.669956
0.668764
0.626445
0.629425
0.619888
0.810623
0.577569
0.737906
0.766516
0.729561
0.801682
0.660419
0.695586
0.624657
0.755787
0.681877
0.639558
0.769496
0.761747
0.623465
0.702739
0.697970
0.834465
0.826716
0.747442
0.953674
0.896454
1.059771
1.125932
1.061559
1.160502
1.169443
1.444817
1.458526
1.685619
2.856851
10.488629
49.818754
112.825632
259.456635
416.241884
648.033023
821.029544
970.781446
984.390974
861.347914
711.928606
488.711596
319.672823
154.097676
77.497959
26.059747
11.341572
5.867481
5.060434
5.043745
4.729629
4.833937
4.805923
4.848838
##ZVALUE=385
0.450611
0.504851
0.481606
0.455976
0.512600
0.457764
0.538826
0.463724
0.401735
0.542998
0.552535
0.428557
0.471473
0.428557
0.491738
0.666976
0.579953
0.492930
0.433922
0.593662
0.463724
0.612736
0.489950
0.592470
0.596642
0.617504
0.619888
0.561476
0.508428
0.488758
0.506639
0.547767
0.706911
0.625849
0.692606
0.594854
0.645518
0.545979
0.726581
0.839829
0.623465
0.623465
0.625849
0.679493
0.670552
0.711679
0.704527
0.516772
0.519753
0.621676
0.654459
0.852942
0.670552
0.663996
0.803471
0.798702
0.844598
0.693798
0.687838
0.680685
0.789762
0.824928
0.832677
0.930429
0.790954
1.005530
1.008511
1.028776
1.229644
1.264811
1.429915
1.457930
1.596808
2.003908
4.820824
27.553439
70.770979
178.907514
315.733552
565.208793
755.762458
952.849984
1015.539765
976.489782
872.375965
639.764667
447.286963
237.083435
130.587816
51.574707
20.348430
6.720424
4.966855
4.590750
4.727840
4.623532
##ZVALUE=390
0.493526
0.340939
0.580549
0.431538
0.460744
0.617504
0.678897
0.555515
0.664592
0.568628
0.413656
0.515580
0.517964
0.778437
0.556707
0.509620
0.510812
0.448823
0.537634
0.448823
0.544786
0.526905
0.613928
0.412464
0.540614
0.482798
0.584722
0.580549
0.670552
0.650883
0.641942
0.597835
0.703931
0.502467
0.499487
0.629425
0.581741
0.602603
0.544786
0.719428
0.687838
0.623465
0.615716
0.657439
0.567436
0.640750
0.769496
0.716448
0.623465
0.614524
0.720620
0.737906
0.633597
0.551939
0.566840
0.568628
0.692606
0.655651
0.596642
0.877976
0.757575
0.905991
0.858903
0.876784
0.946522
0.962615
0.958443
1.069903
1.043677
1.334548
1.290441
1.383424
1.384616
1.394749
1.440644
1.737475
2.602935
14.534593
47.584772
146.064758
275.270939
516.937971
701.872706
908.786654
1015.695930
1015.695930
1012.248993
814.251900
617.062449
367.248654
208.546519
78.640580
33.558607
9.593964
5.418658
4.563928
##ZVALUE=395
0.548959
0.365973
0.592470
0.550747
0.563860
0.416636
0.549555
0.443459
0.467896
0.599623
0.560880
0.513792
0.385642
0.561476
0.410676
0.442863
0.585914
0.374913
0.433922
0.392795
0.464916
0.669956
0.542998
0.680685
0.670552
0.542998
0.606775
0.588894
0.397563
0.615716
0.597835
0.639558
0.533462
0.493526
0.543594
0.525713
0.727773
0.618696
0.668764
0.606775
0.678897
0.581741
0.499487
0.616908
0.637770
0.573993
0.611544
0.616908
0.711679
0.819564
0.675917
0.772476
0.586510
0.558496
0.781417
0.615716
0.808835
0.710487
0.689626
0.684857
0.587702
0.770688
0.715852
0.720620
1.015663
0.784993
0.990629
0.930429
1.002550
1.177788
1.137853
1.369715
1.198649
1.184940
1.259446
1.397729
1.373887
1.484752
1.907945
8.075833
30.796528
107.209682
200.035572
371.114612
542.497039
775.643587
914.350748
1000.011563
974.102616
827.742815
648.204684
397.157669
251.587629
117.147565
53.970814
17.600656
##ZVALUE=400
0.524521
0.532866
0.416636
0.550747
0.524521
0.452995
0.513792
0.420809
0.474453
0.450611
0.572801
0.574589
0.423789
0.471473
0.589490
0.569820
0.599623
0.517964
0.568628
0.494719
0.513792
0.443459
0.568628
0.621676
0.496507
0.632405
0.517964
0.527501
0.547767
0.584722
0.552535
0.672936
0.614524
0.571609
0.657439
0.656843
0.580549
0.595450
0.711679
0.627637
0.649691
0.560880
0.650883
0.580549
0.598431
0.641942
0.708699
0.629425
0.582933
0.523925
0.667572
0.670552
0.716448
0.659823
0.644922
0.721812
0.622869
0.760555
0.713468
0.825524
0.791550
0.749826
0.724792
0.695586
0.719428
0.804663
0.836849
0.960827
1.020432
0.980496
1.094937
1.201630
1.125932
1.176596
1.197457
1.274943
1.335740
1.334548
1.179576
1.506805
1.680851
3.369451
17.757416
51.628947
149.311423
278.062820
511.616468
708.375573
933.315754
1015.695930
1015.695930
956.228971
721.250772
519.834757
295.517445
175.534487
##END
