##TITLE=TAPF02
##FORMAT=SPECTACLE-ASCII V-1.2
##DATA TYPE=ULTRAVIOLET SPECTRUM
##SECOND TYPE=ULTRAVIOLET SPECTRUM
##DATE=12/04/17
##TIME=10:23:54
##SPECTROMETER/DATA SYSTEM=SPECTACLE
##XUNITS=NM EM
##YUNITS=ENERGY
##YFACTOR=1
##FIRSTX=220
##LASTX=410
##NPOINTS=96
##3DDATA=Equidistant
##ZUNITS=NM EX
##FIRSTZ=210
##LASTZ=400
##ZPOINTS=39
##XYDATA=(Y..Y)
##ZVALUE=210
14.870763
15.420914
12.227893
9.459853
7.993579
7.218719
7.269979
7.548928
6.184578
5.760789
4.963875
3.565550
3.855824
3.787875
3.012419
3.969669
4.146695
4.199743
5.335808
5.079508
4.713535
5.292892
5.637407
6.220937
6.345510
7.441640
7.669926
8.933544
8.977652
8.484721
10.231733
9.778738
10.723472
10.147691
11.349916
11.643767
12.312531
12.993813
12.457967
12.485981
12.574792
13.334751
13.766885
14.087558
15.345812
15.966892
15.797615
16.812682
17.885566
17.158985
15.877485
16.394854
17.914772
18.700957
17.865896
18.974543
20.897985
18.079877
21.597743
20.772815
21.389723
20.804405
21.368861
20.749569
22.638440
25.257468
26.912689
29.984713
35.822988
40.525794
49.920678
58.449507
68.835616
79.592466
84.843636
88.339448
88.864565
88.567734
83.566904
78.241825
72.470903
63.543916
53.736567
50.072670
40.304661
34.264922
32.656789
29.722452
26.635528
27.384758
28.510690
29.868484
32.910705
36.324859
37.027597
39.749742
##ZVALUE=215
53.169727
51.758885
41.225553
32.338500
26.707649
18.426776
16.104579
14.833808
13.871789
12.488961
11.218786
9.154677
8.335710
5.419850
5.727410
4.653931
5.324483
5.059838
4.389882
5.367994
4.995465
6.455779
6.589890
7.235408
7.638931
7.377863
8.576512
8.475780
9.237528
9.283423
9.911656
11.078715
10.941625
12.619495
12.144446
12.169480
12.918711
12.202859
14.314651
13.653636
15.117526
15.181899
14.763474
16.154647
15.757680
16.110539
15.868545
16.729832
16.975999
18.395782
18.237829
18.952489
18.709898
19.648671
20.148754
20.054579
20.276904
21.073818
20.519495
20.098686
21.077991
20.860434
22.543669
22.978783
23.143888
24.530888
29.433966
29.132962
35.611987
42.078495
52.266717
55.434704
66.837668
75.795650
78.503489
80.762506
82.505941
80.374479
77.446699
75.070858
66.503882
58.406591
52.407980
48.256516
40.391684
34.790635
31.887889
29.251575
26.293993
27.197599
24.136901
24.970770
23.278594
25.296807
28.776526
29.636621
##ZVALUE=220
130.593777
132.334828
139.219761
125.663877
102.458596
75.918436
58.929920
39.403439
29.968619
26.000738
21.764636
22.529960
20.920634
18.677711
16.470551
12.137890
9.234548
7.569790
6.737709
5.632639
6.322861
7.283688
6.904602
9.199977
8.464456
9.369850
8.847713
9.311438
10.835528
10.922551
11.087656
12.212992
12.125969
12.436509
13.287663
13.817549
14.506578
14.390945
13.550520
14.838576
14.895797
14.953613
18.159747
18.134713
17.264485
17.169714
18.213987
19.395947
18.450618
19.684434
19.945502
20.050406
20.764470
20.356774
21.066666
21.139979
22.032857
22.805929
23.804903
23.736954
23.621917
25.112629
23.319721
24.390817
25.389791
27.210712
29.092431
32.295585
36.171675
42.173862
47.335625
57.229996
68.187714
74.528456
78.422427
82.645416
82.525611
83.597898
76.533556
74.732900
66.430569
59.152842
53.455830
44.967532
38.604736
36.387444
32.064915
31.475425
30.313730
27.846694
27.452707
24.411678
26.126504
24.240613
24.878979
26.604533
##ZVALUE=225
175.915956
187.125802
226.859450
261.287689
265.635848
259.485841
228.983760
168.306828
125.603676
88.443756
54.577589
40.593743
38.704872
39.469600
35.740733
33.087730
28.433800
21.157861
18.126965
13.687611
10.025501
9.435415
8.073449
9.213686
8.763671
9.624958
9.652972
9.133816
12.389421
11.497736
13.324618
13.564825
14.162660
14.029741
14.289618
15.999675
15.273690
16.759634
16.800761
16.590953
17.060637
17.649531
17.045736
17.768741
19.464493
22.249818
19.790530
19.879937
20.760894
19.523501
22.117496
22.045970
21.616817
23.771524
23.512840
23.805499
23.320913
22.700429
25.968552
24.570823
25.161505
26.092529
27.740598
26.925802
28.171539
28.089881
31.569600
33.406615
36.409497
42.109489
48.233867
58.043599
61.527491
73.510408
71.580410
74.064732
75.685978
68.959594
67.824721
64.241886
55.802464
52.461624
46.893954
43.530464
39.131641
36.003590
31.432509
31.738877
28.475523
31.919479
27.783513
28.681755
26.255846
26.227832
26.604533
24.277568
##ZVALUE=230
129.063725
141.251683
214.492679
335.251689
419.807434
499.788523
537.150502
520.840883
455.384851
375.700593
248.336792
160.081983
97.397566
68.690777
60.714483
59.834719
63.010454
56.097507
53.093433
44.611692
35.426617
22.095442
17.852783
12.680888
12.536645
11.244416
11.035800
12.384653
12.344718
11.500716
12.078881
12.432933
14.620423
15.847683
15.431643
15.776753
16.427636
17.767549
18.400550
17.099977
17.224550
19.364953
18.753409
19.615889
20.693541
20.115972
19.776821
19.353628
22.972822
21.584630
22.400618
22.782683
23.903847
24.336576
23.794770
26.475787
26.177764
27.153492
28.047562
26.347637
27.248859
28.606653
30.024648
26.993752
29.921532
30.914545
32.340884
35.255551
42.105913
46.262741
51.139593
58.712959
69.623590
72.316527
72.826743
77.186823
75.652599
70.958734
66.573620
62.083602
57.637691
51.680803
46.612620
42.290688
38.969517
37.113428
34.151673
34.894943
29.268861
32.161474
30.797720
30.543804
30.544996
28.971434
29.408932
29.779673
##ZVALUE=235
34.693480
44.613481
92.483759
205.191970
327.015519
508.594513
662.497878
844.202638
914.585590
922.374725
802.494884
666.445494
445.869565
315.252542
185.912848
129.578710
93.570948
89.320540
91.660619
89.958906
87.515712
72.959661
59.080720
41.001439
30.945539
24.468899
17.071962
16.199946
16.535521
14.356971
15.497804
16.814470
16.823411
17.087460
16.859770
18.770695
17.947555
17.014742
18.054843
18.454790
18.771887
19.707680
20.243526
21.113753
21.996498
21.098852
22.079945
21.840930
23.528934
21.299720
22.319555
25.421977
24.329424
25.955439
24.739504
27.651787
26.179552
27.367473
29.136539
27.057528
26.459694
29.868484
29.809475
30.613542
34.770966
34.138560
35.010576
37.554502
41.683912
48.405528
53.099990
60.382485
69.015622
73.745847
79.269409
76.864958
73.692799
74.469447
68.752766
63.851476
58.489442
56.230426
48.416853
44.564605
41.006804
39.449930
35.282969
34.608841
32.860637
32.904744
32.724738
34.884810
34.429431
32.416582
30.464530
32.006502
##ZVALUE=240
3.133416
2.532601
12.962818
35.672784
108.788013
204.847455
416.745543
622.938871
936.205983
1015.598774
1015.598774
1015.598774
1015.598774
987.418890
763.688087
471.735001
318.655968
183.582902
128.579736
110.557675
109.385848
119.154453
115.259886
110.082626
82.062483
68.235993
52.833557
38.889647
29.531717
22.489429
18.738508
18.535852
17.384887
17.056465
17.262697
17.494559
18.315911
18.954873
18.820763
19.445419
19.320846
18.416643
19.571781
20.268559
20.077825
20.038486
19.001961
20.514727
21.397471
21.139979
21.263957
23.309588
23.353696
23.981929
22.263527
23.090839
23.755431
24.545789
26.288629
26.676655
26.587844
27.243495
28.715730
27.819872
30.882955
30.825734
32.816529
38.432479
39.523840
44.543743
49.681664
58.600903
63.145757
68.799853
70.739985
75.419545
70.507526
70.141554
62.828660
59.021711
55.946708
50.733685
46.414733
42.213798
37.931800
35.847425
34.611821
33.550858
33.856630
32.370687
33.105612
30.823946
30.126572
29.494762
30.963421
30.974746
##ZVALUE=245
2.058744
2.217889
2.462864
2.709627
7.142425
24.982691
88.058710
189.547539
419.939756
668.557882
1009.127498
1015.647650
1015.647650
1015.647650
1015.647650
1015.647650
1015.647650
744.222999
498.194695
264.051557
165.447593
116.719604
113.600492
124.701858
129.416585
126.558542
112.505555
99.883676
76.433420
61.226487
45.523643
32.324791
23.851991
20.199418
18.322468
17.808676
17.585754
17.153621
15.951991
17.351508
17.609596
16.954541
16.769767
16.663671
16.808510
18.095970
18.640757
17.898679
18.901825
18.467903
19.508600
18.724799
19.133687
19.898415
19.442439
21.398664
20.211935
21.809936
21.026731
23.451447
23.496747
23.286939
23.172498
23.748875
25.616884
25.812984
28.626919
29.510856
32.853484
39.596558
42.087436
47.940612
52.888989
57.129860
59.963465
60.708523
61.688423
55.446625
51.666498
51.635504
44.994950
42.932630
37.974715
35.052896
33.081770
31.750798
31.552911
29.722452
27.996898
28.076768
26.944876
28.164983
27.361512
26.656985
27.208924
28.486848
##ZVALUE=250
1.682639
2.057552
2.009869
2.044439
1.943707
2.273917
3.775954
18.653870
56.873560
133.646727
357.741714
620.768666
1009.770632
1015.502810
1015.502810
1015.502810
1015.502810
1015.502810
1015.502810
1015.502810
746.958852
392.780900
228.195786
127.243996
111.286640
121.503472
135.621428
136.888623
134.596825
121.432543
104.450583
79.716444
62.392950
40.439963
31.727552
21.137595
19.583702
15.965700
15.467405
15.859604
16.774535
15.656948
14.974475
15.843511
15.315413
16.389489
17.223954
16.841888
15.447736
16.168952
17.973781
16.560555
16.870499
17.092824
19.003749
17.657876
18.102527
17.826557
17.664433
19.528866
19.218922
19.700527
19.104481
20.186901
21.383762
21.536946
23.956895
25.545955
26.451945
31.821728
34.910440
39.534569
42.653680
47.782660
49.223900
49.814582
49.751997
44.693947
44.780970
40.811896
37.089586
33.337474
32.340884
26.770830
28.799772
25.857687
24.336576
24.488568
23.794770
24.256706
22.177696
23.411512
22.262931
21.590590
22.237897
21.761656
##ZVALUE=255
2.154708
1.870990
1.944900
2.339482
2.156496
2.468824
2.837777
2.684593
3.754497
8.737445
48.240423
122.373700
266.500711
582.537651
920.276642
1015.768647
1015.768647
1015.768647
1015.768647
1015.768647
1015.768647
1015.768647
972.020626
632.793903
302.534699
178.213716
110.406876
107.425451
124.812722
141.205788
142.880678
141.178966
130.803585
107.372999
83.283782
59.501529
44.702888
29.647946
21.899939
16.791821
15.625954
15.327930
15.852451
15.179515
15.510917
15.494823
15.449524
15.128851
14.857650
15.736818
15.401840
16.971827
15.431643
15.866756
15.865564
16.415715
16.954541
15.875697
16.543865
17.027855
16.318560
16.945601
17.896891
17.334819
17.231703
18.646717
20.457506
21.583438
23.665428
26.777983
30.584931
32.806993
35.549998
39.576888
40.189624
40.898919
39.018989
37.204623
33.527613
31.773448
29.619932
26.400685
25.020838
23.578405
22.918582
21.913648
20.307899
21.942854
19.783974
20.827651
20.005703
19.069910
18.640757
18.161535
19.060969
18.117428
##ZVALUE=260
1.557469
1.499653
1.812577
1.744628
2.058744
2.154708
2.064705
2.287626
2.214909
2.645850
3.227592
4.211664
23.088455
70.486665
208.591819
416.619778
878.250003
1015.502810
1015.502810
1015.502810
1015.502810
1015.502810
1015.502810
1015.502810
1015.502810
867.026448
542.436838
264.759660
148.751736
96.362829
103.159547
125.836730
139.430761
148.268938
147.072673
129.815936
111.223459
85.310936
64.512491
42.792559
30.961633
21.273494
17.679930
15.498996
14.105439
13.641715
13.858676
13.720989
14.328957
13.926625
14.557838
14.923811
13.600588
14.226437
14.558434
15.017986
13.900995
15.300512
15.094876
14.378428
14.891624
14.766455
16.063452
16.290545
15.848875
16.025901
17.685890
17.506480
20.046830
22.843480
25.174618
28.330684
30.234456
31.931996
34.173727
33.544898
32.423735
29.867887
29.457808
26.831627
24.702549
22.434592
20.678639
19.505620
18.494725
17.276406
17.048717
16.896725
18.232465
16.522408
16.236901
16.047955
16.611814
15.312433
16.637444
16.302466
##ZVALUE=265
1.480579
1.540780
1.661777
1.507998
1.826882
1.652837
1.719594
2.063513
2.183914
1.954436
2.598763
2.796650
2.792478
3.964901
9.248853
55.793524
142.546892
372.983813
680.137873
1015.502810
1015.502810
1015.502810
1015.502810
1015.502810
1015.502810
1015.502810
1015.502810
1015.502810
714.043975
416.196585
235.375762
103.257895
86.222887
108.099580
128.213763
143.105984
149.022937
142.000914
132.796764
109.494925
86.509585
59.236884
43.622851
28.340816
21.701455
15.987754
14.507771
14.106631
13.546944
13.372898
13.859868
13.793707
13.994575
14.610887
14.468431
13.609529
13.190508
13.997555
14.085770
14.616847
13.710856
14.503598
14.237761
14.624000
14.940500
15.253425
16.079545
16.918778
18.436909
20.089746
22.182465
24.182796
26.999712
28.462410
29.927492
28.043985
28.184652
25.967956
23.747683
21.202564
20.301938
19.470453
17.965436
17.027855
16.082525
15.574694
15.814900
15.112758
14.829636
15.043616
14.319420
14.716983
14.021993
14.307499
14.174581
13.829470
##ZVALUE=270
1.284480
1.450777
1.454949
1.467466
1.678467
1.803637
1.849532
2.127886
1.788735
1.988411
2.240539
2.391934
2.136827
2.820492
3.071427
3.644824
5.129576
23.742914
79.787970
275.428891
562.461019
972.308517
1015.502810
1015.502810
1015.502810
1015.502810
1015.502810
1015.502810
1015.502810
1015.502810
1015.502810
660.687089
355.922580
136.189461
79.098940
83.668828
106.367469
129.667521
141.824484
150.216818
146.350861
129.721761
110.771656
83.569884
63.449740
41.342974
31.633973
22.056699
16.585588
15.228987
13.987422
13.906956
13.273954
13.726950
13.920665
13.503432
13.940930
14.312863
14.075637
13.118982
14.041662
13.727546
14.450550
13.144612
13.954639
14.320612
15.476942
15.908480
17.225742
18.958449
20.206571
23.023486
24.724603
26.173592
27.140975
26.461482
24.744868
23.261905
22.066832
19.806623
18.084645
16.572475
15.511513
15.167594
14.562607
14.520884
13.482571
12.663603
13.595819
13.219714
13.428926
12.973547
13.645887
13.013482
12.780428
12.283921
##ZVALUE=275
1.478791
1.587868
1.473427
1.643896
1.949668
1.803637
1.613498
1.997948
1.709461
2.083778
2.087951
2.118945
2.271533
2.304912
2.571940
2.781749
3.041625
3.737807
4.002452
11.451840
49.736500
148.962736
464.809537
883.879662
1015.502810
1015.502810
1015.502810
1015.502810
1015.502810
1015.502810
1015.502810
1015.502810
1015.502810
913.000703
511.568785
197.039843
96.965432
66.057444
80.025792
107.176900
125.262737
143.513680
148.965716
143.750906
131.308436
105.346441
87.076426
62.062740
46.117902
30.936599
22.404790
16.845465
14.554858
13.727546
14.512539
13.291836
13.462901
12.792945
13.106465
13.270974
13.174415
13.507605
13.273954
13.529658
13.655424
13.544559
14.168620
15.040636
15.808940
17.555952
19.693971
21.881461
23.246408
25.290847
25.141835
24.860501
23.466945
22.893548
21.362901
18.987656
17.799735
16.046762
14.761686
14.213920
13.705492
12.847781
12.923479
12.604594
11.989474
11.973977
11.873841
12.268424
12.056828
11.916757
11.419654
11.420846
##ZVALUE=280
1.357794
1.472831
1.505613
1.471639
1.576543
1.584888
1.683831
1.502633
1.685619
1.877546
1.741648
2.142787
1.916885
2.177954
2.203584
2.401471
2.481937
2.972484
2.973676
3.433824
4.259944
5.434752
32.176971
115.511417
385.003686
724.054575
1015.502810
1015.502810
1015.502810
1015.502810
1015.502810
1015.502810
1015.502810
1015.502810
1015.502810
1015.502810
712.968707
297.147632
135.098696
58.853626
58.967471
80.805421
100.571513
123.750567
139.661431
145.269632
139.612556
125.673413
108.504891
83.514452
63.707829
42.576790
31.465888
21.144748
16.879439
14.164448
13.625622
13.123751
12.758970
12.685657
12.884736
12.891889
13.164878
12.744665
12.654662
13.580918
13.964772
14.000535
15.407801
16.666651
18.347502
20.113587
21.028519
22.404790
22.631884
21.931529
21.233559
19.834638
18.878579
16.825795
15.543699
14.319420
13.800859
12.914538
12.385845
12.562871
12.098551
11.929870
12.057424
11.021495
11.794567
11.359453
11.169910
10.812879
11.770725
10.863543
##ZVALUE=285
1.418591
1.253486
1.368523
1.386404
1.417994
1.223683
1.586676
1.480579
1.480579
1.698732
1.739860
1.680851
1.965761
1.993775
1.879930
2.118945
2.109408
2.470613
2.876520
2.848506
3.110766
3.382564
4.321933
4.820824
15.554428
58.908463
213.633776
464.078784
983.753800
1015.483737
1015.483737
1015.483737
1015.483737
1015.483737
1015.483737
1015.483737
1015.483737
1015.483737
1003.894806
500.427485
242.065787
78.790784
45.532584
56.395531
73.973536
99.706650
117.022991
132.610798
139.435530
135.730505
125.997663
105.357766
85.885525
62.918663
45.427680
29.391646
21.300912
16.208887
13.554692
12.282729
12.509823
11.952519
12.151599
12.363791
12.276769
12.152791
12.718439
13.488531
13.485551
15.651584
17.044544
18.131733
18.622875
19.703507
19.712448
20.308495
18.404722
17.612576
16.478896
15.001893
14.467835
13.844967
12.532473
12.083650
11.646748
11.431575
11.717677
11.329651
11.079907
11.523962
10.897517
10.468960
10.732412
10.830760
10.992885
10.709763
##ZVALUE=290
1.302958
1.120567
1.253486
1.381636
1.343489
1.526475
1.550913
1.577735
1.550913
1.649857
1.735687
1.664758
1.754761
1.999736
1.887679
1.847744
1.970530
2.212524
2.330542
2.303720
2.661943
2.995729
3.030896
3.711581
4.155636
5.188584
5.851984
30.236840
100.620389
329.766870
668.686628
1015.502810
1015.502810
1015.502810
1015.502810
1015.502810
1015.502810
1015.502810
1015.502810
1015.502810
1015.502810
747.018456
383.365750
125.462413
51.967502
39.647818
50.980449
70.668459
89.177489
112.532973
126.300454
135.865808
134.702921
120.638609
103.224516
78.225732
60.869455
41.558743
30.517578
20.280480
16.102791
12.926459
12.112856
11.541843
11.907816
11.697412
12.007952
12.761950
13.005733
14.880896
15.793443
16.620755
17.158985
17.840862
18.243790
17.401576
17.278790
15.529990
14.563799
13.505816
12.439489
12.443662
11.858940
11.478662
11.235476
10.975599
10.793805
10.770559
10.823607
10.341406
10.534525
10.233521
10.093451
10.058880
9.601712
9.879470
##ZVALUE=295
1.306534
1.152754
1.118779
1.061559
0.990629
1.254678
1.371503
1.395941
1.394749
1.649857
1.755953
1.463890
1.470447
1.713634
1.716614
1.613498
1.719594
1.884699
2.020597
2.437830
2.650619
2.497435
2.775788
2.895594
3.470778
3.609657
4.191995
4.605651
5.560517
10.354519
40.588975
193.588734
459.060669
1015.164852
1015.502810
1015.502810
1015.502810
1015.502810
1015.502810
1015.502810
1015.502810
1015.502810
1015.502810
995.416045
574.250817
196.674466
79.461932
32.912493
34.142733
48.630834
65.126419
87.651610
103.854537
122.149587
126.252770
124.415755
117.256641
96.663833
80.776811
56.790709
42.699575
28.107762
20.855665
14.702678
12.683868
11.688471
11.577606
11.857748
12.310743
13.538599
14.772415
15.972853
16.283989
16.967654
16.943812
16.239882
15.378594
14.248490
13.239980
12.258887
11.999607
11.119843
11.129975
10.588765
10.746717
10.666847
10.467768
9.964705
10.151863
10.248423
10.027885
9.734631
9.844899
9.560585
9.587407
9.912848
##ZVALUE=300
1.264811
1.181960
1.146793
1.232624
1.241565
1.237988
1.366735
1.346469
1.326799
1.544952
1.445413
1.359582
1.409650
1.631975
1.786947
1.768470
1.651645
1.808405
1.888871
2.020597
2.158880
2.525449
2.453923
2.715588
2.870560
3.289580
3.128648
3.727674
4.127622
4.505515
5.286932
6.311536
27.502775
105.119944
376.311541
760.688782
1015.502810
1015.502810
1015.502810
1015.502810
1015.502810
1015.502810
1015.502810
1015.502810
1015.502810
1015.502810
829.204917
436.231494
144.190788
51.821470
26.247501
31.889677
44.350624
57.660937
79.416633
95.034838
114.565492
120.101571
119.395852
111.944675
95.216632
79.255700
58.518648
44.304729
28.518438
20.956993
15.267730
13.171434
12.758970
13.030767
14.279485
14.799833
15.655756
15.884638
15.648603
14.982820
13.982654
13.760924
12.369752
11.690855
11.427999
11.133552
10.354519
10.596514
10.338426
10.232925
10.045767
10.002851
9.798408
9.919405
9.372830
9.417534
9.639859
9.340644
8.967519
9.134412
##ZVALUE=305
1.371503
1.250505
1.431704
1.509786
1.416802
1.471639
1.623631
1.620650
1.440644
1.469851
1.596808
1.583695
1.579523
1.845956
1.714826
1.783967
1.918674
2.061725
2.050996
1.913905
2.305508
2.129674
2.317429
2.632737
2.812743
2.631545
2.924800
3.210902
3.456473
3.646612
4.330873
4.767776
5.149841
6.320477
10.808706
71.680546
212.553740
642.204881
1015.712023
1015.712023
1015.712023
1015.712023
1015.712023
1015.712023
1015.712023
1015.712023
1015.712023
1015.712023
1015.712023
572.045445
267.099738
75.197816
30.020475
24.044514
30.094981
43.010712
56.905746
75.803995
92.677474
108.810663
114.512444
113.150477
106.719732
90.337992
75.087547
54.360628
41.125417
28.410554
21.772981
16.097426
15.790462
14.979839
14.957786
15.142560
15.706420
14.467835
13.841987
12.432933
11.913776
11.189580
10.996461
10.481477
10.140538
10.059476
9.711981
10.227561
9.967685
9.746552
9.909868
9.439588
9.776950
9.362698
9.173751
9.024739
8.891821
8.914471
##ZVALUE=310
1.532435
1.446605
1.448989
1.402497
1.434684
1.443624
1.302958
1.531839
1.634955
1.544952
1.571774
1.710653
1.700521
1.734495
1.728535
1.799464
1.714826
1.728535
1.953840
2.202988
2.097487
2.368689
2.347827
2.463460
2.441406
2.658963
2.737641
2.753735
2.961755
3.118515
3.303885
3.667474
4.147887
4.717708
4.885793
5.786419
7.172823
29.711723
109.714866
397.085547
813.741684
1015.774012
1015.774012
1015.774012
1015.774012
1015.774012
1015.774012
1015.774012
1015.774012
1015.774012
1015.774012
937.232971
495.084524
161.674619
53.861737
20.945668
21.268725
28.333664
35.910606
52.206516
66.931844
86.127520
98.481774
107.714534
108.748674
102.037787
90.966821
73.492527
58.506727
40.729642
32.331944
23.046732
19.355416
16.379952
15.444756
13.866425
13.077855
11.870861
11.118650
10.995865
10.159612
9.965897
10.164976
9.799600
9.788871
9.824634
9.708405
9.874701
9.356737
9.502769
9.365678
9.278655
8.890629
8.830428
9.056926
8.446574
##ZVALUE=315
1.087785
1.212955
1.176000
1.254678
1.316667
1.157522
1.359582
1.123548
1.289845
1.195669
1.341701
1.321435
1.406670
1.442432
1.381636
1.307726
1.227856
1.400709
1.630783
1.444817
1.677871
1.867414
1.829863
1.921654
2.093911
2.221465
2.324581
2.206564
2.328753
2.741814
2.614856
2.791882
3.207922
3.546476
4.018545
4.244447
4.829764
5.449653
6.205440
13.994575
56.930780
261.955857
595.699549
1015.502810
1015.502810
1015.502810
1015.502810
1015.502810
1015.502810
1015.502810
1015.502810
1015.502810
1015.502810
1015.502810
719.574690
245.182514
86.664557
24.327636
17.919540
19.885898
24.650693
35.369992
46.759844
63.773990
77.551603
94.301701
101.076961
104.552507
98.517537
86.317658
72.234869
55.302978
43.197870
30.075908
22.934675
16.591549
14.513731
11.839867
10.852814
10.055900
9.783506
9.720922
9.419918
9.215474
9.458661
9.304881
9.058714
9.160638
9.205937
8.887649
8.802414
8.718967
8.508563
8.316636
8.489490
8.434653
##ZVALUE=320
1.102686
1.086593
0.956655
1.104474
1.066923
1.241565
1.311898
1.285672
1.155734
1.187921
1.184940
1.176000
1.261830
1.393557
1.647472
1.443624
1.374483
1.457930
1.501441
1.447797
1.490712
1.697540
1.705885
1.935959
2.037883
1.848936
1.981854
2.008677
2.287626
2.192855
2.488494
2.623796
2.926588
2.934933
3.173947
3.430843
3.838539
4.177690
4.471540
5.119443
5.691648
8.009672
25.500655
154.166818
399.973989
985.306501
1015.502810
1015.502810
1015.502810
1015.502810
1015.502810
1015.502810
1015.502810
1015.502810
1015.502810
1015.502810
958.624482
389.804840
162.308812
40.842891
19.191504
16.935468
18.376708
22.753477
29.350519
44.051409
56.168437
73.504448
86.688995
98.214746
100.079775
95.313787
85.262656
68.716407
55.509806
38.673878
28.857589
19.686818
14.810562
11.458993
10.274649
9.666681
9.569526
9.095669
9.101629
9.020567
8.844733
9.133816
8.981824
8.532405
8.925796
8.742809
8.467436
8.411407
8.411407
7.575750
##ZVALUE=325
1.218915
1.054406
1.055598
1.174808
1.170635
0.891685
1.285672
1.259446
1.145601
1.418591
1.317859
1.182556
1.082420
1.269579
1.259446
1.403689
1.438856
1.415610
1.446605
1.526475
1.588464
1.416802
1.650453
1.797676
1.712441
1.815557
1.811981
1.944900
2.101660
2.153516
2.377629
2.353787
2.393723
2.523661
2.844930
2.878904
3.136992
3.671646
3.724694
4.099607
4.446507
5.161762
5.773902
6.873608
13.345480
96.038580
269.110799
751.381516
1015.502810
1015.502810
1015.502810
1015.502810
1015.502810
1015.502810
1015.502810
1015.502810
1015.502810
1015.502810
1015.502810
598.521829
271.106958
70.458651
24.580956
16.181469
16.358495
17.510653
21.507740
30.395985
41.483641
58.774948
71.546435
86.087584
93.440413
94.595551
89.451671
75.809956
63.916445
47.536492
35.962462
23.528934
17.878413
12.756586
10.659695
9.697676
9.223819
9.307861
8.628964
8.889437
8.422732
8.349419
8.369684
8.473992
8.087754
8.201599
8.074641
8.178949
##ZVALUE=330
1.000762
1.083612
0.934601
1.059771
0.961423
1.229644
1.150966
1.137853
1.043677
1.305938
1.073480
1.156926
1.277924
1.156926
1.248717
1.257658
1.132488
1.354814
1.409650
1.565814
1.452565
1.579523
1.473427
1.425743
1.460910
1.703501
1.567602
1.799464
1.848936
2.021790
1.844764
2.159476
2.326965
2.361536
2.563000
2.540946
2.792478
2.886653
3.012419
3.232956
3.721714
4.061460
4.444718
5.102754
5.540848
6.672740
8.198619
39.919019
143.263936
515.690446
976.376534
1015.499830
1015.499830
1015.499830
1015.499830
1015.499830
1015.499830
1015.499830
1015.499830
1015.499830
1015.499830
883.581638
430.792570
132.011771
41.936636
17.233491
15.342832
15.704632
17.459989
23.046732
29.079914
42.265654
53.657889
69.777966
79.636574
87.107420
87.281466
81.132650
71.700811
56.462884
44.859648
30.821562
23.442507
16.670823
13.165474
10.863543
9.641647
8.895993
8.787513
8.278489
8.239746
8.391738
8.118749
7.862449
7.701516
8.026958
##ZVALUE=335
1.020432
1.085997
1.088977
1.104474
1.085997
1.042485
1.126528
0.958443
0.993609
1.101494
1.137853
1.005530
1.387596
1.205802
1.271963
1.228452
1.352429
1.220703
1.316667
1.319647
1.390576
1.412630
1.525879
1.508594
1.635551
1.576543
1.869798
1.682639
1.672506
1.889467
1.875758
1.778603
2.207756
1.979470
2.384782
2.106428
2.623796
2.516508
2.549887
2.905726
3.059506
3.477931
3.696680
3.831983
4.706979
5.045533
5.592704
6.007552
7.432699
14.543533
94.932914
278.889537
819.528699
1015.502810
1015.502810
1015.502810
1015.502810
1015.502810
1015.502810
1015.502810
1015.502810
1015.502810
1015.502810
1015.502810
585.064888
255.065560
65.002441
22.904873
16.265512
16.225576
17.017722
18.660426
23.364425
28.820634
40.097833
49.872994
63.035488
72.619915
79.757571
79.906583
74.264407
66.962838
54.342747
44.257641
31.239986
24.139881
16.712546
13.498664
10.356903
9.166598
8.575916
8.168817
7.959604
8.050799
7.768869
7.628798
##ZVALUE=340
1.051426
1.019835
1.034737
1.042485
1.041889
1.039505
1.180768
1.073480
0.981688
1.136661
1.112819
1.244545
1.002550
1.235604
1.025796
1.081824
1.162887
1.258850
1.260638
1.394749
1.374483
1.232624
1.358986
1.264811
1.452565
1.389980
1.450777
1.660585
1.550913
1.725554
1.943707
1.944900
1.976490
2.123713
2.204776
2.119541
2.108812
2.032518
2.208948
2.670884
2.721548
2.955794
3.097653
3.336668
3.717542
4.220605
4.105568
5.046725
5.351901
6.125569
6.827712
10.185838
35.560727
201.150775
520.404577
1015.502810
1015.502810
1015.502810
1015.502810
1015.502810
1015.502810
1015.502810
1015.502810
1015.502810
1015.502810
1015.502810
914.418697
318.211913
113.616586
28.025508
17.495751
16.865730
16.258955
16.515851
17.435551
21.512508
26.403666
36.231875
45.647621
58.729649
67.783594
74.208975
75.110793
70.425868
63.443780
51.541924
41.771531
30.434728
23.001432
16.452670
12.746453
9.878874
8.834600
8.007884
7.915497
7.774830
##ZVALUE=345
0.930429
0.997782
1.230836
1.085997
1.059771
1.021624
0.960827
1.192689
1.083612
1.214743
1.160502
1.104474
1.173615
1.133680
1.179576
1.143813
1.188517
1.114607
1.137853
1.257658
1.345873
1.465678
1.439452
1.277924
1.347661
1.524687
1.480579
1.685619
1.620650
1.487732
1.609921
1.810789
1.728535
1.866817
1.808405
2.034903
2.088547
2.138615
2.290606
2.392530
2.686977
2.524853
2.754927
2.934933
3.199577
3.262758
3.417730
3.774762
4.113913
4.670620
4.988909
5.729795
6.154776
7.436872
15.451908
110.304952
337.442756
939.651728
1015.502810
1015.502810
1015.502810
1015.502810
1015.502810
1015.502810
1015.502810
1015.502810
1015.502810
1015.502810
1015.502810
481.352806
200.148821
51.018596
22.288561
17.960668
16.593933
14.723539
14.231801
14.910698
17.126799
23.465753
31.001568
42.405725
51.500797
61.614513
67.082644
69.626570
67.599416
59.142709
51.701665
41.137934
31.958818
22.292733
16.771555
11.935830
10.120869
8.519888
##ZVALUE=350
1.007915
1.162887
1.159906
1.082420
1.208782
1.159906
1.250505
1.191497
1.087785
1.256466
1.108646
1.343489
1.257658
1.161695
1.325607
1.129508
1.212955
1.184940
1.314878
1.480579
1.431704
1.339912
1.579523
1.553893
1.516938
1.458526
1.525879
1.675487
1.524687
1.565814
1.621842
1.787543
1.691580
1.867414
1.953840
1.967549
2.025962
2.163649
2.111793
2.169609
2.462864
2.367496
2.389550
2.711415
2.910495
2.917647
3.179908
3.286600
3.297925
3.950000
4.132986
4.644990
4.926920
5.521774
6.208420
7.255673
10.243654
53.565502
189.149976
645.917654
1015.502810
1015.502810
1015.502810
1015.502810
1015.502810
1015.502810
1015.502810
1015.502810
1015.502810
1015.502810
1015.502810
746.009946
327.060819
75.951815
26.344657
16.810894
14.700890
13.110638
12.143850
11.956692
13.118982
16.811490
21.000504
29.503703
36.575794
47.459602
55.198669
61.625838
62.966943
61.415434
57.343841
47.549605
39.316416
29.959679
23.302436
16.396642
##ZVALUE=355
1.274943
1.237988
1.308918
1.487732
1.135468
1.392961
1.189709
1.280904
1.143813
1.374483
1.244545
1.415610
1.496673
1.419783
1.449585
1.481771
1.545548
1.480579
1.215935
1.371503
1.470447
1.603961
1.564622
1.644492
1.580715
1.587868
1.679659
1.718998
1.768470
1.782775
1.832843
1.752973
1.816750
1.836419
2.146959
2.008677
2.093911
2.175570
2.037883
2.254844
2.522469
2.314448
2.464652
2.597570
2.654791
2.788901
3.063679
3.182888
3.438592
3.611445
3.721714
4.245639
4.361868
4.753470
5.035996
5.697608
6.258488
7.323623
8.203983
25.948882
102.765560
426.622629
906.994939
1015.491486
1015.491486
1015.491486
1015.491486
1015.491486
1015.491486
1015.491486
1015.491486
1015.491486
1015.491486
927.475691
438.628793
115.234852
36.383867
16.555786
14.636517
13.294816
12.421608
11.676550
11.744499
12.863874
14.979839
19.674897
24.785995
33.511519
40.611625
50.009489
55.240989
58.082938
57.910681
52.487850
46.739578
37.815571
##ZVALUE=360
1.282692
1.382828
1.278520
1.305938
1.383424
1.339912
1.470447
1.393557
1.330972
1.397729
1.475811
1.480579
1.380444
1.527667
1.491904
1.495481
1.523495
1.679659
1.612902
1.681447
1.611710
1.668930
1.506805
1.615882
1.692772
1.983643
1.788735
1.835823
1.904964
1.973510
2.048612
2.226830
2.118945
2.169609
2.235770
2.232790
2.418756
2.314448
2.166629
2.359748
2.479553
2.570748
2.847910
2.744794
2.739429
2.909899
2.990961
3.113747
3.230572
3.698468
3.547668
4.050732
4.080534
4.501939
4.647970
4.958510
5.398989
5.853772
6.731749
7.771850
8.532405
13.483763
43.548942
222.113729
569.491386
1015.504003
1015.504003
1015.504003
1015.504003
1015.504003
1015.504003
1015.504003
1015.504003
1015.504003
1015.503407
1015.503407
682.011843
227.442980
73.261857
19.317865
15.430450
13.630986
12.789965
11.601448
11.436939
10.723472
12.837648
12.992620
16.387701
20.587444
32.789707
35.668612
43.275952
48.984885
52.933693
52.991509
##ZVALUE=365
1.424551
1.439452
1.264811
1.470447
1.448989
1.359582
1.424551
1.462698
1.442432
1.557469
1.575947
1.494884
1.425743
1.554489
1.412630
1.506805
1.520514
1.575947
1.715422
1.604557
1.751781
1.780987
1.874566
1.709461
1.851916
1.846552
1.702905
1.767874
1.774430
1.794696
1.878738
1.836419
1.955628
2.036691
2.084970
2.166629
2.158880
2.211928
2.330542
2.240539
2.288818
2.489686
2.534986
2.560616
2.542734
2.949834
2.878904
2.953410
2.975464
3.024936
3.381968
3.706813
3.483891
3.697872
4.242659
4.341602
4.765987
4.969835
5.574822
6.012917
6.871819
7.532835
8.867979
10.012984
23.317933
90.641975
399.600863
901.046991
1015.502810
1015.502810
1015.502810
1015.502810
1015.502810
1015.502810
1015.502810
1015.502810
1015.502810
1015.502810
851.674676
396.500826
110.604763
33.172965
15.138984
13.817549
12.370944
11.419654
10.400414
10.187626
9.973645
9.927750
11.427999
13.892651
18.747449
23.724437
30.378699
36.540627
##ZVALUE=370
1.450777
1.411438
1.458526
1.393557
1.563430
1.374483
1.308918
1.415610
1.368523
1.443624
1.646876
1.382828
1.417994
1.547933
1.535416
1.505613
1.649857
1.697540
1.638532
1.614690
1.673698
1.544952
1.640916
1.714826
1.680851
1.645684
1.757741
1.741648
1.758933
1.789927
1.855493
1.954436
1.903772
1.930594
1.949668
2.115965
1.935959
2.090931
2.249479
2.145767
2.303720
2.286434
2.352595
2.422929
2.541542
2.454519
2.548695
2.725720
2.639890
2.751946
2.762675
2.946854
3.016591
3.200769
3.469586
3.730655
3.870726
4.157424
4.302859
4.721880
4.885793
5.677938
6.245971
6.987453
7.835627
9.240508
12.117624
61.631799
225.371718
785.082579
1015.553474
1015.553474
1015.553474
1015.553474
1015.553474
1015.553474
1015.553474
1015.553474
1015.553474
1015.554070
1015.554070
525.680780
215.851665
49.305558
18.671751
13.368726
12.091994
11.212826
10.406971
9.517670
9.077787
8.816719
8.884668
9.850860
11.412501
15.498996
##ZVALUE=375
1.277924
1.285672
1.403689
1.260638
1.178980
1.341701
1.241565
1.307726
1.433492
1.558661
1.264811
1.289845
1.344681
1.181960
1.225471
1.518726
1.565814
1.401901
1.339912
1.251698
1.406670
1.456738
1.413822
1.617670
1.505613
1.448989
1.477599
1.602769
1.642704
1.524687
1.764894
1.618862
1.487732
1.635551
1.853704
1.623631
1.732707
2.003908
1.909733
1.681447
2.038479
1.820922
1.934767
2.106428
2.108812
2.145767
1.994967
2.117753
2.265573
2.307892
2.361536
2.498627
2.721548
2.574921
2.779961
2.782941
3.054738
3.414750
3.305674
3.452897
3.918409
4.256964
4.426837
4.894733
5.535483
6.224513
6.831884
8.258820
10.022521
29.948950
119.180679
485.861897
979.092717
1015.502810
1015.502810
1015.502810
1015.502810
1015.502810
1015.502810
1015.502810
1015.502810
1015.502810
1015.502810
885.393023
423.272848
116.584897
36.016703
14.328957
12.530684
10.813475
10.050535
9.410977
8.729696
8.276701
8.022785
7.932782
##ZVALUE=380
1.148582
1.185536
1.201630
1.176596
1.124740
1.071692
1.180768
1.206994
1.068711
1.257658
1.183748
1.021624
1.159906
1.154542
1.119971
1.388788
1.306534
1.105666
1.158714
1.257658
1.414418
1.276731
1.282692
1.221895
1.174808
1.249909
1.457930
1.366735
1.425743
1.340508
1.496673
1.414418
1.526475
1.466870
1.608729
1.595616
1.420975
1.624823
1.658797
1.484752
1.739860
1.670718
1.534820
1.823902
1.600981
1.858473
1.777411
2.006888
2.256632
2.229810
2.009869
2.227426
2.291799
2.461672
2.402663
2.665520
2.749562
2.851486
2.977848
3.259778
3.092885
3.525615
3.688931
4.153848
4.329681
4.775524
5.429983
6.083846
7.300973
8.631945
9.867549
16.110539
62.809587
337.769985
823.116899
1015.502810
1015.502810
1015.502810
1015.502810
1015.502810
1015.502810
1015.502810
1015.502810
1015.502810
1015.502810
1015.502810
684.526563
219.088793
73.632002
18.279552
12.243986
10.900497
10.082722
8.983612
8.597970
8.109808
##ZVALUE=385
1.065731
1.040697
1.101494
1.165867
1.029968
0.979900
1.108646
1.063943
1.136661
1.098514
0.982881
1.218915
1.043677
1.058578
1.069903
1.048446
1.185536
1.086593
1.016855
1.073480
1.275539
1.118779
1.167655
1.239777
1.387596
1.247525
1.167655
1.377463
1.203418
1.223683
1.247525
1.471639
1.367927
1.563430
1.712441
1.567602
1.528859
1.480579
1.543760
1.479983
1.571774
1.496673
1.547933
1.588464
1.546741
1.827478
1.633763
1.908541
1.846552
1.874566
2.021790
2.105832
2.166629
2.172589
2.321601
2.328753
2.347827
2.470613
2.711415
2.710819
2.704859
2.957582
3.185868
3.446937
3.589988
4.146695
4.401803
5.289912
5.801916
6.888509
7.351637
8.295774
9.264946
11.176467
29.447675
188.425779
524.320006
1015.502810
1015.502810
1015.502810
1015.502810
1015.502810
1015.502810
1015.502810
1015.502810
1015.502810
1015.502810
1015.502810
1015.502810
454.437733
166.976452
30.905604
13.976693
11.045933
10.061860
9.093881
##ZVALUE=390
0.942945
0.970960
0.985861
0.808835
1.047850
1.115799
1.167655
1.103878
1.046658
1.128912
1.123548
0.970960
0.843406
0.967979
1.033545
1.172423
1.065731
1.060963
0.993609
1.173615
1.073480
0.946522
1.082420
1.076460
1.063943
1.173615
1.178980
1.364946
1.218915
1.264811
1.352429
1.289845
1.348853
1.232624
1.421571
1.179576
1.395941
1.318455
1.439452
1.462698
1.579523
1.528859
1.586676
1.600981
1.728535
1.616478
1.604557
1.703501
1.652837
1.826882
1.939535
2.084970
2.009869
2.272725
2.143979
2.320409
2.331734
2.413988
2.406836
2.686977
2.700686
2.912879
3.030896
3.227592
3.361702
3.661513
4.114509
4.689693
5.297661
6.182790
6.566644
7.162690
7.477999
8.037686
8.565784
9.470582
15.318990
95.916390
330.815911
982.394814
1015.502810
1015.502810
1015.502810
1015.502810
1015.502810
1015.502810
1015.502810
1015.502810
1015.502810
1015.502810
1015.502810
699.340701
297.151804
63.082576
18.751621
11.347532
##ZVALUE=395
1.022816
0.974536
1.046658
1.107454
1.052618
1.153946
1.031756
1.094937
1.158714
1.118779
0.882745
1.121759
1.128912
1.148582
1.021624
1.173615
1.028776
1.091957
1.128912
1.023412
1.066923
0.918508
1.063943
1.082420
1.278520
1.202822
1.374483
1.220703
1.292825
1.287460
1.217723
1.204610
1.340508
1.359582
1.412630
1.408458
1.289845
1.414418
1.444817
1.433492
1.467466
1.632571
1.538992
1.437664
1.560450
1.683831
1.801848
1.726747
1.757741
1.742840
1.840591
1.928806
1.942515
1.949668
2.151728
2.293587
2.006888
2.340674
2.432466
2.564788
2.621412
2.753735
2.860427
3.097653
3.085732
3.460646
3.866553
4.328489
4.739761
5.537868
5.845428
6.519556
6.555915
6.806850
7.073879
7.155538
7.736683
8.878708
11.029840
53.270459
215.432644
803.501606
1015.502810
1015.502810
1015.502810
1015.502810
1015.502810
1015.502810
1015.502810
1015.502810
1015.502810
1015.502810
1015.502810
969.510674
480.144620
135.959983
##ZVALUE=400
1.033545
1.060963
1.160502
1.042485
1.053810
1.022816
0.949502
0.906587
0.919700
1.208782
0.964999
1.020432
1.064539
1.019835
0.934601
1.031756
1.023412
1.086593
1.095533
1.207590
1.058578
1.250505
1.099706
1.107454
1.168847
0.989437
1.124740
1.104474
1.130700
1.301765
1.291633
1.362562
1.375675
1.435876
1.520514
1.323819
1.153946
1.420975
1.386404
1.590848
1.495481
1.555681
1.551509
1.578927
1.712441
1.601577
1.760721
1.636744
1.837611
1.851916
2.050996
2.078414
2.017617
1.999736
2.087951
2.007484
2.086759
2.313852
2.144575
2.317429
2.464652
2.642870
2.813935
3.115535
2.855659
3.396869
3.708601
4.053712
4.488826
5.228519
5.511642
5.743504
5.881786
5.934834
5.916953
6.115437
6.306767
6.853938
7.251501
8.419752
9.692907
25.846958
109.825730
479.648709
979.771018
1015.508771
1015.508771
1015.508771
1015.508771
1015.508771
1015.508771
1015.508771
1015.508771
1015.508771
1015.508771
1015.508771
##END
