##TITLE=TAPF0
##FORMAT=SPECTACLE-ASCII V-1.2
##DATA TYPE=ULTRAVIOLET SPECTRUM
##SECOND TYPE=ULTRAVIOLET SPECTRUM
##DATE=12/04/17
##TIME=10:19:47
##SPECTROMETER/DATA SYSTEM=SPECTACLE
##XUNITS=NM EM
##YUNITS=ENERGY
##YFACTOR=1
##FIRSTX=220
##LASTX=410
##NPOINTS=96
##3DDATA=Equidistant
##ZUNITS=NM EX
##FIRSTZ=210
##LASTZ=400
##ZPOINTS=39
##XYDATA=(Y..Y)
##ZVALUE=210
14.017820
13.642907
10.332465
8.948445
8.000731
7.380843
6.342530
6.268620
5.995631
3.744960
3.985763
3.656745
2.979636
2.583861
3.013611
3.738999
3.978610
4.050732
4.187822
4.818439
4.601479
5.369782
5.616546
5.826950
6.126761
7.446408
7.492900
7.550716
7.834435
8.518696
8.943677
10.132790
9.835958
9.633899
11.869669
10.750890
11.863708
11.710525
12.367964
11.836886
12.869835
13.096929
13.624430
13.884902
15.066862
15.298724
15.883446
15.277863
16.020536
14.670491
16.640425
16.883612
17.146468
18.133521
18.006563
18.187761
17.338991
17.834902
18.792748
20.457506
20.611882
21.100640
20.175576
20.346642
22.541881
23.658872
25.095940
27.955770
34.052730
40.910840
47.703981
56.845546
64.997673
72.459579
81.681609
85.720420
86.854696
82.983971
79.487562
75.166821
67.948699
59.840679
53.101778
46.605468
39.542913
34.529567
29.161572
26.781559
26.310682
25.627613
26.992559
26.861429
32.385588
32.803416
37.242770
39.180517
##ZVALUE=215
51.195621
50.571561
41.507483
32.968521
23.191571
17.821789
15.152693
12.799501
12.633801
10.585785
10.918975
7.963777
6.947517
5.670786
4.661679
3.913641
5.338788
4.722476
4.932880
4.344583
6.002784
5.466938
6.481409
7.169843
6.717443
7.622838
7.272959
8.254647
8.322597
9.240508
10.789633
8.981824
10.758638
11.020899
12.926459
11.397600
11.979938
13.279915
13.759732
14.455914
14.014840
15.359521
14.035702
16.051531
14.900565
15.562773
16.064644
16.926527
17.673969
18.123984
18.524528
17.717481
18.178821
19.489527
19.587874
19.389987
19.781590
21.203756
20.148754
20.185709
23.789406
22.901893
21.897554
21.701455
23.393631
24.615526
25.195479
29.699802
34.468770
40.995479
47.092438
55.139661
61.364770
69.590807
76.738596
81.140995
79.771876
79.405904
78.145862
72.015524
64.650774
57.136416
51.181912
44.702888
40.526986
35.125613
30.728579
27.397871
24.601817
23.853779
24.372935
24.987459
24.480820
25.224686
25.790930
28.295517
##ZVALUE=220
125.752687
123.877525
122.697949
112.886429
96.390843
71.140528
56.106448
37.258863
27.944446
21.790862
23.115873
22.431612
18.110871
17.505884
13.428926
10.686517
9.549856
6.483793
6.504655
6.409883
6.274581
5.786419
7.134676
7.666945
7.708669
8.085966
7.608533
8.496642
9.320974
10.088682
10.273457
11.622906
11.785626
13.155937
12.180805
14.026761
15.209913
15.479922
14.857650
17.114878
16.238689
16.566515
15.833974
17.657876
17.923713
17.291903
18.249750
18.975735
18.321872
17.894506
21.105409
20.741820
19.198656
20.983815
20.971894
22.104979
22.740960
21.583438
22.573471
23.018718
23.939610
23.579597
24.607778
23.384690
25.485754
26.673675
26.842952
30.899644
37.216544
41.546822
47.001839
56.410432
62.762499
72.141886
79.199672
80.249906
77.048540
78.414679
71.710944
69.344640
66.859722
57.848692
51.412582
44.560432
38.247705
35.036802
32.226443
27.672648
27.823448
25.060773
26.900768
25.326610
24.009943
25.148988
25.263429
24.786592
##ZVALUE=225
167.897940
179.124475
213.415623
254.185796
253.374577
252.305865
213.507414
155.803561
118.524432
82.634687
52.778721
40.759444
38.658977
36.899447
36.624670
34.005642
27.192831
21.948814
18.142462
12.297630
9.449720
8.354783
7.647872
7.900596
8.377433
8.578897
10.094643
9.738803
10.859966
11.324883
12.291670
11.920929
13.952851
14.127493
13.204813
15.626550
14.999509
16.716719
16.464591
15.825629
17.804503
18.895864
19.947886
18.606782
21.233559
21.043420
20.298958
19.200444
20.296574
21.414757
22.336841
22.516847
23.481846
21.313429
23.740530
22.274852
24.797916
23.049712
25.343895
23.372769
26.582479
27.653575
26.454926
27.620792
28.130412
27.749538
29.109716
31.660795
37.941933
41.935444
50.230622
53.491592
60.377717
69.156885
70.839524
73.337555
73.212981
66.113472
63.274503
60.012937
54.436922
52.319765
44.145584
41.766763
35.276413
33.996701
32.944679
30.112863
30.066967
26.606917
29.144883
28.998852
26.859641
27.271509
25.887489
23.927689
##ZVALUE=230
117.180943
129.886866
202.420950
319.803953
404.578447
476.238728
506.110787
483.713746
432.716012
349.978805
232.607722
156.365633
93.369484
67.493916
58.913827
59.228539
62.026978
54.621696
51.245689
41.468740
33.411980
20.737648
17.029643
13.467669
11.037588
10.321736
10.734797
11.695623
11.395812
10.898709
13.164878
14.076829
13.698936
14.617443
15.936494
16.674995
17.908812
16.229749
16.935468
18.830895
18.577576
19.485950
20.408630
19.877553
19.759536
19.605756
20.941496
21.957755
20.380616
23.171902
24.304986
23.990870
23.123622
24.263859
24.545789
24.605989
26.284456
26.896000
28.133988
28.007627
26.733875
26.954412
28.084517
29.392838
29.195547
28.991699
32.950640
35.666823
40.017962
43.929815
54.892898
59.969425
65.209866
69.407821
71.072578
74.600577
73.380470
68.660975
65.717697
64.418912
55.424571
49.670935
46.246648
43.076873
38.339496
35.952926
33.939481
34.210682
32.242537
28.600693
29.390454
29.463768
27.884841
28.916597
28.238893
28.239489
##ZVALUE=235
32.485723
37.454963
82.179904
190.299749
307.964683
494.527817
648.858547
825.053453
889.419913
883.954763
791.442990
631.401539
424.350500
294.578671
177.165866
119.920969
88.848472
86.492896
90.942979
93.404651
84.586740
72.516799
56.470633
42.737722
32.563806
22.740960
18.360615
13.911724
14.264584
14.997721
14.652610
15.664697
15.758872
16.165972
15.790462
17.237663
17.958879
19.809604
19.128919
19.031763
19.694567
19.498467
19.168854
20.481944
19.946694
20.653605
20.512938
22.738576
20.846725
23.364425
22.871494
23.679733
23.880601
24.468899
24.899840
25.443435
27.055740
27.932525
28.830767
29.751658
28.230548
29.412508
29.177666
31.239986
33.719540
34.158826
35.993457
38.696527
44.084787
49.631596
53.902864
57.580471
67.074895
72.956681
78.591704
82.741976
75.609684
73.261857
68.471432
64.428449
57.747960
51.864982
47.529936
41.987896
39.272904
40.578842
34.266710
33.738613
37.232637
34.596920
31.705499
33.474565
30.886531
31.686425
31.502843
31.209588
##ZVALUE=240
2.443790
3.313422
10.426641
35.680532
107.256770
198.521614
406.476855
627.641678
941.542983
1015.502810
1015.502810
1015.502810
1015.502810
979.324579
754.098892
472.553968
318.018794
183.753967
133.556724
109.182000
113.011003
119.007826
113.301873
106.583834
87.603927
69.762468
50.633550
38.944483
28.200746
22.364855
19.149780
16.877651
17.510653
16.919971
16.678572
17.937422
17.187595
17.428994
18.670559
19.003749
19.594431
18.753409
18.086433
19.882917
19.924641
19.348860
18.511415
21.078587
20.928979
22.044778
23.408532
23.870468
23.952723
24.544597
23.056865
25.297999
26.578903
25.853515
25.954843
25.693774
26.983619
28.187633
30.290484
29.893517
30.598640
32.587647
35.529733
36.924481
40.103793
46.764612
52.274466
57.007670
65.099001
69.191456
70.213675
74.743629
72.378516
69.741607
67.408681
60.144663
55.494905
49.999952
48.763752
44.767857
40.822625
37.738681
36.187768
35.226941
34.814477
33.932924
34.057498
34.451485
33.156872
32.293797
32.450557
31.300783
##ZVALUE=245
1.743436
1.943707
2.108812
2.032518
6.881952
22.885799
83.972812
181.681514
417.865515
642.424822
997.120738
1015.502810
1015.502810
1015.502810
1015.502810
1015.502810
1015.502810
727.797747
496.716499
257.215500
159.558654
120.678544
117.120743
122.252703
131.048560
128.701925
116.706491
97.437501
79.042912
58.710575
45.789480
30.261874
24.559498
20.000935
17.089844
17.401576
17.575622
18.024445
16.982555
17.522573
18.459558
18.127561
16.981959
16.971827
17.251968
17.920732
18.274784
18.937588
18.330812
18.645525
19.725561
18.852949
19.912720
19.986629
20.771623
21.467805
20.305514
20.737648
21.018982
21.845698
23.648739
23.719668
23.220778
25.092959
24.690628
25.982857
27.659535
30.088425
34.021735
38.289428
45.026541
49.716830
52.621961
59.358478
61.130524
61.720610
58.618784
57.197809
53.578615
48.559904
47.974586
40.487647
37.703514
36.302805
35.853982
32.161474
30.999780
29.958487
30.700564
31.711459
28.734803
28.959513
27.608871
27.342439
27.614832
28.036833
##ZVALUE=250
2.035499
1.904964
1.763701
1.873970
1.865625
2.648830
3.253818
17.433763
53.416491
164.785981
333.310962
678.922534
981.782675
1015.502810
1015.502810
1015.502810
1015.502810
1015.502810
1015.502810
1015.502810
673.601627
424.384475
202.052593
126.203895
109.280944
120.573640
136.076808
136.042833
137.723684
123.100877
107.064843
79.759955
62.021613
44.591427
32.937527
22.812486
18.154979
16.688704
15.376806
16.011596
16.671419
16.468763
16.972423
15.550852
17.820597
16.330481
16.194582
16.531944
16.908646
16.719699
16.595721
16.590953
18.346906
17.180443
18.479824
16.606450
17.717481
18.728971
18.501878
20.164847
17.491579
19.977689
20.434856
20.834804
20.018816
20.820498
24.443865
25.398731
27.739406
31.655431
36.623478
41.505694
43.332577
47.579408
49.306750
48.568845
47.771931
46.460629
45.254827
40.850639
36.495924
35.216808
30.764937
28.598905
28.206706
26.332736
26.133657
25.415421
24.790764
24.989843
24.182796
23.157001
22.714734
22.531748
24.423599
22.375584
##ZVALUE=255
1.763701
1.541972
1.944900
2.014637
1.867414
2.163649
2.334714
2.673864
3.556609
7.498860
45.537949
121.016502
256.812572
567.351580
901.109576
1015.502810
1015.502810
1015.502810
1015.502810
1015.502810
1015.502810
1015.502810
959.256887
617.012978
295.216441
174.286962
110.133886
105.987787
125.501752
139.383674
144.541860
141.998529
129.938722
107.762814
86.503625
58.501959
45.595765
29.081702
21.707416
16.643405
15.064478
15.279651
15.814900
14.738441
15.808940
15.443563
15.968680
14.372468
15.190840
15.371442
15.884638
15.029907
16.553998
15.712976
15.929937
14.805794
15.297532
16.808510
16.094446
16.772747
16.770959
17.886758
17.416477
17.958879
17.955899
18.092990
19.327998
22.181869
22.849441
27.064681
29.774904
34.182668
37.154555
38.957000
40.546656
40.553808
38.801432
36.426783
34.382939
32.234788
29.641986
26.806593
25.167465
23.091435
21.834970
21.999478
21.639466
20.658970
20.685792
20.429492
20.587444
19.893646
19.362569
20.036697
19.573569
19.587874
##ZVALUE=260
1.447797
1.339912
1.483560
1.681447
1.620650
1.778603
2.451539
2.315640
2.430677
2.581477
3.006458
4.596710
16.310811
78.325868
186.139941
466.937423
786.296725
1015.504599
1015.504599
1015.504599
1015.504599
1015.504599
1015.504599
1015.504599
1015.504599
927.028656
506.672859
285.575986
128.028989
96.157789
104.878545
122.740865
138.272643
145.976543
145.098567
130.995512
110.834837
82.118511
63.016415
42.533875
30.297637
20.815730
17.437935
15.042424
15.082955
14.606714
14.545918
14.405847
15.110970
14.774799
14.759898
14.920831
14.042854
13.948679
14.208555
14.620423
15.873909
14.627576
14.871955
15.284419
15.264750
15.326738
16.295910
16.034842
17.023683
16.657710
17.621517
19.420981
19.806623
22.605658
25.311708
28.981566
30.011535
33.121705
34.395456
33.693910
32.346845
30.669570
29.122829
26.151538
24.465919
23.271441
21.875501
20.099878
18.971562
17.827749
17.800927
16.833544
17.375946
17.317533
17.450452
16.065836
16.939640
16.822815
15.368462
15.454888
##ZVALUE=265
1.443624
1.268983
1.302958
1.471639
1.604557
1.651645
1.820922
1.730919
2.065897
2.125502
2.211928
2.950430
3.216863
3.577471
11.044741
42.264462
169.049501
344.932675
619.740486
1015.502810
1015.502810
1015.502810
1015.502810
1015.502810
1015.502810
1015.502810
1015.502810
1015.502810
788.981915
389.546752
207.376480
97.058415
86.543560
109.198689
127.563477
143.735409
148.229003
145.224929
130.979419
106.167793
86.240768
60.414672
43.290854
28.173923
22.521615
17.022491
15.484691
15.078783
14.661551
14.724731
14.726520
15.278459
14.977455
14.047623
14.284849
14.293790
14.134645
13.945699
14.022589
14.635921
13.849735
13.704896
14.950633
15.163422
13.940930
15.814900
15.557408
17.197728
19.685626
21.329522
22.437572
24.778843
27.464628
28.374791
28.867722
28.693676
28.068423
26.152730
23.973584
22.662878
21.422505
19.409657
17.294884
17.246604
16.935468
16.721487
16.246438
14.143586
15.359521
14.498830
15.248656
14.874935
14.479756
14.216900
14.354587
13.359785
##ZVALUE=270
1.595616
1.617670
1.606941
1.740456
1.542568
1.714826
1.872778
1.800656
2.020597
1.710653
2.306700
2.277493
2.730489
2.869964
3.046989
3.506541
4.904866
25.862455
83.905458
286.760926
568.487644
955.618620
1015.630960
1015.630960
1015.630960
1015.630960
1015.630960
1015.630960
1015.630960
1015.630960
1011.622548
647.511482
342.924595
129.902959
80.565810
87.071657
105.866790
129.273534
145.334601
152.203441
146.007538
130.708814
112.708807
82.740784
63.462853
43.512583
31.854510
21.612644
17.271638
15.121698
15.001893
13.837814
14.651418
15.087724
14.530420
13.770461
13.808608
14.607906
15.011430
14.141798
14.624596
14.177561
14.592409
14.688969
14.631748
15.239716
15.158653
16.264915
17.685890
19.647479
21.522641
23.685694
24.648905
26.341677
27.162433
26.886463
25.080442
22.977591
22.912621
20.527840
17.899871
17.223954
16.646981
15.838742
14.744997
14.720559
14.744997
13.191700
13.864636
13.451576
13.985634
13.550520
13.997555
12.880564
13.142824
12.993813
##ZVALUE=275
1.383424
1.307726
1.376867
1.522899
1.504421
1.612902
1.473427
1.618862
1.574755
1.728535
1.962781
2.091527
2.186894
2.113581
2.438426
2.715588
3.167987
3.206730
4.239678
9.700656
43.531656
191.482902
425.300002
941.051841
1015.502810
1015.502810
1015.502810
1015.502810
1015.502810
1015.502810
1015.502810
1015.502810
1015.502810
865.836740
487.294793
197.414756
95.026493
67.266822
81.472993
105.853677
124.674439
143.593550
147.637725
141.449571
130.263567
105.856657
86.877942
60.356855
44.967532
31.605959
23.437738
17.648935
15.964508
14.635921
14.565587
13.502836
14.367700
13.919473
14.167428
13.932586
13.856888
13.479590
13.415813
14.147758
13.753772
14.242530
14.823675
15.381575
16.776919
18.809438
19.969940
22.621751
22.953749
25.158525
25.149584
24.766922
24.303794
22.393465
21.535754
19.565821
18.228889
15.819669
15.211701
14.257431
13.262630
13.616681
13.088584
13.671517
13.524890
12.563467
13.036728
12.382865
11.481643
12.375712
11.942983
11.491776
##ZVALUE=280
1.548529
1.423955
1.157522
1.225471
1.421571
1.182556
1.510978
1.671910
1.439452
1.715422
1.813769
1.733899
2.085567
1.973510
1.835823
2.272725
2.287626
2.717972
2.954602
3.467798
4.106760
5.050898
31.268001
113.217831
378.857851
713.092685
1015.502810
1015.502810
1015.502810
1015.502810
1015.502810
1015.502810
1015.502810
1015.502810
1015.502810
1015.502810
693.266988
287.554860
129.460692
59.463978
59.329867
83.377957
102.526546
125.934482
138.442516
144.011974
140.494704
123.661757
108.597875
79.745650
63.142776
41.832924
30.482411
20.874739
17.000437
13.573766
13.207793
13.899803
13.628602
13.336539
12.940764
13.692975
13.305545
13.639927
13.054609
13.681650
13.914704
14.784932
15.805960
16.812682
18.681884
20.694733
21.313429
22.268891
22.206903
21.973848
21.852851
19.782782
18.366575
17.101765
15.946627
14.614463
14.086962
13.108850
12.224913
11.892915
12.401938
11.860728
12.224913
12.119412
11.533499
11.890531
11.441708
11.006594
11.146665
10.987520
##ZVALUE=285
1.186728
1.148582
1.502633
1.334548
1.237988
1.453757
1.283884
1.189709
1.195669
1.387596
1.478791
1.510978
1.650453
1.741648
1.720786
1.896620
2.132654
1.982450
2.391934
2.688766
3.000498
3.635883
3.720522
4.674792
15.120506
58.220625
210.139751
456.290841
975.111723
1015.374660
1015.374660
1015.374660
1015.374660
1015.374660
1015.374660
1015.374660
1015.374660
1015.374660
990.241766
487.114787
233.530402
75.877905
45.952797
54.642558
72.429776
99.946856
116.086602
132.486820
138.621926
134.966969
125.494599
103.561878
83.561540
61.167479
45.240521
28.701425
21.615624
15.836954
14.219880
12.659431
12.764931
12.340546
12.400746
12.691617
12.964606
12.168884
13.087988
13.239980
14.179945
15.822649
16.631484
18.610954
19.331574
20.358562
20.740628
19.620657
18.726587
17.893910
16.855597
15.086532
14.321804
13.700724
13.173819
12.339950
11.904836
11.518598
11.802912
11.244416
11.381507
11.114478
10.637641
10.557771
10.583997
10.394454
10.735989
9.750724
##ZVALUE=290
1.029968
1.105666
1.383424
1.268983
1.217723
1.235604
1.220703
1.330972
1.095533
1.328588
1.634955
1.589656
1.709461
1.702905
1.757741
1.743436
2.129674
1.913905
2.123713
2.421737
2.333522
2.726912
2.935529
3.292561
3.958941
4.308820
6.718636
23.275614
122.116804
307.993889
629.858971
1015.502810
1015.502810
1015.502810
1015.502810
1015.502810
1015.502810
1015.502810
1015.502810
1015.502810
1015.502810
719.032884
364.979506
122.532845
50.551891
39.279461
50.635934
70.527792
87.679625
112.405419
124.500990
135.105848
133.236647
118.337870
102.995634
78.562498
60.505867
40.608644
30.191541
19.729733
15.864968
13.038516
12.191534
12.012720
11.463761
11.828542
12.023449
12.767911
13.745427
14.722943
15.879869
16.730428
17.769933
18.249750
17.985702
17.930865
16.656518
15.077591
14.430881
13.368726
12.958646
12.761950
12.069941
12.080669
11.509657
11.201501
11.000633
11.300445
10.909438
10.717511
10.725856
10.277629
10.165572
10.662675
10.440946
10.061860
##ZVALUE=295
1.269579
1.114607
1.303554
1.181960
1.317859
1.253486
1.232624
1.489520
1.287460
1.270771
1.304746
1.416802
1.485944
1.689792
1.827478
1.708865
1.859665
1.785755
2.009869
1.676679
2.141595
2.263784
2.506971
2.942681
3.255606
3.591776
3.941655
4.542470
5.603433
10.179877
62.761903
191.518664
457.736850
1015.502810
1015.502810
1015.502810
1015.502810
1015.502810
1015.502810
1015.502810
1015.502810
1015.502810
1015.502810
965.315700
546.429753
193.587542
76.787472
31.595826
33.610463
49.515963
63.518882
86.134672
102.034807
120.495558
126.917958
124.043822
114.957690
93.469620
77.843666
56.876540
41.999817
28.278828
21.097660
15.151501
13.040900
11.310577
11.824965
11.898875
12.533665
13.360977
14.359951
15.472770
16.740561
16.791821
16.718507
16.311407
15.552640
14.241934
13.226867
12.233853
11.750460
11.711717
11.249781
11.024475
11.250973
10.461807
10.146499
10.598898
10.669827
9.797812
9.984970
9.924769
9.829998
9.646416
9.774566
9.372830
##ZVALUE=300
1.168847
1.204610
1.040697
1.144409
1.065731
1.371503
1.016855
1.305938
1.280904
1.427531
1.302958
1.229644
1.420975
1.459718
1.650453
1.530647
1.657605
1.644492
1.873970
1.870990
2.026558
2.100468
2.406836
2.336502
2.786517
2.854466
3.205538
3.339648
3.759861
4.354715
5.014539
6.229877
26.689768
103.706717
376.627445
758.814812
1015.502810
1015.502810
1015.502810
1015.502810
1015.502810
1015.502810
1015.502810
1015.502810
1015.502810
1015.502810
793.551803
417.114496
137.799978
49.349666
26.140809
30.328631
44.120550
57.666898
78.979731
95.803738
114.602447
119.588971
119.706988
111.538768
94.407797
78.013539
56.883693
42.493939
28.010607
20.373464
14.938712
13.430715
12.878776
12.771487
14.073849
14.831424
15.501976
15.630722
15.393496
15.408993
14.397502
13.646483
12.331605
11.590719
11.107922
10.848641
10.491610
10.381937
10.288954
10.477901
10.358691
9.882450
10.389686
9.934902
9.812713
9.793639
9.445548
9.232759
8.933544
9.375811
##ZVALUE=305
1.115799
1.145601
1.003742
1.122952
1.243949
1.173615
1.053810
1.086593
1.196861
1.342893
1.292825
1.208782
1.308918
1.344681
1.334548
1.505613
1.660585
1.496673
1.582503
1.654625
2.007484
1.954436
2.236962
1.981854
2.265573
2.490878
2.636909
2.805591
2.975464
3.439784
3.932714
4.154444
4.677773
5.821586
10.284781
71.462989
211.251974
629.529953
1015.504599
1015.504599
1015.504599
1015.504599
1015.504599
1015.504599
1015.504599
1015.504599
1015.504599
1015.504599
1015.504599
556.219816
261.488557
73.416829
28.968453
23.827553
29.111505
42.497516
56.361556
75.927973
90.937614
106.720924
113.821626
113.369823
106.445551
90.741515
75.006485
53.228736
40.301681
27.705431
20.594001
15.702844
15.026927
14.955997
14.989972
15.152693
14.483929
14.122725
13.505816
12.811422
11.947751
11.401772
10.906458
10.471940
10.592937
10.344982
10.390878
10.390878
10.294914
9.934902
9.706616
9.578466
9.687543
9.521842
9.267926
9.062886
9.274483
8.802414
##ZVALUE=310
1.292825
1.286864
1.301765
1.211762
1.105666
1.184940
1.465678
1.189709
1.559854
1.365542
1.343489
1.282692
1.590848
1.393557
1.529455
1.389980
1.529455
1.675487
1.745820
1.994967
1.790524
1.815557
1.917481
1.970530
2.261996
2.465844
2.365708
2.503991
2.797842
2.893806
3.133416
3.227592
3.972650
4.622936
4.686713
5.778670
6.587505
29.995441
109.523535
400.909781
816.465020
1015.596986
1015.596986
1015.596986
1015.596986
1015.596986
1015.596986
1015.596986
1015.596986
1015.596986
1015.596986
913.301706
474.562049
152.007937
51.230788
20.348430
21.514893
26.864409
36.418438
51.713586
65.434575
86.420774
97.381473
106.768608
108.018517
99.903941
90.003610
72.289705
57.795644
40.380955
30.738711
22.740960
19.138455
16.118884
14.878511
13.829470
13.053417
12.088418
11.159778
10.688901
10.791421
10.283589
9.887815
10.268688
9.737611
10.267496
10.284781
9.909868
9.936690
9.393692
9.287596
9.229779
9.244680
9.254813
9.123683
9.153485
##ZVALUE=315
1.058578
1.076460
0.894666
1.037717
1.040697
1.186728
1.035929
1.024604
0.922680
1.079440
1.131892
1.153946
1.222491
1.263618
1.058578
1.195669
1.267791
1.452565
1.502633
1.500845
1.668930
1.430511
1.790524
1.731515
1.915693
1.881719
2.083778
1.894832
2.404451
2.448559
2.549887
2.764463
2.729893
3.485680
3.672838
3.923774
4.307628
5.226731
5.844831
13.389587
57.229400
263.131857
613.440871
1015.401483
1015.401483
1015.401483
1015.401483
1015.401483
1015.401483
1015.401483
1015.401483
1015.401483
1015.401483
1015.401483
680.890679
232.834816
82.789660
23.920536
18.338561
20.192862
24.331808
35.591722
45.888424
62.715411
78.019500
93.969703
100.749731
102.718472
96.987486
84.246993
70.535541
55.653453
42.635798
29.731989
22.980571
17.190576
14.003515
12.544990
11.363626
10.401607
10.067821
9.923577
9.926558
9.560585
9.770989
9.452701
9.234548
9.170771
9.287596
9.428859
9.333491
9.103417
8.986592
9.105802
8.905530
8.791685
##ZVALUE=320
1.133680
1.061559
1.093745
1.173615
1.012683
1.070499
1.078844
0.955462
0.948906
1.140833
1.326799
1.199841
1.091957
1.273751
1.257658
1.274943
1.317859
1.252890
1.588464
1.501441
1.480579
1.607537
1.648664
1.522899
1.818538
1.878738
1.942515
1.944900
2.000928
2.308488
2.329946
2.661943
2.792478
2.850890
3.146529
3.374815
3.677607
4.223585
4.663467
5.459785
5.806684
7.938743
25.512576
151.988864
399.140716
984.909534
1015.502810
1015.502810
1015.502810
1015.502810
1015.502810
1015.502810
1015.502810
1015.502810
1015.502810
1015.502810
951.421857
395.724773
165.401697
39.971471
18.504858
17.095804
18.440485
23.306608
29.544830
43.254495
55.978894
75.122714
86.510777
97.449422
100.022554
94.390512
85.218549
68.229437
54.470897
38.438439
28.040409
19.809604
15.377998
11.708736
10.805726
10.204911
9.940863
9.803772
9.404421
9.437799
9.206533
9.289980
9.450912
9.005666
8.840561
9.013414
9.070635
8.756518
8.813739
9.043813
##ZVALUE=325
0.959635
0.963807
1.114607
1.124740
1.049638
1.084805
1.013875
1.221895
1.273751
1.179576
1.199841
1.096725
1.069903
1.126528
1.218915
1.298785
1.276731
1.132488
1.384616
1.417994
1.486540
1.651645
1.570582
1.663566
1.705885
1.697540
1.911521
2.012849
2.013445
1.879930
2.067685
2.158880
2.431870
2.452731
2.598763
2.847910
3.016591
3.395677
3.602505
4.222989
4.533529
5.165935
5.423427
6.864667
13.539791
98.334551
275.442004
756.023526
1015.502810
1015.502810
1015.502810
1015.502810
1015.502810
1015.502810
1015.502810
1015.502810
1015.502810
1015.502810
1015.502810
573.012829
256.805420
66.336989
23.347735
15.851855
15.761852
17.967820
21.627545
30.182600
40.502548
58.516860
71.098804
85.384846
92.932582
94.674826
89.251995
75.661540
64.216852
47.132969
35.197735
23.714900
17.522573
12.620687
11.397600
10.123849
9.608865
9.535551
9.480715
9.324551
9.167790
9.221435
9.182692
8.906722
8.902550
8.548498
8.507967
8.880496
##ZVALUE=330
0.895858
0.891685
0.895858
0.907779
0.874996
0.935793
0.960827
0.976920
1.096725
1.132488
1.030564
1.159906
1.077652
1.216531
1.241565
1.194477
1.259446
1.236796
1.284480
1.329780
1.386404
1.211762
1.484752
1.554489
1.470447
1.626611
1.712441
1.618862
1.841784
1.773834
1.741648
2.266765
2.026558
2.354980
2.495646
2.500415
2.567768
2.893806
2.929568
3.326535
3.666878
4.134774
4.270673
5.027652
5.584955
6.584525
8.510947
40.684938
145.903826
525.294542
978.197455
1015.502810
1015.502810
1015.502810
1015.502810
1015.502810
1015.502810
1015.502810
1015.502810
1015.502810
1015.502810
858.005881
420.688987
128.117800
40.532947
16.456842
15.158653
15.400648
17.180443
23.086667
29.273629
41.839480
53.858757
69.819689
79.326630
87.616444
88.012815
80.894828
71.312785
57.528615
45.064688
31.657815
23.855567
16.975999
13.613701
11.000633
10.182858
9.451509
9.183884
8.911490
8.928776
8.638501
8.795857
8.546710
8.628964
8.208752
##ZVALUE=335
0.904799
0.979900
0.836849
0.971556
0.981688
0.986457
1.076460
1.064539
1.117587
1.034737
1.066923
1.122952
1.089573
0.942945
1.091957
1.226664
1.049638
1.235604
1.162887
1.144409
1.281500
1.351833
1.324415
1.253486
1.535416
1.617670
1.803637
1.697540
1.492500
1.722574
1.989603
1.957417
2.148747
2.246499
2.160668
2.201796
2.286434
2.563596
2.476573
3.067851
2.925992
3.289580
3.498793
3.854632
4.004836
4.881620
5.540848
6.238818
7.161498
18.731952
75.193048
325.666666
726.101995
1015.502810
1015.502810
1015.502810
1015.502810
1015.502810
1015.502810
1015.502810
1015.502810
1015.502810
1015.502810
1015.502810
643.388033
208.391547
68.139434
18.949509
15.763640
15.555620
16.166568
19.002557
22.773743
30.991435
39.015412
53.210855
62.943697
74.528456
79.305768
79.962611
75.669885
64.928532
54.930449
41.004419
32.909513
23.186803
17.802715
14.065504
11.309981
9.454489
9.326935
8.804798
8.750558
8.229613
8.496642
8.772612
##ZVALUE=340
1.146793
1.199841
1.257658
1.180768
1.097918
1.138449
1.112819
1.187921
1.216531
1.275539
1.291633
1.338720
1.298785
1.353621
1.405478
1.404881
1.336932
1.283884
1.414418
1.374483
1.275539
1.482964
1.500845
1.696944
1.586676
1.701713
1.571774
1.721978
1.800656
2.057552
1.942515
2.077818
1.985431
2.093911
2.214909
2.255440
2.307892
2.599955
2.388954
2.466440
2.833605
2.834797
3.110766
3.207922
3.564954
3.968477
4.329681
5.185604
5.509853
6.102920
7.065535
10.543466
35.301447
201.910734
525.527000
1015.676856
1015.676856
1015.676856
1015.676856
1015.676856
1015.676856
1015.676856
1015.676856
1015.676856
1015.676856
1015.676856
862.666965
331.684947
116.850734
26.320815
17.805696
16.836524
16.467571
16.984940
17.769933
21.797419
26.334524
36.242604
46.021938
59.383512
68.044662
74.651837
74.856877
70.957541
64.385533
52.405000
42.858720
31.464696
24.521947
17.570853
13.953447
10.923743
9.467602
9.050965
8.788705
8.327961
##ZVALUE=345
1.008511
1.021624
0.961423
1.166463
1.049638
1.076460
0.989437
1.096725
0.790954
1.130700
1.015663
0.911951
1.064539
1.164675
1.208782
1.243949
1.356602
1.240969
1.288652
1.428723
1.345873
1.254678
1.433492
1.342893
1.227856
1.348853
1.511574
1.591444
1.639724
1.510978
1.726747
1.718998
1.602769
1.849532
2.041459
1.867414
1.953840
2.176762
1.896620
2.214909
2.231598
2.744794
2.525449
2.723932
3.005862
3.003478
3.473759
3.847480
4.026890
4.435778
5.185604
5.718470
6.238818
7.820725
16.192794
114.044547
337.398648
925.902724
1015.502810
1015.502810
1015.502810
1015.502810
1015.502810
1015.502810
1015.502810
1015.502810
1015.502810
1015.502810
1015.502810
487.838984
197.344422
47.343969
21.801591
18.063784
16.537905
15.159845
14.396906
15.329719
17.874837
23.971796
31.562448
42.677522
52.567720
62.221885
67.515969
69.890618
66.975951
60.115457
52.383542
41.167736
31.657815
22.400618
17.442703
13.170838
10.676980
9.561777
##ZVALUE=350
0.971556
1.003742
1.087785
1.055598
1.135468
1.019835
0.949502
1.097918
0.975728
1.135468
1.139641
1.160502
1.121759
1.024604
1.301765
1.170635
1.112819
1.192689
1.212955
1.231432
1.183748
1.313686
1.541972
1.454949
1.420975
1.639724
1.398921
1.516938
1.499653
1.690984
1.766682
1.740456
1.788735
1.659989
1.768470
1.801848
1.903772
1.987815
2.099872
2.035499
2.033710
2.228618
2.425909
2.741814
2.958775
2.877712
2.998710
3.313422
3.318787
3.911853
4.084706
4.328489
4.711747
5.573630
6.037951
7.222891
10.038614
59.207082
197.020769
639.542937
1015.502810
1015.502810
1015.502810
1015.502810
1015.502810
1015.502810
1015.502810
1015.502810
1015.502810
1015.502810
1015.502810
671.491027
287.703872
67.347884
25.250912
17.240644
14.893413
13.230443
12.414455
12.601614
13.771653
17.095804
21.132827
28.723478
36.525726
47.072768
55.313706
61.629415
64.169765
61.561465
57.599545
47.840476
39.159656
29.399991
23.061633
16.773939
##ZVALUE=355
1.230836
1.151562
1.200438
1.084805
1.197457
1.311898
1.234412
1.156926
1.202822
1.237988
1.158714
1.174808
1.309514
1.197457
1.340508
1.303554
1.426935
1.612902
1.502633
1.394749
1.390576
1.442432
1.697540
1.591444
1.600981
1.544952
1.534820
1.522899
1.627803
1.671910
1.798868
1.698732
1.794696
1.870990
2.079606
2.016425
2.035499
2.032518
2.093911
2.310872
2.247691
2.415776
2.514720
2.709627
2.438426
2.754927
3.167987
2.990961
3.294945
3.524423
3.525615
4.118681
4.166961
4.608631
5.084872
5.457997
6.328821
7.249713
8.316636
25.968552
105.076432
437.514782
924.543738
1015.502810
1015.502810
1015.502810
1015.502810
1015.502810
1015.502810
1015.502810
1015.502810
1015.502810
1015.502810
922.617912
433.366895
116.309524
35.827756
16.814470
15.032887
13.150573
12.483597
12.050867
11.759996
13.090968
15.108585
19.575953
25.054812
33.870935
40.903687
50.210953
55.519938
58.663487
57.714581
52.062869
45.842528
36.955476
##ZVALUE=360
0.198483
0.240803
0.286698
0.282526
0.303984
0.354648
0.213981
0.139475
0.340939
0.240803
0.390410
0.232458
0.197887
0.264645
0.422597
0.300407
0.164509
0.241995
0.202656
0.206828
0.219941
0.310540
0.213981
0.336766
0.299811
0.162721
0.339746
0.183582
0.234842
0.287890
0.367761
0.332594
0.438690
0.414848
0.330806
0.282526
0.335574
0.250936
0.267625
0.268817
0.126958
0.261664
0.335574
0.335574
0.364780
0.240803
0.322461
0.208616
0.343919
0.389814
0.261664
0.237823
0.284910
0.238419
0.232458
0.222921
0.190735
0.334978
0.259876
0.384450
0.231862
0.377893
0.239611
0.240803
0.270605
0.331998
0.332594
0.352859
0.191927
0.258684
0.267625
0.149608
0.136495
0.293851
0.164509
0.263453
0.326633
0.237823
0.178814
0.253916
0.184774
0.212789
0.324845
0.443459
0.138879
0.297427
0.373721
0.277758
0.158548
0.196695
0.225902
0.279546
0.105500
0.273585
0.189543
0.220537
##ZVALUE=365
0.184774
0.323653
0.439882
0.424981
0.303984
0.213981
0.190735
0.231862
0.154972
0.345707
0.419617
0.321865
0.282526
0.274777
0.423789
0.310540
0.269413
0.234842
0.203848
0.288486
0.359416
0.326633
0.331998
0.288486
0.201464
0.279546
0.197887
0.184774
0.178814
0.228882
0.328422
0.213981
0.318885
0.331998
0.250936
0.322461
0.409484
0.246763
0.299811
0.304580
0.202656
0.207424
0.215769
0.243783
0.359416
0.126958
0.296831
0.257492
0.357628
0.242591
0.221729
0.259876
0.466704
0.318885
0.412464
0.277758
0.246763
0.333786
0.300407
0.285506
0.392795
0.299811
0.391603
0.335574
0.454783
0.415444
0.431538
0.238419
0.212789
0.301600
0.263453
0.338554
0.228882
0.253916
0.185966
0.399947
0.253916
0.381470
0.256896
0.178814
0.293851
0.392795
0.343919
0.210404
0.145435
0.257492
0.229478
0.246763
0.221729
0.190735
0.339746
0.304580
0.401735
0.343919
0.229478
0.375509
##ZVALUE=370
0.309944
0.340939
0.212789
0.244975
0.293851
0.270605
0.282526
0.260472
0.283718
0.142455
0.189543
0.146627
0.185966
0.241995
0.398755
0.256896
0.343919
0.256896
0.318885
0.270605
0.181794
0.339746
0.207424
0.284910
0.229478
0.251532
0.275970
0.403523
0.272989
0.264645
0.189543
0.260472
0.091791
0.057817
0.287890
0.227690
0.229478
0.337958
0.210404
0.282526
0.283718
0.308752
0.227690
0.182986
0.185966
0.262856
0.266433
0.335574
0.252724
0.304580
0.286698
0.184774
0.224710
0.222921
0.221729
0.341535
0.319481
0.222921
0.219941
0.285506
0.235438
0.309944
0.287890
0.312924
0.244975
0.194907
0.274777
0.090599
0.221729
0.398755
0.209808
0.397563
0.278950
0.343919
0.264645
0.129938
0.407696
0.342727
0.294447
0.216961
0.215769
0.441670
0.395775
0.346899
0.305772
0.286698
0.415444
0.312924
0.321865
0.242591
0.354648
0.359416
0.284910
0.207424
0.254512
0.237823
##ZVALUE=375
0.117421
0.311732
0.312924
0.221729
0.354648
0.211596
0.196695
0.249743
0.217557
0.229478
0.127554
0.218749
0.208616
0.246763
0.288486
0.402927
0.190735
0.320673
0.253916
0.197887
0.423789
0.278950
0.260472
0.200868
0.484586
0.217557
0.339746
0.223517
0.379682
0.222921
0.189543
0.264645
0.287890
0.248551
0.297427
0.254512
0.389814
0.239611
0.194907
0.237823
0.212789
0.424981
0.390410
0.329614
0.378489
0.302792
0.207424
0.186563
0.227690
0.248551
0.284910
0.256896
0.154972
0.329614
0.305772
0.245571
0.265837
0.388622
0.270605
0.123978
0.272989
0.263453
0.290871
0.217557
0.279546
0.192523
0.233650
0.138879
0.305772
0.330806
0.247955
0.249743
0.304580
0.242591
0.265837
0.221729
0.329614
0.222921
0.253916
0.280738
0.282526
0.217557
0.173450
0.267625
0.197887
0.238419
0.142455
0.110865
0.171661
0.207424
0.230670
0.412464
0.287890
0.284910
0.298619
0.199676
##ZVALUE=380
0.391603
0.345707
0.222921
0.289679
0.410676
0.230670
0.333786
0.233650
0.239611
0.228882
0.165701
0.214577
0.144839
0.272989
0.211596
0.308752
0.391603
0.319481
0.290871
0.305772
0.320673
0.020862
0.127554
0.108480
0.265837
0.204444
0.320673
0.390410
0.224710
0.451803
0.475645
0.456572
0.327826
0.177622
0.220537
0.278950
0.264645
0.282526
0.232458
0.294447
0.284910
0.201464
0.227690
0.252724
0.188947
0.112653
0.325441
0.288486
0.191927
0.360608
0.404716
0.331998
0.282526
0.272989
0.240803
0.224710
0.224710
0.156760
0.114441
0.232458
0.366569
0.292659
0.449419
0.302792
0.215769
0.253916
0.212789
0.160933
0.062585
0.237823
0.111461
0.384450
0.214577
0.369549
0.214577
0.368953
0.313520
0.226498
0.442863
0.365973
0.274777
0.348687
0.271797
0.315905
0.331998
0.294447
0.277758
0.278950
0.169873
0.187755
0.282526
0.339746
0.311732
0.413656
0.055432
0.157952
##ZVALUE=385
0.345707
0.396967
0.182986
0.333786
0.382662
0.189543
0.282526
0.213981
0.220537
0.277758
0.261664
0.301600
0.365973
0.379682
0.264645
0.257492
0.277758
0.339746
0.310540
0.263453
0.244975
0.272989
0.378489
0.284910
0.360608
0.175834
0.316501
0.242591
0.267625
0.356436
0.321865
0.278950
0.221729
0.160933
0.404716
0.207424
0.310540
0.496507
0.375509
0.316501
0.291467
0.274777
0.366569
0.299811
0.247955
0.365973
0.269413
0.278950
0.189543
0.308752
0.341535
0.468493
0.257492
0.209808
0.235438
0.146627
0.265837
0.449419
0.360608
0.184774
0.300407
0.270605
0.128746
0.346899
0.452995
0.379682
0.386834
0.363588
0.320673
0.237823
0.168681
0.326633
0.260472
0.341535
0.237823
0.292659
0.199676
0.294447
0.177622
0.269413
0.287890
0.244975
0.157952
0.246763
0.177622
0.178814
0.367761
0.282526
0.385642
0.190735
0.297427
0.337958
0.381470
0.381470
0.363588
0.310540
##ZVALUE=390
0.206828
0.339746
0.203848
0.093579
0.198483
0.328422
0.260472
0.430942
0.369549
0.297427
0.137687
0.336766
0.325441
0.128746
0.309944
0.347495
0.243783
0.346899
0.284910
0.229478
0.292659
0.209808
0.228882
0.212789
0.165701
0.243783
0.296831
0.180602
0.151992
0.283718
0.271797
0.235438
0.447631
0.186563
0.249743
0.346899
0.208616
0.127554
0.271797
0.429749
0.369549
0.198483
0.377893
0.235438
0.210404
0.220537
0.369549
0.228882
0.089407
0.244975
0.245571
0.260472
0.233650
0.276566
0.121593
0.245571
0.258684
0.347495
0.347495
0.329614
0.198483
0.172853
0.197887
0.176430
0.303984
0.360608
0.250936
0.348687
0.172853
0.241995
0.281930
0.467896
0.442863
0.414848
0.217557
0.326633
0.265837
0.061989
0.206828
0.325441
0.098944
0.161529
0.214577
0.262856
0.269413
0.259876
0.263453
0.093579
0.212789
0.376701
0.384450
0.373721
0.362992
0.296831
0.256896
0.257492
##ZVALUE=395
0.397563
0.316501
0.266433
0.124574
0.205636
0.306964
0.379682
0.335574
0.252724
0.443459
0.203848
0.300407
0.163913
0.262856
0.242591
0.203848
0.332594
0.052452
0.275970
0.268817
0.142455
0.241995
0.235438
0.218749
0.211596
0.331998
0.192523
0.360608
0.237823
0.149608
0.203848
0.215769
0.194907
0.411868
0.305772
0.287890
0.308752
0.396967
0.304580
0.271797
0.313520
0.137687
0.112653
0.223517
0.250936
0.355840
0.325441
0.217557
0.334978
0.150800
0.222921
0.138879
0.094771
0.447631
0.253916
0.270605
0.229478
0.346899
0.309944
0.248551
0.179410
0.192523
0.238419
0.200868
0.161529
0.328422
0.251532
0.321865
0.358820
0.240803
0.214577
0.100732
0.122786
0.241995
0.368953
0.232458
0.319481
0.278950
0.370741
0.223517
0.235438
0.323653
0.262856
0.211596
0.222921
0.110865
0.109673
0.162721
0.348687
0.294447
0.240803
0.198483
0.240803
0.260472
0.226498
0.419617
##ZVALUE=400
0.217557
0.253916
0.230670
0.313520
0.080466
0.324845
0.238419
0.302792
0.252724
0.212789
0.205636
0.257492
0.211596
0.262856
0.319481
0.236630
0.234842
0.157952
0.387430
0.146627
0.309944
0.325441
0.221729
0.219941
0.053644
0.186563
0.249743
0.144839
0.210404
0.210404
0.312924
0.292659
0.336766
0.197887
0.223517
0.206828
0.178814
0.137687
0.193715
0.175834
0.106692
0.252724
0.338554
0.225902
0.280738
0.106692
0.234842
0.406504
0.151992
0.087619
0.110865
0.200868
0.358820
0.354648
0.400543
0.331998
0.296831
0.204444
0.242591
0.353456
0.301600
0.190735
0.336766
0.271797
0.226498
0.288486
0.286698
0.349879
0.352859
0.242591
0.141859
0.234842
0.349879
0.217557
0.221729
0.204444
0.243783
0.262856
0.170469
0.216961
0.290871
0.220537
0.226498
0.221729
0.232458
0.208616
0.151992
0.239611
0.313520
0.366569
0.180602
0.367761
0.217557
0.298619
0.330806
0.273585
##END
