##TITLE=TAPF20
##FORMAT=SPECTACLE-ASCII V-1.2
##DATA TYPE=ULTRAVIOLET SPECTRUM
##SECOND TYPE=ULTRAVIOLET SPECTRUM
##DATE=12/04/17
##TIME=10:38:38
##SPECTROMETER/DATA SYSTEM=SPECTACLE
##XUNITS=NM EM
##YUNITS=ENERGY
##YFACTOR=1
##FIRSTX=220
##LASTX=410
##NPOINTS=96
##3DDATA=Equidistant
##ZUNITS=NM EX
##FIRSTZ=210
##LASTZ=400
##ZPOINTS=39
##XYDATA=(Y..Y)
##ZVALUE=210
16.736984
15.299916
13.024807
10.803938
9.924769
8.744597
7.886887
7.386804
6.402731
4.930496
4.332662
3.539920
3.240705
3.757477
3.127456
3.152490
4.158616
4.185438
4.087687
4.043579
4.936457
4.519820
4.825592
5.644560
5.974770
6.396770
6.361604
7.423759
6.643534
8.025765
7.865429
7.347465
7.318854
8.123517
7.945895
9.487867
8.100867
7.540584
8.975863
8.191466
8.789897
9.571910
10.084510
10.085702
9.152889
9.186864
10.517836
9.258986
9.749532
10.353923
10.902882
9.800792
10.297894
10.145903
9.801984
9.636879
11.110902
10.855794
10.859966
8.932948
10.298491
10.794997
10.275841
10.041595
11.797547
10.247827
11.252761
14.344454
14.104843
17.357469
18.330812
21.283627
25.468469
27.143955
33.895969
32.776594
36.104918
38.042665
38.608909
39.785504
35.424829
32.960773
27.926564
26.580691
25.349855
17.930865
17.096996
13.486743
11.068583
11.970997
14.047623
16.011000
19.831657
23.360848
28.462410
33.373833
##ZVALUE=215
44.850707
44.747591
34.401417
27.235746
22.685528
16.707778
15.665889
15.550852
14.138818
13.257861
10.969639
8.211732
6.290674
4.878640
4.244447
3.416538
3.176928
3.206730
4.079938
4.146695
3.546476
4.108548
4.371405
4.666448
4.085898
6.654859
5.616546
6.014705
5.797744
5.743504
7.284880
7.583499
7.720590
7.494688
8.330941
8.444786
8.259416
7.687807
7.806420
7.735491
8.323789
7.583499
7.385612
8.346438
8.177757
8.461475
8.299947
6.825924
7.865429
7.840991
7.930994
7.702708
8.864999
8.277893
7.695556
8.543730
7.255673
9.666681
8.656979
7.988811
9.364486
8.912683
8.687973
8.357763
8.387566
9.542704
8.493662
9.814501
9.813905
11.709929
13.606548
15.679598
17.050505
19.129515
20.065904
22.073984
20.426512
22.240877
22.865534
22.037625
19.106865
18.689632
19.242764
16.590953
13.915896
10.883808
9.918809
9.070635
8.245707
7.027984
7.061958
7.399917
7.739663
10.230541
10.743737
13.740659
##ZVALUE=220
97.721815
102.096796
97.519755
92.494488
70.775747
53.659678
40.770769
30.844808
24.017692
21.859407
23.935437
21.673441
20.990968
18.764734
15.134811
11.909604
8.116961
6.598830
4.805923
4.436970
4.175901
4.299879
4.148483
4.721880
4.377961
5.697608
6.107688
5.895495
6.588697
6.653666
7.088780
7.110834
7.248521
8.391738
9.161830
9.315610
8.137822
8.312464
10.054708
8.870959
9.133816
7.697940
8.410811
9.122491
8.299947
8.302927
8.995533
9.069443
8.366704
7.643700
8.777976
9.198785
8.670688
9.441972
9.302497
8.794665
9.667873
9.100437
8.432865
9.334683
10.008812
8.914471
10.250807
9.351969
10.713935
9.229779
10.143518
10.008812
12.927651
11.786819
15.291572
15.970469
18.828511
19.741654
21.654963
23.351908
22.673607
23.915768
22.203922
21.272898
19.271970
18.508434
17.009974
14.906526
13.334751
10.306835
8.772612
8.421540
9.320974
7.978678
8.189678
8.673668
7.388592
7.945895
8.494854
8.262992
##ZVALUE=225
154.156685
159.266591
184.274912
199.903846
193.095803
172.413588
150.588751
110.557675
76.905489
59.478879
42.223930
40.203929
38.807988
39.652586
37.679672
34.208894
28.042793
22.246838
15.539527
11.233687
8.023977
6.308556
5.333424
5.853772
5.484819
6.200671
6.607771
6.156564
7.373691
6.942749
8.016825
8.741617
8.254647
8.928776
9.716749
9.000897
8.271933
8.926988
8.259416
9.736419
9.005666
9.486675
9.015799
9.757876
9.161830
9.660721
9.560585
9.832978
9.844899
9.976625
10.480881
10.677576
9.951591
11.477470
11.260509
11.362433
10.090470
11.611581
12.031794
10.925531
12.332797
11.462569
12.681484
13.336539
12.136698
11.474490
12.247562
12.783408
13.583899
15.392900
16.352534
19.705892
21.905899
23.913980
24.740696
25.809407
24.440885
25.444627
23.872852
23.368001
21.669865
19.594431
17.800927
15.905499
14.837980
11.469722
11.026859
10.547638
11.085868
8.938909
10.199547
9.615421
8.661747
9.333491
9.693503
10.679960
##ZVALUE=230
119.075775
127.910972
184.214711
264.392495
316.846967
352.881551
350.795984
317.662954
267.943740
221.286416
142.135620
95.078945
64.956546
57.130456
59.412718
63.830614
62.115788
59.656501
53.320527
41.091442
32.017827
20.819902
16.177893
9.228587
7.020831
7.273555
6.427765
7.149577
7.619858
7.396936
7.775426
8.395910
8.035898
8.862615
8.389950
7.958412
8.894801
8.782744
9.710789
9.607673
9.501576
8.967519
10.295510
9.887815
9.662509
9.686947
10.959506
9.954572
9.508729
9.499788
10.350943
10.872483
11.036992
11.089444
10.173917
11.436939
10.378957
11.915565
12.725592
12.615919
12.754798
12.726784
12.250543
12.741685
12.134910
12.106895
12.085438
13.518929
13.911724
15.835762
16.430616
16.890764
18.538833
20.158887
20.498633
22.672415
20.448565
22.943616
23.249984
20.792484
18.204451
17.917752
18.036962
13.716817
14.052987
12.261868
12.109876
11.465549
10.695457
10.857582
10.991693
10.419488
8.776784
10.030866
8.982420
9.352565
##ZVALUE=235
34.686923
39.973855
93.139410
165.239573
271.982551
358.601809
448.713899
500.734448
510.866642
484.109521
394.636989
313.532948
236.723423
150.167942
113.323927
85.237622
85.167885
87.995529
92.543960
92.401505
84.819794
71.835518
56.401491
43.710470
26.473999
18.255711
14.001727
9.740591
7.356405
8.485913
8.131862
7.848740
8.930564
8.942485
8.029938
9.047985
9.517670
8.353591
7.650852
8.536577
8.157492
9.016991
8.593798
9.328723
9.686947
9.078979
9.991527
9.715557
9.593964
9.574890
9.902716
9.372830
10.441542
10.345578
11.070967
11.211634
10.264516
12.216568
12.930632
13.417602
12.678504
12.236834
13.333559
13.636947
12.716651
12.811422
13.418794
14.874935
14.242530
16.845465
17.300844
18.165708
19.670725
20.324588
21.611452
23.437738
22.932887
23.245811
22.358894
22.378564
21.316409
19.909739
17.031431
17.171502
15.473962
14.574528
14.223456
13.755560
14.306903
13.187528
13.225675
11.717677
11.814833
11.398792
10.349751
12.446642
##ZVALUE=240
2.476573
2.487898
9.953976
30.800700
81.089735
142.800808
259.067416
367.930532
506.676435
592.638850
640.756488
639.124513
587.422848
472.477674
367.046595
238.112807
165.714622
118.072629
100.413561
107.317567
114.080906
116.864443
116.396546
106.347799
84.484816
67.656636
48.433542
37.384629
23.194551
16.683936
11.749864
11.064410
9.575486
9.682775
9.369850
9.500980
8.839965
8.882880
8.893609
8.936524
8.989573
9.702444
8.234978
8.899570
9.188652
8.098483
8.414984
9.455681
9.573698
9.376407
9.558797
9.532571
10.047555
10.384917
11.117458
10.604858
9.452701
10.492802
11.483431
11.289716
11.503696
11.914968
12.221932
13.159513
12.806654
13.326406
13.165474
13.121963
14.428496
15.307665
15.011430
17.590523
18.944740
19.659996
20.311475
20.966530
21.116734
20.524859
19.773841
19.000769
19.510984
16.827583
15.806556
15.924573
15.893579
13.661981
13.928413
13.306737
12.610555
14.453530
13.451576
12.549758
12.670755
12.233853
11.887550
12.521744
##ZVALUE=245
1.450777
1.559854
1.559854
1.925826
5.023479
16.937852
55.221915
112.928748
224.222541
337.244868
488.064885
583.596826
656.380653
688.362718
665.063858
567.915440
462.037921
315.558910
218.503475
132.142901
105.420947
100.729465
115.337968
126.207471
133.673549
127.692819
118.991733
99.840760
72.750449
56.893826
42.026639
25.619864
18.558502
12.415648
11.299849
9.914637
8.694530
9.077787
7.777810
8.318424
9.020567
8.231997
8.273721
8.616447
8.435845
8.949637
8.442998
8.342862
8.360744
8.705854
8.515716
8.744597
8.517504
8.773804
8.685589
8.419752
9.606481
9.253621
9.660721
9.892583
9.509921
10.165572
10.567904
9.523630
9.871721
10.329485
11.197925
11.073947
11.159778
13.111830
12.666583
13.706684
15.511513
15.907884
16.420484
16.553998
15.550852
15.631914
15.090704
14.677644
14.600754
13.346672
14.546514
12.950897
13.258457
11.619925
11.892915
11.760592
11.593699
12.013912
10.334849
10.825992
10.894537
10.292530
11.171699
10.600686
##ZVALUE=250
1.332760
1.617670
1.382828
1.565814
1.849532
1.654625
2.638698
9.032488
38.463473
81.740618
185.251832
286.494493
409.917831
545.750856
629.459620
692.559481
678.410530
608.385801
517.779589
360.512733
245.199800
160.943866
106.012821
96.329451
107.476711
122.167468
133.530498
142.314434
135.628581
127.582550
102.690458
82.837939
64.568520
38.339496
26.648641
16.880631
11.062622
9.144545
8.288622
7.712841
8.464456
7.197857
7.490516
7.577538
7.425547
7.494688
7.102489
7.655621
7.966757
7.604957
7.668734
7.466674
8.027554
6.474853
8.560419
7.974505
7.544756
7.649660
7.930994
7.779598
7.436872
8.198619
8.252859
8.431673
8.073449
9.068847
8.763671
9.228587
8.963943
9.405613
10.145903
10.788441
10.742545
11.832714
12.318492
12.048483
12.516975
12.601614
11.781454
12.007952
12.601614
11.046529
11.108518
11.591911
10.307431
10.270476
10.291934
10.465980
9.906888
9.643435
9.305477
9.431839
9.432435
9.851456
8.935928
9.544492
##ZVALUE=255
1.434684
1.339912
1.427531
1.182556
1.361966
1.532435
1.322627
1.712441
1.914501
3.820658
18.342733
52.099824
135.776997
227.623582
367.766619
495.107770
635.206699
714.259744
735.618472
697.965026
604.946017
434.552431
314.104557
186.004639
120.479465
85.500479
88.908672
106.953979
122.248530
140.776634
149.050951
143.122673
132.387877
105.462670
83.782673
57.110786
38.491488
21.835566
15.799999
9.837747
7.925630
7.185936
7.911921
7.201433
7.307529
7.635951
7.658601
8.184910
7.539988
7.391572
7.416606
7.061958
7.397532
7.511973
6.797910
7.435679
7.355809
7.641912
7.272959
7.571578
7.237792
7.419586
7.352829
7.605553
7.015467
7.220507
8.083582
8.082986
8.740425
8.552670
8.554459
9.454489
10.377765
10.588765
10.323524
9.955764
10.455847
10.169744
9.848475
10.014772
10.044575
9.170771
9.906888
8.905530
8.451939
9.137988
8.985996
7.921457
8.333921
8.385777
8.556843
7.764697
8.281469
8.398890
7.690787
8.276701
##ZVALUE=260
1.269579
1.248717
1.116991
0.982881
1.190901
1.219511
1.225471
1.244545
1.398921
1.240969
1.821518
2.428889
7.828474
34.736991
80.066919
185.512900
294.515491
446.910858
567.714572
707.201958
765.521526
753.920674
653.235912
532.986522
357.577801
250.078440
147.082806
98.582506
75.804591
80.869794
97.094774
124.526620
138.084888
151.342750
146.760941
129.108429
109.936595
80.608726
58.390498
37.465692
24.255514
14.845729
10.522604
7.453561
6.756783
6.837845
7.145405
7.177591
7.109642
6.987453
6.949902
7.622838
6.962419
7.966757
6.629825
7.240772
7.180572
7.460713
7.316470
7.073879
6.848574
6.735921
7.384419
7.190704
7.507801
6.499887
6.743670
7.595420
7.296801
7.772446
8.297563
8.370876
8.951426
8.935928
9.069443
8.312464
8.915663
9.361506
8.235574
8.790493
8.141994
7.866621
7.715821
7.973909
7.524490
7.369518
7.189512
7.195473
7.352829
7.545948
7.089972
7.115602
7.034540
6.838441
7.812977
7.149577
##ZVALUE=265
1.066923
0.929832
1.176000
1.019835
1.041889
1.271963
1.181960
1.268983
1.257658
1.370907
1.403689
1.184940
1.794696
2.058744
4.648566
18.223524
68.452954
132.010579
258.926749
398.229957
545.836687
719.173551
796.085596
800.557733
739.053488
595.186949
467.252731
300.268531
196.860433
109.104514
74.109435
65.850616
78.199506
106.121898
127.372742
146.963000
150.091648
144.919753
134.275556
105.943680
84.602833
55.812001
38.276911
22.875667
15.417933
10.157824
8.484721
6.937981
7.569790
7.266998
7.511973
7.580519
7.228851
7.151961
7.529855
6.652474
7.203817
6.689429
7.119775
6.752610
6.658435
6.809831
6.585717
6.713867
7.424951
7.805824
6.867647
6.733537
7.111430
8.412600
8.066893
8.096695
7.949471
8.937716
8.144975
8.195639
8.356571
8.634925
7.563829
7.904768
7.632971
7.635951
7.468462
7.239580
7.244945
7.418990
7.438660
7.158518
6.770492
6.664991
6.613731
6.705523
6.780624
6.827712
7.084608
7.173419
##ZVALUE=270
0.956655
0.754595
0.808835
0.896454
0.862479
0.978708
0.818968
0.891685
0.976920
1.030564
1.083612
1.058578
1.222491
1.251698
1.397729
1.367927
2.162457
8.963943
30.170679
99.182725
193.304420
322.351456
529.941916
675.091743
818.883777
860.453844
828.514695
740.009546
572.065711
429.054499
292.689800
156.930685
94.322562
55.049658
57.399869
81.015825
103.630424
129.833817
144.281983
152.060986
147.348642
130.982995
112.430453
81.245899
60.946941
36.282539
24.523735
14.801621
10.773540
8.084774
7.827878
6.747842
7.120967
7.104874
6.926656
6.940961
6.793737
7.009506
7.445812
7.162690
6.847978
7.097721
6.605983
6.729960
6.758571
6.465912
7.327795
6.589890
6.854534
7.013679
7.295609
8.052588
7.708669
7.933974
7.940531
7.957816
7.849932
7.630587
7.877946
7.232428
7.538795
7.180572
6.716847
7.097721
6.710887
6.754994
6.940961
6.280541
6.405711
6.267428
6.728768
6.137490
6.172657
6.444454
6.232858
5.928874
##ZVALUE=275
0.968575
1.016855
1.025796
0.986457
1.011491
0.947714
0.944734
1.064539
0.987649
1.002550
1.092553
1.258850
1.240969
1.255870
1.434684
1.274943
1.482964
1.481771
1.796484
4.642606
17.899871
52.003860
147.623420
267.069936
466.901660
613.747835
765.355825
852.952600
868.413448
812.594891
674.604774
528.243780
373.025537
198.287964
117.588639
59.002638
46.075583
57.470798
75.272918
103.793740
123.569965
140.823722
149.164796
145.558715
129.735470
105.788708
84.509850
57.187676
42.241812
24.089813
16.737580
10.886788
8.549690
7.254481
7.156730
6.843805
7.303953
7.122755
7.313490
7.400513
7.242560
7.026792
6.959438
7.029772
6.664991
6.820560
7.040501
7.134676
6.923676
7.590652
7.268786
7.682443
7.975698
7.597804
8.086562
7.905960
7.644892
7.736683
7.783771
7.624626
7.048845
7.165670
7.042885
7.085800
6.996989
6.702542
6.268620
6.396770
6.471872
6.780624
6.428957
6.559491
6.224513
6.400943
6.315708
6.318688
##ZVALUE=280
0.970960
1.013875
1.042485
0.857711
0.867844
0.826716
0.986457
0.945926
0.964999
1.143813
0.892878
0.883937
0.985861
1.133680
1.230836
1.250505
1.207590
1.239777
1.221895
1.504421
1.609921
2.321601
11.693835
38.298965
117.258430
208.927989
370.185971
517.643690
722.194910
835.247636
893.422961
879.138708
791.253448
601.290464
441.613793
247.449875
145.938993
69.792867
42.780638
39.957762
52.861571
78.159571
98.270774
126.635432
141.384602
145.737529
140.514970
124.990940
108.429790
79.997778
59.181452
36.826730
25.856495
15.584826
10.569692
7.995963
7.257462
6.756783
7.084608
7.013679
6.811619
7.102489
7.325411
7.173419
7.090569
6.961823
7.148981
6.989837
7.261634
7.079840
7.486939
7.387996
7.449985
7.813573
7.732511
7.699728
7.440448
7.561445
6.921887
7.422566
7.206798
7.212758
6.880760
6.867647
6.942749
6.717443
6.713867
6.777644
6.727576
6.397963
6.506443
6.357431
6.232858
6.432533
6.297827
6.293654
##ZVALUE=285
0.916719
0.762939
0.756979
0.656843
0.897646
0.754595
0.811815
1.002550
0.815988
0.919700
1.011491
1.095533
1.085997
1.327991
1.106858
1.050830
1.179576
1.070499
1.221895
1.262426
1.230836
1.478791
1.630783
1.712441
5.502701
19.392967
64.581633
128.907561
269.056559
412.007570
560.204983
755.161643
857.661963
893.362761
836.654902
674.262643
529.473424
332.842469
208.800435
101.480484
54.306984
30.398965
32.558441
49.398541
69.356561
99.133849
115.606785
133.606791
142.273903
137.732625
127.322674
106.161833
84.958673
58.935881
41.003823
23.618937
15.896559
10.435581
8.262992
7.093549
6.840825
6.643534
7.037520
7.164478
6.924868
6.678700
7.022619
7.027984
7.231832
7.032752
7.113814
7.436872
7.503629
7.738471
7.762909
7.509589
7.527471
7.045865
7.163882
7.161498
6.796718
6.869435
6.699562
6.763935
6.892681
6.526709
6.759763
7.120967
6.354451
6.280541
6.345510
6.424785
5.996823
6.271601
6.224513
6.266832
##ZVALUE=290
0.739694
0.745654
0.763535
0.878572
0.881553
0.864863
0.891685
0.904799
0.988841
1.028776
1.020432
1.019835
1.107454
0.952482
0.787973
0.917912
0.962615
1.071692
1.126528
1.070499
1.118779
1.191497
1.314878
1.292825
1.546741
1.764894
2.100468
10.314584
31.741858
93.365908
173.221827
341.063738
487.769842
687.044859
805.417895
888.106823
871.735811
746.859908
612.120628
410.676599
271.795988
135.715604
73.652864
32.100677
22.909641
31.573772
44.785738
68.264604
87.876916
111.698508
127.588511
135.084987
134.447813
121.149421
103.743672
77.599883
56.527853
37.712455
26.125908
14.804602
10.560751
7.717609
6.815791
6.151795
6.401539
6.228685
6.382465
6.362796
6.636977
6.927848
6.834865
6.823540
7.374883
7.121563
6.990433
7.271767
6.811619
6.949902
6.666780
6.372929
6.507635
6.691813
6.349683
6.102920
6.362796
6.084442
6.572604
6.150603
6.295443
6.193519
5.877614
6.172657
6.113648
5.870461
5.980730
6.354451
##ZVALUE=295
0.827909
0.766516
0.875592
0.788569
0.828505
0.769496
0.608563
0.672936
0.667572
0.794530
0.942945
0.814795
0.874996
0.886917
1.036525
1.052618
0.956655
0.805855
1.060963
0.965595
1.005530
1.111627
1.184940
1.074672
1.141429
1.440644
1.501441
1.594424
1.764894
3.361702
12.605786
52.065849
113.421679
254.109502
394.119024
597.958565
734.294653
855.715871
880.995989
809.364915
687.485933
493.234992
343.533754
185.354948
102.043748
39.833784
22.108555
19.306540
26.714802
42.896867
60.018897
84.391832
102.322698
120.405555
129.124522
126.945972
117.170811
96.033812
77.617764
53.837895
38.649440
23.391843
15.775561
9.959936
7.809997
6.220937
5.963445
5.805492
5.805492
6.344914
6.373525
5.975962
6.081462
6.276965
6.505847
6.172657
6.238818
6.327629
6.331801
6.235838
6.313920
6.205440
6.049871
5.998611
6.506443
6.158948
6.204844
5.757809
5.756617
6.000996
5.593896
5.680919
5.745888
5.441904
5.692840
5.664825
##ZVALUE=300
0.746846
0.813603
0.760555
0.699759
0.683665
0.706911
0.938773
0.746846
0.698566
0.825524
0.882745
0.878572
0.922680
0.983477
0.858903
0.907779
0.881553
0.979900
0.861883
0.951886
0.937581
1.127720
1.131892
1.122952
1.056790
1.307726
1.311898
1.186728
1.153946
1.437664
1.624823
2.043843
7.837415
27.331710
88.472962
165.733695
321.940780
470.485687
672.681928
785.400867
875.379443
860.275030
749.490857
611.061454
405.666828
266.670585
136.043429
72.621703
28.663874
16.088486
16.748905
23.007989
38.806796
53.651929
77.799559
95.343590
113.383532
120.802522
120.863914
113.949776
95.333457
76.500773
54.609776
39.226413
23.896694
15.866756
9.803772
7.269979
5.994439
5.744696
5.620718
5.619526
5.888939
5.818605
5.842447
5.884767
6.214976
6.082654
5.894899
5.913973
6.007552
6.211996
5.739927
6.077886
6.083846
6.107688
5.970597
5.960464
5.903840
5.837679
5.749464
5.484819
5.681515
5.718470
5.735755
5.337596
##ZVALUE=305
0.655651
0.633597
0.906587
0.730753
0.562668
0.646710
0.705719
0.642538
0.664592
0.721812
0.752807
0.845790
0.826716
0.793934
0.800490
0.716448
0.877976
0.782609
0.819564
0.791550
0.851750
0.934601
1.055598
0.864863
1.058578
1.095533
0.883937
1.165867
1.310706
1.220703
1.533628
1.566410
1.519918
1.667738
3.128648
19.084811
50.459504
131.730437
229.706764
409.152508
554.936528
733.947754
832.935572
861.235857
805.824995
638.746023
498.225689
314.113498
196.276903
90.355873
45.286417
17.908812
12.604594
14.827847
22.054911
37.568808
52.168965
73.859692
90.566874
108.807683
115.667582
115.453601
107.652545
89.706779
73.610544
51.026940
36.979914
23.038983
15.203953
9.250641
6.734729
6.049871
5.525947
5.900860
5.593896
5.301833
5.538464
5.686879
5.360842
5.411506
5.763769
5.727410
5.645752
5.640984
5.493760
5.870461
5.397797
5.754828
5.865693
5.733967
5.765557
5.665421
5.501509
5.386472
5.104542
5.255938
##ZVALUE=310
0.677705
0.623465
0.659823
0.779629
0.428557
0.645518
0.538826
0.644922
0.680685
0.772476
0.768900
0.677705
0.814795
0.715852
0.793934
0.719428
0.642538
0.774860
0.660419
0.796914
0.881553
0.691414
0.915527
0.776649
0.948906
0.982881
0.973940
0.943542
1.094937
1.024604
1.035929
1.069903
1.163483
1.261830
1.516938
1.620650
1.837611
7.847548
26.030540
81.310868
157.373548
305.652618
449.371934
641.250610
768.269897
853.629708
842.484832
736.964941
602.839589
400.692821
269.385576
136.442780
73.066950
28.325915
13.584495
10.141730
12.871623
20.566583
29.837489
47.074556
63.272715
84.435940
97.567439
108.307600
108.526945
101.257563
89.573860
69.414973
53.809881
35.189986
24.521947
15.135407
10.711551
6.966591
6.206632
5.344748
5.461574
5.229712
5.325675
5.145669
5.377531
5.424619
5.474687
5.891919
5.805492
5.893707
5.682707
5.533695
5.587935
5.443692
5.601645
5.519986
5.316734
5.534887
5.430579
5.622506
##ZVALUE=315
0.892878
0.651479
0.680685
0.767708
0.850558
0.924468
1.020432
0.840425
0.893474
0.775456
0.724792
0.702739
0.825524
0.748634
0.895858
0.724792
0.945926
0.965595
0.828505
0.954866
0.815988
0.887513
0.922680
1.036525
1.056790
1.037717
1.115799
1.014471
1.073480
1.148582
1.203418
1.211762
1.202822
1.402497
1.420975
1.461506
1.643896
1.551509
1.871586
3.643632
12.663603
50.566792
106.596947
230.813026
367.138982
575.342774
707.163811
831.264853
868.981481
800.530910
684.990883
492.314696
349.268913
187.729001
104.112625
40.190816
18.628836
9.388924
8.907914
12.569427
17.637610
29.311776
41.465759
60.018897
74.885488
93.583465
101.934671
102.769732
97.701550
82.824826
68.482757
50.305724
35.970807
22.129416
14.977455
9.711981
7.350445
6.024837
5.502701
5.595684
5.435944
5.619526
5.376935
5.814433
5.588531
5.379915
5.543828
5.847812
5.618930
5.658865
5.593896
5.816817
5.754828
5.404949
5.334616
5.667806
##ZVALUE=320
0.539422
0.645518
0.681877
0.660419
0.658631
0.466704
0.746846
0.722408
0.572801
0.726581
0.653863
0.662804
0.590682
0.709891
0.684857
0.676513
0.881553
0.796914
0.735521
0.625849
0.845790
0.825524
0.755787
0.638962
0.838637
0.919700
0.944734
0.910759
0.970960
1.012683
0.996590
0.959635
0.875592
1.029968
0.889897
0.946522
1.151562
1.220703
1.264811
1.374483
1.416802
1.705885
5.890727
29.631853
69.612861
169.140697
277.010798
457.572937
599.244833
758.627653
829.516649
820.229650
743.564963
576.054454
426.851511
239.595771
136.769414
56.663752
26.219487
10.532737
7.581711
8.501410
10.668635
16.280413
24.174452
39.309859
53.174496
71.196556
84.242821
94.883442
96.835494
92.488527
81.312656
64.348578
49.914718
32.200813
22.515655
14.114976
10.063648
6.894469
5.906820
5.468726
5.784631
5.662441
5.277991
5.252957
5.351901
5.459785
5.465746
5.592704
5.468726
5.293489
5.304813
5.254745
5.219579
5.470514
##ZVALUE=325
0.584722
0.677705
0.604987
0.562668
0.779629
0.648499
0.552535
0.665784
0.572801
0.634789
0.582933
0.657439
0.639558
0.646710
0.677705
0.635982
0.697970
0.647902
0.609756
0.716448
0.725985
0.680685
0.763535
0.496507
0.915527
0.598431
0.730753
0.867844
0.792742
0.688434
0.767708
0.901818
0.817776
0.905991
1.001954
0.923872
1.219511
1.151562
1.028776
1.026988
1.213551
1.227856
1.378655
1.464486
3.770590
14.398694
51.824450
104.970932
226.681828
358.199477
557.191968
689.653754
812.582970
835.430622
768.207908
651.334524
451.045632
315.658450
171.001554
93.584657
35.272837
15.856624
7.801652
7.071495
7.706881
9.722710
15.540719
22.880435
38.303733
51.824450
70.281625
81.638694
90.091825
90.744495
85.077882
75.653791
58.571696
46.146512
30.075908
21.257997
13.059974
9.195805
7.153749
6.121993
5.733967
5.466938
5.243421
5.418658
5.245805
5.287528
5.207658
5.266666
5.328655
5.044937
5.093813
5.067587
##ZVALUE=330
0.582933
0.651479
0.477433
0.496507
0.758767
0.633597
0.597835
0.566840
0.659823
0.592470
0.816584
0.684857
0.575781
0.717640
0.627637
0.555515
0.727773
0.598431
0.558496
0.683665
0.552535
0.831485
0.568628
0.817776
0.729561
0.740886
0.683665
0.664592
0.812411
0.854731
0.736713
0.850558
0.741482
0.872612
0.842810
0.968575
0.943542
0.968575
1.090765
0.905991
1.061559
1.177788
1.144409
1.285672
1.170635
1.586676
1.715422
8.005500
25.269985
81.071854
151.991844
296.769738
431.356430
611.133575
723.720789
803.375840
783.619881
676.205754
548.239946
362.083912
234.013796
112.207532
58.052540
21.059513
9.732842
6.755590
6.362796
7.231832
9.288788
14.802814
22.268891
35.311580
47.092438
64.524412
75.878501
84.765553
85.018873
79.716444
71.026683
55.300593
43.039918
28.328896
20.495653
13.182759
9.855628
6.829500
5.870461
5.186796
4.999638
5.410910
4.965663
5.093813
5.122423
4.950762
5.162954
4.821420
##ZVALUE=335
0.622869
0.696778
0.610948
0.685453
0.571609
0.472665
0.621676
0.550747
0.508428
0.663996
0.525713
0.524521
0.743866
0.703931
0.522733
0.562668
0.604987
0.527501
0.563860
0.558496
0.715852
0.513792
0.734925
0.667572
0.802875
0.767708
0.808835
0.849962
0.848770
0.746846
0.773668
0.787973
0.742674
0.850558
0.813603
0.835657
0.821948
0.935793
0.919700
0.859499
0.963807
0.878572
1.156926
1.009703
1.079440
1.180768
1.393557
1.202822
1.495481
3.600717
13.307929
50.343871
103.060603
224.637985
352.584720
544.245839
668.408871
772.251487
785.504580
710.772872
602.095723
426.251888
292.370915
156.311989
83.829761
30.013919
13.404489
7.154942
5.964637
6.001592
6.779432
9.384751
13.346672
22.030473
31.422973
47.599673
59.001446
71.905851
78.286529
79.573989
75.562596
63.986778
53.753853
41.021705
31.099916
20.703673
13.914704
9.305477
7.352829
6.035566
5.093813
4.834533
4.966855
4.728436
5.069971
4.989505
##ZVALUE=340
0.609756
0.606775
0.692606
0.620484
0.657439
0.671744
0.495911
0.591874
0.660419
0.520945
0.694990
0.692606
0.644922
0.570416
0.711679
0.644922
0.705719
0.560880
0.577569
0.530481
0.658631
0.635982
0.681877
0.725985
0.640750
0.549555
0.780821
0.753999
0.719428
0.685453
0.731945
0.783801
0.805855
0.803471
0.859499
0.794530
0.713468
0.733733
0.849962
0.799894
0.979900
0.895858
1.029968
0.989437
0.973940
1.112819
1.047850
1.100898
1.125932
1.457930
1.481771
1.805425
8.069873
25.918484
79.820752
155.839920
313.144922
442.074537
606.290698
709.952712
772.524476
743.187666
631.112456
503.158569
323.262811
205.879807
98.843575
48.501492
15.412569
7.925630
6.073713
5.678535
5.969405
6.573796
8.825660
12.530684
20.656586
28.911829
43.126941
54.273605
66.852570
73.711872
73.977709
71.136951
61.669946
52.028894
39.375424
29.884577
19.281507
14.182925
9.145737
7.231832
5.722642
5.193949
4.781485
4.820824
##ZVALUE=345
0.327826
0.444651
0.452995
0.307560
0.605583
0.453591
0.500679
0.511408
0.395775
0.347495
0.395775
0.305772
0.531673
0.457764
0.536442
0.368953
0.336766
0.576973
0.616908
0.592470
0.414848
0.530481
0.531673
0.365973
0.429749
0.572801
0.512600
0.388622
0.662804
0.533462
0.619888
0.555515
0.536442
0.405908
0.649691
0.600815
0.667572
0.693798
0.509620
0.670552
0.619888
0.652671
0.647902
0.783801
0.835657
0.764728
0.948906
0.792742
0.787973
0.770688
1.074672
1.088977
1.074672
1.441836
2.643466
16.577840
45.036674
115.722418
204.563737
364.308953
495.597720
644.824505
719.077587
731.855631
675.442815
530.339479
402.191877
245.347023
141.522884
57.282448
26.321411
9.706616
6.179810
5.684495
5.285740
5.566478
5.650520
7.847548
11.381507
18.662810
26.930571
39.750934
49.478412
60.452819
65.795779
67.319870
66.249967
58.579445
50.375462
38.388968
29.202700
19.397736
13.924837
9.294748
6.813407
5.599856
##ZVALUE=350
0.527501
0.399947
0.354648
0.412464
0.491738
0.314713
0.462532
0.562668
0.551939
0.547767
0.632405
0.493526
0.588894
0.571609
0.521541
0.551939
0.600815
0.556707
0.538826
0.354648
0.551939
0.623465
0.563860
0.652671
0.473857
0.498891
0.666976
0.482798
0.609756
0.639558
0.611544
0.639558
0.631809
0.653863
0.636578
0.668764
0.629425
0.673532
0.697970
0.712872
0.671744
0.776649
0.624657
0.599623
0.636578
0.688434
0.910759
0.947714
0.904799
0.896454
1.037717
0.813603
0.944734
1.153946
1.164675
1.115799
2.093911
6.513596
28.451681
65.854788
157.596469
262.413025
429.320931
553.674698
685.817599
726.301670
684.620738
593.034625
418.839455
286.714435
148.219466
82.810521
33.151507
14.075637
6.228685
5.283952
5.163550
4.804730
4.900694
5.177855
7.510781
10.601878
16.792417
23.142695
34.336448
42.684674
53.490996
59.283972
63.808560
61.403513
54.906607
47.506690
36.548972
28.398633
19.044876
13.922453
##ZVALUE=355
0.557899
0.603795
0.571609
0.630617
0.604987
0.491738
0.452995
0.548959
0.502467
0.574589
0.566840
0.640750
0.641942
0.532866
0.583529
0.761747
0.520945
0.650883
0.605583
0.680685
0.619888
0.608563
0.579953
0.539422
0.620484
0.567436
0.640750
0.743866
0.707507
0.606775
0.608563
0.733733
0.694990
0.856519
0.608563
0.590682
0.769496
0.788569
0.903606
0.841618
0.885725
0.713468
0.731945
0.693798
0.661612
0.741482
0.811815
0.873804
0.856519
0.889897
0.983477
0.895858
1.064539
1.013875
1.032948
1.169443
1.236796
1.437664
1.421571
3.914833
14.368892
52.923560
105.471611
220.857859
348.067880
536.628962
651.838779
739.272833
725.959539
619.458556
496.537685
322.631598
205.140710
91.804862
44.854879
15.065670
7.343888
5.108714
5.082488
4.655719
4.596710
4.648566
5.182624
6.792545
9.268522
14.872551
20.506978
28.847456
37.268996
47.887564
53.536892
57.672858
56.428909
50.953627
45.138001
35.787821
##ZVALUE=360
0.570416
0.697970
0.653863
0.693798
0.718832
0.599623
0.584722
0.721812
0.611544
0.621676
0.464916
0.645518
0.563860
0.510812
0.541806
0.603795
0.535846
0.709891
0.629425
0.591874
0.705719
0.582933
0.676513
0.720620
0.652671
0.669956
0.586510
0.638962
0.562668
0.593662
0.620484
0.661612
0.656843
0.689626
0.692606
0.663996
0.735521
0.651479
0.706911
0.790954
0.689626
0.656843
0.863671
0.849962
0.824928
0.833869
0.857711
0.968575
0.935793
0.794530
0.892878
0.914931
0.888705
1.038909
0.932813
1.082420
1.199841
1.071692
1.123548
1.233816
1.481771
2.199411
6.358624
26.984811
63.691735
159.888864
275.259614
467.636585
635.239482
796.546936
830.405951
759.595633
632.022023
419.026613
271.563530
130.143762
66.920519
25.450587
10.863543
5.622506
5.096793
4.619956
4.506707
4.138947
4.259944
4.672408
5.543828
7.673502
10.820627
17.005801
23.316741
33.083558
39.958954
47.548413
50.892830
51.181912
##ZVALUE=365
0.689626
0.484586
0.460744
0.491738
0.639558
0.451803
0.551939
0.713468
0.549555
0.639558
0.552535
0.616908
0.538826
0.668764
0.524521
0.543594
0.486970
0.678897
0.676513
0.564456
0.608563
0.718832
0.678897
0.475645
0.642538
0.525713
0.711679
0.592470
0.675917
0.719428
0.805855
0.746846
0.649691
0.836849
0.656843
0.692606
0.750422
0.833869
0.859499
0.766516
0.746846
0.817776
0.648499
0.698566
0.945926
0.911951
0.955462
0.818968
0.987649
0.858903
0.814795
1.063943
0.876784
0.837445
1.011491
0.916719
1.011491
0.930429
0.921488
1.141429
1.272559
1.374483
1.379848
1.665950
3.042817
15.257597
39.864779
102.352500
192.987919
373.666883
517.909527
693.022609
783.903003
781.016946
688.213706
499.013662
350.436568
188.694000
100.227594
35.715699
15.045404
5.993843
4.601479
4.388690
4.223585
3.887415
3.879666
3.674626
4.015565
4.881620
6.009936
9.693503
13.717413
20.955801
27.520657
35.637617
##ZVALUE=370
0.535846
0.511408
0.646710
0.552535
0.657439
0.479817
0.504851
0.533462
0.575781
0.551939
0.586510
0.404716
0.573993
0.663996
0.407696
0.576973
0.619888
0.644922
0.612736
0.616908
0.634789
0.539422
0.548959
0.520945
0.582933
0.514984
0.626445
0.565648
0.650883
0.571609
0.427961
0.677705
0.662804
0.499487
0.584722
0.660419
0.628829
0.696778
0.704527
0.715852
0.656843
0.622869
0.832677
0.773668
0.792742
0.706911
0.592470
0.876784
0.686646
0.731945
0.772476
0.662804
0.876784
0.818968
0.813603
0.728965
0.913739
0.978708
1.024604
0.973940
0.866652
1.107454
1.132488
1.138449
1.190901
1.470447
1.852512
7.967949
24.836659
77.042580
144.115686
282.555819
417.424440
599.039793
695.988536
744.235516
700.377822
548.767447
412.161946
230.235457
129.109621
50.314665
23.200512
8.921623
5.139709
4.158616
4.009604
3.889799
3.682971
3.554821
3.540516
3.567934
4.274845
5.850792
7.919669
12.292862
##ZVALUE=375
0.610948
0.598431
0.535846
0.519753
0.480413
0.439882
0.462532
0.621676
0.517964
0.674725
0.570416
0.637770
0.653863
0.613928
0.611544
0.446439
0.535846
0.578761
0.627637
0.515580
0.533462
0.507832
0.616908
0.525713
0.473857
0.607967
0.609756
0.675917
0.720620
0.600815
0.682473
0.652671
0.666976
0.564456
0.661612
0.672936
0.632405
0.736713
0.783801
0.499487
0.682473
0.784993
0.714660
0.728965
0.707507
0.723600
0.714660
0.799894
0.702739
0.672936
0.632405
0.665784
0.738502
0.620484
0.732541
0.905991
0.776649
0.900626
0.834465
0.859499
0.828505
0.864863
1.083612
0.995994
1.057982
1.090765
1.182556
1.303554
1.438856
3.468990
17.717481
43.287873
107.316971
190.485716
344.247818
469.900966
621.936917
696.926713
695.487857
613.651872
449.076891
321.421623
180.870891
102.889538
39.978623
16.871691
5.925894
4.358888
3.911853
3.727674
3.593564
3.613830
3.325939
3.269911
3.312826
3.703833
##ZVALUE=380
0.516772
0.525713
0.502467
0.492930
0.495911
0.459552
0.474453
0.455976
0.567436
0.516772
0.555515
0.475645
0.534654
0.575781
0.499487
0.407696
0.461936
0.450611
0.598431
0.453591
0.596642
0.604987
0.472665
0.479817
0.668764
0.460744
0.591874
0.526905
0.550747
0.491738
0.498891
0.591874
0.479817
0.676513
0.578761
0.637770
0.596642
0.665784
0.544786
0.446439
0.704527
0.639558
0.602603
0.568628
0.785589
0.666976
0.620484
0.704527
0.571609
0.576973
0.667572
0.660419
0.656843
0.636578
0.626445
0.896454
0.793934
0.759959
0.655651
0.725985
0.721812
0.777841
0.820756
0.864863
0.962615
0.879765
0.902414
1.017451
1.172423
1.373887
1.409650
2.499819
7.715821
34.947991
76.285601
171.448588
272.069573
422.370434
536.819696
645.364523
665.743947
598.628521
502.823591
349.347591
239.325762
120.763779
65.310001
26.315451
10.548830
4.393458
3.989935
3.607869
3.393888
3.061891
3.143549
3.117919
##ZVALUE=385
0.524521
0.507832
0.537634
0.575781
0.431538
0.461936
0.386834
0.538826
0.511408
0.513792
0.577569
0.400543
0.474453
0.510812
0.553727
0.646710
0.661612
0.578761
0.517964
0.625849
0.620484
0.666976
0.547767
0.513792
0.601411
0.490546
0.548959
0.607967
0.524521
0.740886
0.501871
0.744462
0.554919
0.731945
0.601411
0.413656
0.618696
0.593662
0.743866
0.723600
0.687838
0.581741
0.601411
0.529885
0.519753
0.675917
0.612736
0.695586
0.680685
0.586510
0.763535
0.667572
0.632405
0.668764
0.721812
0.607967
0.707507
0.753999
0.888705
0.750422
0.708699
0.637770
0.831485
0.696778
0.876784
0.816584
0.737906
0.857711
1.091957
1.070499
1.072884
1.144409
1.404881
1.415610
4.349947
14.667511
53.056479
107.569695
224.478841
335.190892
480.337739
558.686852
601.446629
583.740473
494.573712
396.080017
255.656838
165.914893
77.776909
39.766431
14.085770
6.042719
3.536940
3.366470
3.291965
3.238916
##ZVALUE=390
0.425577
0.478625
0.384450
0.412464
0.428557
0.559688
0.402927
0.420809
0.406504
0.391603
0.493526
0.512600
0.553727
0.654459
0.440478
0.576973
0.631809
0.536442
0.513792
0.529885
0.555515
0.562668
0.541806
0.505447
0.376701
0.439882
0.446439
0.513792
0.480413
0.626445
0.704527
0.569820
0.670552
0.750422
0.620484
0.727773
0.677705
0.651479
0.593662
0.484586
0.586510
0.580549
0.457764
0.550747
0.605583
0.733733
0.699759
0.677705
0.718832
0.573993
0.736713
0.539422
0.638962
0.696778
0.661612
0.620484
0.733733
0.675917
0.591874
0.779629
0.642538
0.757575
0.746846
0.861883
0.664592
0.818968
0.878572
0.802875
0.868440
0.848770
1.104474
1.180768
1.153946
1.179576
1.211762
1.291633
2.039671
10.307431
30.860901
87.878704
163.115859
299.276710
410.382748
534.290671
593.947768
605.636835
557.359457
441.433787
341.761708
212.585926
127.281547
54.084659
26.532412
9.086728
4.282594
3.517866
##ZVALUE=395
0.585914
0.463724
0.615716
0.507832
0.530481
0.510812
0.572801
0.385642
0.436902
0.417829
0.396967
0.637770
0.574589
0.541806
0.502467
0.524521
0.544786
0.540614
0.562668
0.465512
0.541806
0.720620
0.530481
0.563860
0.633597
0.645518
0.410676
0.492930
0.542998
0.564456
0.467896
0.487566
0.647902
0.616908
0.651479
0.508428
0.595450
0.573993
0.579953
0.597835
0.686646
0.677705
0.608563
0.499487
0.662804
0.694990
0.639558
0.680685
0.571609
0.699759
0.559688
0.657439
0.548959
0.621676
0.798702
0.765920
0.684857
0.650883
0.729561
0.666976
0.751615
0.629425
0.848770
0.660419
0.684857
0.779629
0.826716
0.971556
0.939965
1.088977
0.929832
1.059771
0.966787
0.940561
1.020432
1.026988
1.064539
1.259446
1.594424
4.760623
22.599697
55.863857
134.389400
219.903588
361.360908
471.585989
585.553646
618.578792
595.761538
518.335700
374.876857
266.930461
144.957900
81.663728
33.625960
15.202761
##ZVALUE=400
0.560880
0.611544
0.535846
0.515580
0.515580
0.487566
0.493526
0.520945
0.572801
0.339746
0.602603
0.504851
0.477433
0.554919
0.566840
0.548959
0.508428
0.631809
0.666976
0.490546
0.480413
0.542998
0.562668
0.588894
0.585914
0.559688
0.423789
0.590682
0.413656
0.532866
0.393987
0.553727
0.592470
0.624657
0.525713
0.676513
0.743866
0.700951
0.554919
0.477433
0.651479
0.461936
0.570416
0.603795
0.522733
0.612736
0.702739
0.604987
0.591874
0.566840
0.583529
0.812411
0.708699
0.591874
0.661612
0.714660
0.632405
0.630617
0.527501
0.739694
0.593662
0.610948
0.696778
0.621676
0.550747
0.835657
0.805855
0.922680
0.909567
0.958443
0.953674
0.981688
0.939965
0.921488
0.921488
0.887513
0.939965
0.968575
1.083612
1.102686
1.254678
3.146529
10.788441
40.726662
84.320903
180.983543
280.717611
427.289605
523.088574
602.500439
608.560443
534.854531
443.205833
308.910608
205.175877
104.986429
##END
