##TITLE=FQP00652
##FORMAT=SPECTACLE-ASCII V-1.2
##DATA TYPE=ULTRAVIOLET SPECTRUM
##SECOND TYPE=ULTRAVIOLET SPECTRUM
##DATE=01/30/18
##TIME=16:11:34
##SPECTROMETER/DATA SYSTEM=SPECTACLE
##XUNITS=NM EM
##YUNITS=ENERGY
##YFACTOR=1
##FIRSTX=220
##LASTX=410
##NPOINTS=96
##3DDATA=Equidistant
##ZUNITS=NM EX
##FIRSTZ=210
##LASTZ=400
##ZPOINTS=39
##XYDATA=(Y..Y)
##ZVALUE=210
1.858473
1.720786
2.162457
1.911521
1.760721
1.954436
2.419949
1.930594
2.382994
2.342463
1.767874
2.345443
1.853704
1.869798
2.003908
2.729893
2.192855
2.214909
2.441406
2.182722
3.022552
2.788901
2.731681
2.994537
3.361702
4.036427
3.944635
3.948808
4.747510
4.316568
4.850626
5.285740
6.052852
5.157590
5.486608
5.912781
5.671978
5.532503
4.959702
6.012917
5.137920
5.575418
5.333424
4.447699
5.099773
5.318522
4.667640
4.872680
5.249977
4.975796
5.520582
5.026460
4.829764
5.064607
4.781485
4.414916
4.608631
5.224943
5.115867
4.634857
4.325509
4.541874
4.792809
5.194545
5.117655
4.254580
5.354881
5.522966
6.814599
7.621646
8.919835
10.188818
11.926889
12.576580
13.787746
14.280677
14.115572
13.829470
12.665987
14.180541
12.275577
11.701584
10.241866
7.861853
7.005930
5.643964
4.050732
4.680753
4.433990
4.881620
4.197955
4.869699
4.362464
5.141497
4.839897
6.423593
##ZVALUE=215
5.420446
5.289912
4.774928
4.175901
4.505515
3.706813
4.089475
4.177690
4.369617
4.429817
4.597902
4.229546
3.201962
3.160834
2.000928
2.531409
2.140999
2.377629
2.387762
2.391934
2.834797
2.869964
2.830625
3.069639
3.753901
3.416538
4.010797
4.654527
5.318522
5.504489
7.121563
7.512569
6.770492
6.972551
7.186532
8.507967
7.548928
7.551908
6.961823
7.368922
7.329583
6.963611
6.965995
6.056428
7.582903
5.068779
5.465746
4.930496
5.720854
4.352927
5.170703
5.798936
4.958510
4.731417
5.047917
4.473925
4.333854
4.514456
4.756451
4.377961
4.027486
3.997684
4.252791
4.696846
4.516840
4.513860
4.636645
4.896522
5.212426
6.188750
6.083846
7.387996
7.434487
8.697510
8.850694
9.350777
9.592772
9.737611
9.566545
9.139776
9.560585
8.561611
7.416606
5.573630
6.147623
4.794598
4.950762
4.911423
4.736781
4.140735
4.189610
4.117489
4.237890
4.516840
3.512502
4.690886
##ZVALUE=220
16.459823
17.274618
18.446445
19.765496
17.269850
14.410615
12.218952
10.484457
9.071827
9.906888
11.128783
10.459423
10.768771
9.522438
9.144545
6.640553
4.795790
4.209876
4.014969
2.694726
3.256798
3.144741
3.099442
3.344417
3.209710
4.575849
4.563928
5.464554
6.506443
7.573962
9.011626
9.842515
10.091662
11.467934
11.052489
11.586547
11.155605
11.786819
10.247827
11.928678
9.912848
9.716749
9.205937
8.554459
8.985996
7.693768
7.471442
7.563829
7.241964
6.953478
6.327629
6.873608
6.270409
5.912781
6.970763
6.393790
5.704761
5.925894
5.649924
4.967451
5.462766
5.787611
4.701614
5.521774
5.912781
5.743504
5.075932
6.210804
6.064773
7.061958
6.969571
8.498430
9.350777
10.034442
11.373758
11.255741
10.143518
10.716915
10.610819
9.543896
8.990765
9.712577
7.548928
7.654428
6.671548
5.860925
5.456805
5.536675
4.811883
4.566908
4.420877
4.799962
4.756451
4.765987
4.205704
4.756451
##ZVALUE=225
31.476617
33.135414
42.694807
54.215789
58.672428
56.467652
52.268505
43.967962
34.138560
26.841760
23.118854
21.293759
22.468567
23.155808
23.684502
23.259521
19.455552
14.544725
11.058450
8.366704
6.056428
4.944801
3.639460
3.857613
3.982782
5.080700
6.134510
7.672906
8.215904
10.054708
9.633899
13.158917
13.908744
13.355613
14.774799
13.901591
15.234947
14.747977
14.666915
13.738871
12.668967
12.759566
12.863874
11.311769
10.708570
11.291504
10.003448
8.846521
9.688735
8.908510
8.536577
9.593964
8.483529
8.772612
7.808805
8.118749
8.136630
7.443428
7.752776
7.639527
6.654859
7.999539
6.629825
7.892847
6.303787
7.987618
8.121729
7.547736
6.935596
8.833408
8.678436
11.157990
10.360479
12.644529
13.317466
14.212728
14.320612
12.918711
12.364984
13.983846
12.190938
10.937452
9.282827
8.906722
8.113980
8.316636
7.728934
7.684827
8.108616
6.896853
6.434917
7.258654
7.179976
6.264448
6.857514
8.142591
##ZVALUE=230
32.446980
35.919547
57.934523
89.685917
120.776892
148.161650
160.079598
158.295631
143.786669
112.098455
83.713531
58.757663
46.431422
42.195916
41.333437
45.952797
48.248768
46.631694
43.622851
34.800768
25.133491
19.129515
11.426806
7.916689
6.597638
5.661845
6.952882
8.037686
9.458661
10.211468
10.041595
12.758970
12.580752
15.344620
14.310479
12.802482
14.082789
13.465881
14.538765
14.726520
13.448596
13.467669
11.567473
11.846423
11.190772
11.828542
10.090470
11.095405
11.067986
10.242462
9.692907
10.746717
9.935498
9.606481
9.443760
9.418726
9.514689
9.888411
8.677840
9.805560
9.285808
10.259748
10.185838
8.667707
8.738637
10.084510
10.708570
10.885000
11.794567
12.575984
13.103485
15.744567
15.454888
16.460419
17.794967
16.869903
19.729733
17.787814
18.060803
17.821789
17.034411
15.686750
13.803840
13.181567
12.648702
11.254549
11.441708
11.133552
11.065602
10.649562
9.853840
8.780956
10.547638
9.988546
9.342432
10.023713
##ZVALUE=235
13.182759
15.938878
33.940673
72.968602
119.072795
179.733634
234.892964
293.574929
308.520794
308.641791
263.904929
219.230652
150.757432
109.591484
81.406832
70.838928
70.300698
76.094866
80.314875
83.772540
78.808665
67.975521
52.555799
35.677552
24.246573
14.513731
12.424588
9.089708
9.576678
9.216666
10.772943
10.481477
10.631680
10.614991
11.970997
11.768937
12.752414
12.566447
12.719631
12.820959
12.643933
12.539625
11.714697
12.575984
11.531711
11.733770
11.262894
12.054443
11.275411
10.691881
10.507703
10.906458
11.026859
10.228753
10.223985
11.265874
10.302663
10.954738
10.818839
11.548996
11.613965
11.294484
12.242794
12.275577
11.260509
12.475848
11.266470
12.640953
11.664629
14.713407
15.899539
16.857982
17.572641
19.332767
20.201802
20.141602
21.563768
20.317435
21.317601
20.596981
20.687580
20.103455
16.665459
17.622709
16.636848
15.059710
16.826987
14.573932
15.697479
14.800429
13.923645
13.800859
14.145970
14.275908
12.692809
14.333725
##ZVALUE=240
1.694560
1.665950
5.124807
13.319850
35.369992
66.607594
134.828687
199.198723
306.958556
373.824835
433.255434
431.967974
401.375890
329.951644
259.710550
172.680616
125.163794
95.587969
90.800524
102.942586
107.869506
112.985969
110.250711
103.242993
83.897710
64.826608
45.372844
31.822920
22.288561
16.059875
12.491941
12.245774
11.805892
11.093616
11.641979
10.996461
12.003779
12.076497
10.754466
12.038946
11.399984
11.409521
11.692643
12.872815
12.416840
10.836720
11.809468
10.903478
11.499524
13.386607
11.785626
10.920763
11.022687
11.441708
11.104941
10.316968
11.294484
10.871887
10.703802
10.048747
11.393428
10.849833
12.048483
12.287498
12.805462
12.724996
13.093948
13.410449
14.246702
15.600920
16.795993
15.671849
16.721487
18.495917
18.738508
20.028949
20.539761
19.751787
20.712614
19.301772
19.935966
19.711852
20.136833
17.861724
18.800497
18.522739
18.828511
16.963482
18.020868
17.759800
17.800927
17.204881
16.938448
16.797781
16.369820
16.828775
##ZVALUE=245
1.437664
1.181960
1.441836
1.409650
3.427863
9.604692
31.039715
62.408447
136.052966
216.393471
343.693495
428.196788
491.975546
527.924895
516.767502
440.336466
349.892974
245.255828
174.100995
116.507411
95.946789
96.377730
115.160942
125.141740
131.717920
123.308897
111.803412
98.267794
74.776411
57.647824
41.728616
27.035475
22.152662
15.869737
14.044642
14.380813
13.516545
14.190674
12.739897
13.634562
13.025999
12.769699
13.013482
13.399720
13.370514
12.606978
12.217760
12.410879
11.921525
11.425614
11.657476
11.803508
11.555552
11.122823
9.427667
10.541677
9.611845
9.960532
9.999871
10.154843
9.887815
10.968447
11.518598
10.929704
11.103749
11.703968
12.295842
12.128949
13.291836
13.028979
13.868809
15.819669
16.106963
17.343760
19.721985
18.401742
19.361973
18.432736
17.995834
17.026663
18.361807
19.259453
18.071532
17.172694
18.884540
18.794537
17.954707
18.382668
16.875863
16.499758
16.332865
17.869473
17.494559
17.250776
16.814470
16.504526
##ZVALUE=250
1.412630
1.166463
1.263618
1.168847
1.781583
1.489520
2.237558
5.814433
23.594499
49.910545
128.137469
210.042596
309.030414
455.643535
545.036793
627.223849
623.699427
568.510890
478.349924
338.667631
233.531594
158.067942
102.661848
93.144774
104.590654
121.439695
136.502981
143.388510
137.049556
126.080513
112.750530
84.334612
66.642761
44.597983
32.771826
22.976995
18.495917
17.272830
15.762448
16.917586
16.208887
15.810728
14.921427
15.823841
14.964938
13.950467
14.585853
13.532639
13.508797
12.724996
11.439919
12.043715
11.616945
10.674000
10.677576
10.418892
10.144711
10.736585
9.874701
9.105802
9.826422
9.570718
10.001659
9.569526
9.461641
9.933710
10.430813
10.997653
12.382865
12.606978
12.843609
13.802648
14.240742
15.087724
17.289519
17.014742
16.513467
17.105937
15.903711
16.670823
16.962886
17.274618
17.836690
17.153621
17.032623
17.123818
15.863776
17.286539
17.447472
16.929507
15.575886
16.033649
16.136765
17.128587
16.086698
16.238689
##ZVALUE=255
1.059771
0.769496
1.136661
0.790954
1.324415
0.789762
1.180768
1.219511
1.788735
3.579855
16.485453
41.002631
84.096789
180.808902
283.641815
446.326733
562.435985
682.238936
724.000931
685.673952
603.977442
478.073955
306.881666
201.632977
114.989877
90.419650
90.986490
104.585886
128.297806
146.558881
153.251886
149.814487
140.150785
112.832785
95.648766
64.496994
47.416687
32.935739
25.030971
20.344853
18.894672
18.817782
16.230941
16.870499
16.019940
16.308427
16.351938
15.615821
14.302731
13.111830
12.892485
12.614727
12.651682
10.947585
10.266900
10.517836
9.743571
10.137558
8.920431
9.158850
9.675622
9.767413
8.773804
8.931756
8.666515
8.589625
9.569526
9.202957
9.938478
11.477470
11.104941
11.982918
12.294650
13.115406
14.203787
13.896823
14.583468
15.074611
14.370680
14.663935
14.269948
14.014840
14.682412
15.061498
14.695525
14.569759
15.316606
15.837550
16.325712
14.447570
15.652776
14.987588
16.175508
14.864802
15.341640
15.746951
##ZVALUE=260
0.877976
0.896454
1.069903
1.336932
1.129508
1.166463
1.221895
1.337528
1.291633
1.305938
1.444817
2.165437
8.593798
23.243427
65.657496
128.161907
264.748931
393.579006
523.951650
707.000494
811.506510
826.807022
754.591823
582.731962
428.888798
252.844691
166.875720
99.266768
81.470609
90.552568
109.341741
137.109756
153.646469
163.320899
161.844492
144.905448
124.787688
95.679760
71.464777
52.736998
37.781000
27.748942
23.137927
19.389987
19.068718
17.512441
17.239451
16.006827
15.640855
15.304685
13.943911
13.504624
12.117624
12.278557
11.848807
10.748506
10.581613
9.040833
9.387732
9.142756
8.795857
8.548498
8.838773
8.828640
8.773804
8.769631
8.934736
9.073615
9.344816
9.630919
10.443926
10.628700
11.518598
13.282895
12.367964
12.961626
13.348460
13.958812
14.054775
14.079809
13.620853
14.061928
14.416575
13.565421
14.632940
13.640523
14.214516
13.972521
14.330745
12.892485
13.775826
14.647841
14.149547
14.109612
13.878942
14.902949
##ZVALUE=265
1.021624
0.996590
0.854731
0.907779
1.018643
1.060963
1.429915
1.383424
1.176596
1.377463
1.293421
1.539588
1.597404
2.074838
4.428625
25.978684
61.988831
148.850679
250.923634
453.444719
611.686707
751.453638
888.103843
921.739936
823.504925
704.577565
520.619750
369.494557
210.534930
131.273866
86.199641
79.159737
90.909004
122.833848
142.062902
162.896514
167.201757
161.423683
145.149827
121.095777
97.786784
70.612431
52.672625
36.697984
27.348995
22.129416
18.591881
17.064810
16.000867
15.301704
14.513731
13.953447
13.154745
12.751818
11.907816
11.483431
10.958910
9.645820
9.888411
9.895563
9.641647
9.145737
9.012818
8.843541
9.122491
8.747578
9.200573
8.707643
8.919835
9.710789
10.189414
10.977983
10.820627
11.345744
12.379885
12.406707
13.012886
13.014674
12.291670
12.094975
12.896657
13.027787
12.750626
12.650490
12.932420
12.438893
12.530684
12.948513
13.725758
13.234615
13.250709
12.908578
13.481975
13.059974
13.253689
13.154745
##ZVALUE=270
0.843406
1.053810
0.774860
0.948906
0.846982
0.977516
1.016855
1.080632
1.192689
1.055598
1.052618
1.298785
1.062751
1.111627
1.444817
1.742840
1.981854
9.639859
34.275651
116.992593
219.896436
355.930924
602.329969
774.210691
938.887000
980.966687
927.780867
823.069811
624.476671
474.459529
293.007493
184.565783
101.230741
74.989796
79.016685
96.221566
124.375820
143.988729
163.590908
168.476701
160.675645
147.813559
121.847987
96.727610
67.900419
49.377680
32.607913
26.348829
18.765926
16.095638
14.638901
13.643503
12.699962
11.640787
12.119412
11.633635
10.807514
11.032820
10.245442
9.997487
9.232759
8.699894
9.970665
9.391904
9.075999
9.170771
9.511709
9.380579
10.521412
9.916425
10.380745
10.669827
11.461973
11.391640
11.778474
11.650920
11.865497
12.283921
11.582971
12.144446
11.985898
11.931658
12.161732
12.375712
12.636781
12.455583
12.135506
12.239814
11.608601
12.292862
12.346506
12.026429
12.663603
12.333989
12.441874
12.778640
##ZVALUE=275
0.841618
0.856519
0.932813
0.847578
0.822544
0.722408
0.792742
0.973940
0.770688
0.996590
0.847578
1.173615
1.176596
1.219511
1.152754
1.430511
1.173615
1.624823
1.721978
4.205704
15.995502
49.378872
148.169994
270.688534
485.911965
647.317767
825.430751
920.338035
949.598551
884.773731
771.569610
567.284822
407.229662
222.089887
134.216547
72.152615
57.843924
68.974495
87.759495
117.139816
135.824680
154.320002
159.415603
154.890418
138.329864
112.555623
90.762973
64.755678
47.218800
29.722452
21.109581
14.795661
13.287663
11.027455
11.006594
10.293722
10.146499
9.956956
9.963512
10.065436
9.637475
9.789467
9.715557
9.327531
9.015799
9.102821
9.620786
9.531975
9.669662
9.602904
10.179877
10.990500
10.999441
10.927916
11.263490
11.047721
11.338592
11.087656
11.337996
11.465549
11.915565
11.180639
11.651516
11.440516
11.792779
11.813641
11.113882
11.556745
11.803508
11.302829
11.436939
11.293888
11.946559
11.857748
11.775494
11.113882
##ZVALUE=280
0.730753
0.635982
0.631809
0.801682
0.868440
0.794530
0.612736
0.814795
0.858903
1.037717
0.805855
0.815988
0.854731
0.885725
0.866652
1.068711
1.050830
1.221895
1.167655
1.342893
1.711845
1.905560
8.859634
30.574799
98.865628
181.391835
333.867669
479.130745
672.997832
794.090629
866.044760
864.782929
785.967708
606.510639
452.729464
261.656642
159.808397
76.241493
48.392415
45.231581
57.933927
82.796812
105.712414
131.118894
144.288540
151.273608
144.163966
128.124952
108.564496
80.059767
60.071945
39.355755
27.415752
16.843677
12.884736
10.262728
9.148717
9.151697
9.356737
9.555817
9.231567
9.605885
9.608865
9.746552
9.917617
9.597540
9.503961
9.594560
10.188818
10.906458
10.577440
10.756850
11.506677
11.596680
11.230707
11.379719
11.299849
11.609793
11.598468
11.541843
11.707544
11.487603
11.313558
11.017919
11.532903
11.820793
11.391640
11.105537
11.600852
11.428595
11.421442
11.379719
10.947585
11.212826
11.383891
11.641979
##ZVALUE=285
0.668764
0.678897
0.748634
0.639558
0.674725
0.673532
0.680685
0.585914
0.841618
0.807643
0.740886
0.788569
0.721812
0.684857
0.915527
0.853539
0.940561
1.045465
1.032948
1.154542
1.202822
1.135468
1.396537
1.525879
4.362464
15.229583
53.107738
110.991001
240.671635
380.623937
535.410643
740.617514
853.043795
903.797746
854.323506
698.964596
543.504953
343.681574
215.477943
102.588534
55.288672
31.837821
34.585595
53.420663
72.391629
101.398826
120.689869
136.262774
142.681003
139.946938
128.978491
106.971860
86.361766
58.165789
42.026639
25.614500
17.665625
12.217760
10.823607
9.154677
9.725690
9.587407
9.810925
10.133982
10.469556
10.703802
10.826588
10.545850
10.980964
11.229515
11.535883
11.667609
11.213422
11.876822
12.538433
11.981726
11.869669
12.157559
11.934638
12.435913
12.104511
11.605620
11.627674
11.584759
11.907816
11.681914
11.886954
11.441708
11.289716
11.056662
11.063814
10.903478
11.031628
11.173487
10.997653
10.932684
##ZVALUE=290
0.762939
0.692606
0.625849
0.764728
0.807643
0.810623
0.613928
0.744462
0.677705
0.657439
0.864863
0.808835
0.741482
1.032948
0.873804
0.883937
1.070499
0.823736
1.052618
0.979900
0.935793
1.136661
1.201630
1.230836
1.342893
1.536608
2.188683
6.259680
29.143691
67.705512
161.959529
283.024907
440.794826
671.625733
807.632804
913.592577
908.687711
781.417489
642.448664
429.151654
284.581780
144.846439
75.630546
32.286644
24.376512
32.936931
46.840906
69.529414
89.378953
114.304423
130.753517
139.799714
135.683417
122.767687
106.351972
78.789592
59.671998
39.675832
28.402805
18.398762
14.411807
11.640787
11.012554
10.991693
10.505915
11.379719
11.212826
11.509657
11.711717
11.918545
12.381673
12.482405
13.089776
12.960434
13.330579
12.824535
12.952685
12.240410
12.686849
12.759566
12.465715
12.489557
12.203455
12.317896
11.830926
11.857748
12.100935
11.933446
11.689663
11.321902
11.354685
11.075735
11.453629
11.165738
11.141896
11.164546
##ZVALUE=295
0.623465
0.475645
0.572801
0.538826
0.511408
0.592470
0.615716
0.616908
0.512600
0.485778
0.559688
0.625849
0.648499
0.633597
0.693798
0.522733
0.810623
0.861883
0.686646
0.786781
0.955462
1.033545
0.996590
1.042485
1.055598
1.278520
1.289845
1.158714
1.554489
3.066659
10.591745
45.879483
97.393990
222.909451
355.936885
562.440753
708.898902
850.207806
892.027020
823.774934
713.582635
512.669683
358.574986
192.011595
108.099580
43.005943
23.075938
20.822883
28.756857
44.728518
62.423944
88.788867
107.602477
124.071836
133.406520
130.846500
119.127631
98.647475
81.756711
58.789849
42.592883
26.938915
19.837618
14.765859
12.721419
11.806488
11.625886
11.412501
11.909604
11.817813
12.428761
12.787580
12.917519
13.323426
12.718439
13.348460
13.064742
13.404489
13.021827
12.471676
12.961626
12.803674
12.767911
12.416840
12.069941
12.361407
12.087822
11.771917
11.994839
11.313558
11.460781
11.126995
11.580586
10.867715
10.662675
10.940433
##ZVALUE=300
0.522733
0.598431
0.463724
0.502467
0.654459
0.638962
0.514984
0.558496
0.519753
0.738502
0.551939
0.598431
0.451803
0.635982
0.558496
0.545979
0.612736
0.423789
0.702739
0.866652
0.721812
0.951886
0.870824
0.889897
0.896454
1.141429
0.887513
1.109838
1.138449
1.257658
1.072884
1.244545
5.526543
19.382834
68.822503
134.772658
280.390978
429.106951
636.852980
767.811537
873.175859
869.836807
763.448477
631.371737
422.473550
278.334022
140.493512
76.133609
29.107928
17.305613
18.278956
24.957657
40.569901
57.211518
80.996752
99.810958
119.595528
125.596523
126.530528
118.251443
100.370646
80.993772
57.571530
43.840408
28.878450
21.367669
15.997887
12.742877
11.690855
11.999607
12.141466
12.178421
12.530684
12.924671
12.966990
12.650490
13.056993
12.740493
13.070703
12.720823
12.997985
12.667775
12.498498
12.624860
12.493730
12.497902
12.105703
12.306571
11.701584
11.811852
11.332631
11.352897
11.459589
11.234879
10.503531
10.929704
##ZVALUE=305
0.447631
0.668764
0.424981
0.624657
0.416636
0.468493
0.334978
0.582933
0.581741
0.466704
0.424981
0.617504
0.488758
0.512600
0.493526
0.538826
0.711679
0.649691
0.585914
0.634789
0.874996
0.715852
0.678897
0.812411
0.727773
0.943542
0.985861
0.954866
0.983477
0.956655
0.980496
1.286864
1.217723
1.398921
2.308488
13.446808
38.501620
109.489560
199.427605
374.487638
524.664521
719.938874
825.482011
866.553783
817.116499
653.837919
513.601899
328.570008
206.840634
94.458461
47.367811
18.959641
13.723969
17.251968
24.622679
40.452480
56.355596
78.367591
94.901919
112.973452
119.754672
118.200779
110.575557
93.621612
77.898502
55.128932
41.167736
27.446747
20.480752
14.703870
13.302565
12.335777
12.081861
11.583567
12.070537
11.852980
12.466908
12.272596
12.495518
12.488961
12.407899
12.753606
12.505651
12.528896
12.164712
12.379885
12.363791
12.015700
11.895895
11.712909
11.382699
11.462569
11.081696
10.955930
10.979772
10.639429
##ZVALUE=310
0.452995
0.384450
0.480413
0.370741
0.625849
0.422597
0.553727
0.362992
0.483990
0.609756
0.685453
0.510812
0.587702
0.522733
0.536442
0.593662
0.510812
0.526905
0.506639
0.600815
0.629425
0.604987
0.754595
0.651479
0.763535
0.873804
0.718832
0.737906
0.896454
0.777841
0.796914
1.201630
1.022816
0.991821
1.126528
1.228452
1.668930
5.886555
19.710660
65.076947
130.878687
275.619626
421.293974
619.293451
754.420757
855.372548
853.086710
747.725964
624.182820
419.583917
281.898975
141.151547
76.296926
28.266907
14.507771
11.860728
14.792681
23.316741
33.464432
51.203966
67.223907
88.913441
103.655457
112.683773
114.672780
105.598569
93.403459
75.194836
58.973432
38.952827
28.848648
20.338893
15.725493
13.045669
12.470484
11.886954
11.458993
11.580586
11.742711
11.954904
12.112856
12.265444
11.959672
12.023449
12.048483
12.106895
11.648536
11.863708
11.720657
11.717677
11.472702
11.289716
10.714531
10.701418
10.880828
11.104941
##ZVALUE=315
0.421405
0.460744
0.326633
0.500679
0.416636
0.517964
0.468493
0.465512
0.616908
0.617504
0.372529
0.346899
0.479817
0.541806
0.417829
0.381470
0.545979
0.660419
0.645518
0.534654
0.558496
0.597835
0.510812
0.627637
0.590682
0.561476
0.549555
0.725985
0.576973
0.802875
0.798702
0.922680
0.845790
0.978708
1.105666
1.035929
0.979900
1.216531
1.423955
2.876520
9.877682
42.050481
92.960000
209.058523
340.713859
551.581979
685.485005
814.823508
849.030614
791.973472
683.455467
493.014455
349.507928
188.151002
103.761554
40.299892
18.553734
10.200739
10.678768
14.626980
20.301938
32.257438
44.885874
65.570474
80.225468
97.103715
107.042789
106.963515
101.434588
86.050630
71.517825
53.634644
40.393472
26.976466
19.667745
14.743805
12.406707
11.827946
11.650920
11.760592
11.519790
11.803508
11.668801
11.655688
11.812449
11.796951
11.352897
11.832714
11.504889
11.368990
11.339784
10.927916
11.026859
11.104941
11.025667
10.801554
##ZVALUE=320
0.325441
0.283718
0.221729
0.162721
0.221729
0.350475
0.276566
0.203848
0.386834
0.225902
0.215769
0.396967
0.337958
0.270605
0.324845
0.182986
0.340939
0.388622
0.349879
0.402927
0.348687
0.363588
0.413656
0.478625
0.540614
0.485778
0.521541
0.433922
0.590682
0.596642
0.552535
0.430942
0.326633
0.466704
0.731945
0.666976
0.723600
0.922680
1.028776
0.992417
1.082420
1.382828
4.494786
23.027658
58.950782
155.075788
258.383751
434.055924
581.328869
750.972033
828.030705
822.284818
748.392940
574.700832
422.382951
239.071846
136.950612
60.347915
28.737783
10.779500
8.537769
9.734631
12.372732
18.770695
27.098656
42.645931
57.836771
75.658560
89.221001
99.382997
101.139545
94.607472
84.846616
67.216754
52.879453
36.472678
26.955605
18.781424
14.951825
12.183785
11.614561
10.890961
11.258721
10.942817
10.901690
10.863543
11.045933
10.966659
10.795593
10.836720
10.898709
10.638833
10.704994
11.193752
10.710955
10.493994
##ZVALUE=325
0.478625
0.360608
0.424981
0.390410
0.442863
0.484586
0.475645
0.421405
0.441670
0.396967
0.376701
0.367761
0.481606
0.533462
0.387430
0.501871
0.323653
0.355840
0.415444
0.475645
0.511408
0.611544
0.501871
0.413656
0.537634
0.548959
0.506639
0.624657
0.467896
0.653863
0.539422
0.627637
0.675917
0.692606
0.667572
0.674725
0.835657
0.860691
0.890493
0.930429
1.047850
1.047850
1.316667
1.331568
2.994537
11.345744
43.559670
93.267560
208.524466
334.744453
534.656644
667.759776
794.689655
822.287798
756.977797
642.876029
444.234610
307.927728
166.327953
91.663599
35.498738
16.152859
8.554459
8.291602
9.243488
11.499524
18.076897
26.272535
42.272806
56.458712
74.476600
85.557699
95.073581
95.103979
88.969469
79.113841
63.032508
49.947500
34.054518
25.143623
17.522573
14.601946
12.592673
11.584759
11.207461
11.088848
10.952950
10.925531
10.901690
11.121631
10.650754
10.857582
11.100769
10.991693
10.467768
10.867715
##ZVALUE=330
0.334978
0.431538
0.447631
0.370741
0.365973
0.394583
0.445843
0.424981
0.216961
0.234842
0.469685
0.348687
0.391603
0.409484
0.387430
0.454783
0.408888
0.493526
0.423789
0.385642
0.554919
0.360608
0.542998
0.435710
0.462532
0.607967
0.537634
0.617504
0.566840
0.601411
0.705719
0.682473
0.519753
0.602603
0.689626
0.748634
0.798702
0.758767
0.660419
0.698566
0.814795
0.890493
1.068711
0.955462
0.907779
1.269579
1.602769
6.568432
20.615458
70.550442
135.033727
275.449753
408.782959
596.642494
717.499852
802.046657
781.103969
670.030713
541.300774
351.493955
227.262974
108.618736
55.635571
20.727515
10.847449
7.519722
7.847548
9.008646
11.547804
18.024445
25.298595
38.337708
50.815940
69.725513
80.575943
88.803768
89.892745
83.649755
75.080991
59.472919
46.722889
33.205748
25.308728
17.783642
14.798641
12.212992
11.728406
10.915995
10.824800
10.686517
10.374784
10.226965
10.334849
9.916425
10.194778
10.352731
##ZVALUE=335
0.262856
0.400543
0.222921
0.306964
0.336766
0.385642
0.257492
0.266433
0.291467
0.423789
0.422597
0.436902
0.432730
0.438690
0.452995
0.358820
0.496507
0.285506
0.487566
0.350475
0.440478
0.415444
0.390410
0.486970
0.293851
0.606775
0.312924
0.375509
0.598431
0.526905
0.423789
0.595450
0.424981
0.446439
0.654459
0.756979
0.618696
0.625849
0.675917
0.550747
0.814795
0.777841
0.893474
0.910759
0.903606
1.024604
0.976920
0.985861
1.340508
3.070831
10.342598
43.776631
91.969967
205.203891
331.129432
520.665646
650.870800
762.661695
777.967572
706.288815
592.494011
409.963727
281.496644
146.610737
79.463720
30.717850
13.904572
8.067489
7.611513
7.955432
8.971691
11.945963
15.913844
26.167631
35.788417
51.667690
64.119697
76.620579
82.721710
84.356666
80.273747
68.242550
57.715774
43.708682
35.016537
24.515986
19.389987
14.322996
12.785792
11.359453
10.359883
10.061860
10.051727
10.258555
9.807944
10.233521
##ZVALUE=340
0.313520
0.377893
0.390410
0.382662
0.321865
0.416636
0.362992
0.368953
0.509620
0.384450
0.567436
0.455976
0.297427
0.432730
0.247955
0.333786
0.336766
0.441670
0.558496
0.478625
0.418425
0.383854
0.508428
0.302792
0.380874
0.392795
0.437498
0.469685
0.408888
0.515580
0.572801
0.664592
0.529885
0.610948
0.527501
0.498891
0.543594
0.690818
0.552535
0.624657
0.397563
0.684857
0.704527
0.737906
0.811815
0.698566
0.851750
0.779629
0.927448
1.093745
1.304746
1.881719
4.978776
25.349855
63.978434
159.305930
267.441869
438.932776
573.026538
712.862611
763.391852
726.006627
635.851622
475.283861
335.801840
179.384947
100.408792
41.215420
18.377900
8.452535
7.788539
7.803440
7.877946
9.309649
11.412501
17.252564
24.181604
35.855770
47.497749
62.176585
71.578622
78.878999
79.682469
74.307919
66.976547
54.844618
45.460463
32.345653
25.346875
18.604994
14.835000
11.888742
10.830760
10.057688
9.924769
9.783506
##ZVALUE=345
0.306964
0.382662
0.240803
0.344515
0.223517
0.406504
0.329614
0.353456
0.330806
0.301600
0.384450
0.259876
0.362992
0.372529
0.446439
0.440478
0.351667
0.388622
0.356436
0.394583
0.392795
0.338554
0.376701
0.300407
0.437498
0.434518
0.518560
0.543594
0.557899
0.536442
0.339746
0.579953
0.419617
0.627637
0.579953
0.544786
0.568628
0.654459
0.601411
0.713468
0.658631
0.503659
0.646710
0.582933
0.605583
0.719428
0.909567
0.813603
0.958443
0.925660
1.012683
0.789762
1.063943
1.159906
2.401471
14.278889
39.429665
105.190873
189.929008
345.593691
480.774641
642.586946
719.957948
739.759803
681.167841
533.937812
399.763584
239.725709
138.032436
55.092573
25.942922
10.738969
7.835627
7.445812
7.320642
8.061528
8.776784
11.204481
15.049577
23.360848
32.045841
46.178699
55.426955
66.265464
70.835948
74.372888
71.686506
63.044429
54.428577
43.046474
33.754706
23.411512
17.955899
13.483763
11.626482
10.111928
##ZVALUE=350
0.378489
0.440478
0.378489
0.240803
0.539422
0.555515
0.452995
0.338554
0.301600
0.420809
0.513792
0.410676
0.323653
0.521541
0.497699
0.434518
0.369549
0.553727
0.587702
0.515580
0.575781
0.501871
0.469685
0.474453
0.441670
0.407696
0.417829
0.461936
0.440478
0.436902
0.332594
0.468493
0.508428
0.506639
0.569820
0.663996
0.626445
0.477433
0.645518
0.602603
0.709891
0.588894
0.513792
0.744462
0.690818
0.788569
0.622869
0.756979
0.641942
0.789762
0.832677
0.864863
0.855923
1.003742
1.039505
1.270771
1.649857
6.909966
21.989942
70.693493
135.061741
270.684958
394.949913
562.002659
665.751696
734.224916
708.727837
605.244637
477.890968
295.317769
184.520483
85.289478
40.064454
13.109446
8.356571
7.326603
7.105470
7.250905
7.278919
8.331537
10.276437
15.210509
20.225644
29.067993
36.995411
49.643517
57.596564
65.332651
67.732930
65.892935
60.444474
50.272942
42.405725
31.344891
24.179816
18.029809
##ZVALUE=355
0.313520
0.429749
0.339746
0.383854
0.494719
0.394583
0.281930
0.425577
0.253916
0.491738
0.437498
0.378489
0.466704
0.464916
0.489950
0.321865
0.389814
0.560880
0.421405
0.458956
0.340939
0.502467
0.698566
0.437498
0.520945
0.486970
0.474453
0.514984
0.493526
0.474453
0.575781
0.473857
0.300407
0.511408
0.491738
0.622869
0.615716
0.575781
0.546575
0.371933
0.540614
0.636578
0.466704
0.516772
0.467896
0.616908
0.522733
0.550747
0.657439
0.694990
0.759959
0.755787
0.835657
0.801682
0.686646
1.006722
1.148582
1.065731
1.228452
3.392696
11.877418
46.280622
94.691515
201.480985
317.701697
490.708947
603.260994
691.506863
699.456930
620.710850
518.245697
361.227989
242.257714
114.947557
57.728887
18.903613
9.580851
6.917715
6.722808
6.820560
6.858706
7.204413
8.079410
9.516478
12.024641
18.034577
24.527907
34.368634
42.260885
51.695704
57.599545
61.105490
60.004592
54.188967
47.671795
38.249493
##ZVALUE=360
0.241995
0.153780
0.418425
0.359416
0.426769
0.433922
0.432730
0.218749
0.427961
0.442863
0.548959
0.430942
0.249743
0.345707
0.301600
0.414848
0.349879
0.453591
0.344515
0.370741
0.401735
0.601411
0.517964
0.405908
0.494719
0.393987
0.397563
0.352859
0.504851
0.556707
0.458956
0.527501
0.505447
0.427961
0.521541
0.398755
0.587702
0.404716
0.546575
0.544786
0.430942
0.491738
0.585914
0.596642
0.606775
0.715852
0.676513
0.640750
0.796914
0.596642
0.752807
0.879765
0.572801
0.837445
0.736713
0.934601
0.775456
0.969768
0.868440
1.115799
1.242757
1.712441
5.285740
24.012923
58.146715
144.592524
241.047740
393.679738
520.940423
646.301508
677.728653
637.581944
548.505783
386.696458
265.820622
138.871670
76.647997
30.293465
13.354421
6.843805
6.466508
6.384850
6.217957
6.407499
6.428957
6.986856
7.866621
10.659695
14.056563
20.166636
27.055740
37.263632
44.398904
51.498413
55.116415
54.699779
##ZVALUE=365
0.204444
0.325441
0.320673
0.203848
0.405908
0.329614
0.411868
0.329614
0.292659
0.370741
0.365973
0.219941
0.320673
0.489950
0.488758
0.316501
0.383854
0.522733
0.347495
0.503659
0.454783
0.624657
0.253916
0.440478
0.339746
0.365973
0.405908
0.532866
0.515580
0.377893
0.500679
0.239611
0.382662
0.624657
0.320673
0.392795
0.284910
0.286698
0.435710
0.621676
0.466704
0.612736
0.566840
0.601411
0.548959
0.529885
0.530481
0.507832
0.606775
0.446439
0.488758
0.511408
0.625849
0.751615
0.611544
0.718832
0.581741
0.842810
0.868440
0.887513
0.868440
0.920892
0.992417
1.366735
2.426505
13.076663
35.783648
94.918609
176.253915
328.312516
448.806882
579.803586
643.782020
638.976693
568.441749
419.934988
300.954580
169.540644
94.013810
35.843849
15.832782
7.017851
6.019473
5.940795
5.743504
5.939603
5.856752
5.659461
6.201863
7.046461
8.643866
12.627840
16.964674
24.881959
31.109452
39.534569
##ZVALUE=370
0.309944
0.323653
0.357628
0.390410
0.376701
0.386834
0.303984
0.242591
0.119805
0.335574
0.406504
0.263453
0.446439
0.385642
0.204444
0.356436
0.310540
0.306964
0.289679
0.340939
0.343919
0.479817
0.355840
0.373721
0.357628
0.259876
0.409484
0.572801
0.284910
0.229478
0.442863
0.450611
0.400543
0.381470
0.554919
0.446439
0.394583
0.503659
0.341535
0.391603
0.442863
0.513792
0.345707
0.417829
0.530481
0.506639
0.477433
0.418425
0.530481
0.488758
0.588894
0.592470
0.591874
0.626445
0.546575
0.668764
0.664592
0.492930
0.552535
0.672936
0.661612
0.885725
0.758767
0.891685
1.086593
1.118779
1.603961
6.461740
22.322536
71.972609
134.715438
257.803798
378.924012
534.488559
614.656806
638.926625
589.036942
470.273495
352.686644
198.667645
114.354491
45.760870
22.281408
9.332895
5.996823
5.241632
5.166531
5.343556
5.400777
5.027652
5.309582
5.615950
6.220937
8.028746
10.429621
15.606880
##ZVALUE=375
0.293851
0.270605
0.300407
0.439882
0.314713
0.217557
0.181794
0.345707
0.373721
0.393987
0.325441
0.281930
0.387430
0.362992
0.524521
0.436902
0.413656
0.259876
0.144839
0.295639
0.235438
0.357628
0.267625
0.290871
0.324845
0.311732
0.417829
0.311732
0.306964
0.426769
0.473857
0.468493
0.407696
0.389814
0.470877
0.402927
0.346899
0.355840
0.324845
0.381470
0.281930
0.463724
0.477433
0.388622
0.428557
0.525713
0.432730
0.313520
0.540614
0.529885
0.508428
0.504851
0.588894
0.502467
0.578761
0.374913
0.467896
0.524521
0.673532
0.500679
0.559688
0.725985
0.701547
0.837445
0.734925
0.744462
0.832677
0.945926
1.277924
3.412962
11.863708
41.831732
91.948509
204.695463
318.757892
478.096604
573.700666
635.444522
618.716478
516.384840
406.048894
249.060988
158.991814
80.033541
40.446520
14.199615
7.192492
5.251765
4.944801
4.948974
4.811883
4.693866
4.845858
4.763603
4.878640
5.507469
##ZVALUE=380
0.271797
0.337958
0.107884
0.257492
0.073910
0.302792
0.310540
0.262856
0.280738
0.331998
0.317693
0.325441
0.206828
0.297427
0.245571
0.374913
0.330806
0.331998
0.273585
0.232458
0.255704
0.187755
0.343919
0.301600
0.381470
0.275970
0.316501
0.353456
0.212789
0.322461
0.434518
0.314713
0.399947
0.419617
0.324845
0.451803
0.498891
0.626445
0.548959
0.380874
0.373721
0.259876
0.279546
0.333786
0.411868
0.474453
0.484586
0.171661
0.249743
0.247955
0.533462
0.191927
0.449419
0.340939
0.548959
0.308752
0.460744
0.398755
0.509620
0.554919
0.563860
0.534654
0.627637
0.724792
0.724792
0.619888
0.666976
0.638962
0.856519
1.059771
1.088977
1.871586
6.046891
29.409528
68.097711
160.740614
260.925889
410.178900
522.800684
618.672967
626.759529
548.392534
454.220772
319.725871
216.821432
108.294487
56.586862
20.723939
9.334683
5.175471
4.557967
4.636645
4.534721
4.500747
4.095435
4.502535
##ZVALUE=385
0.261664
0.111461
0.198483
0.155568
0.132918
0.286698
0.135899
0.228882
0.259876
0.283718
0.233650
0.069737
0.314713
0.363588
0.401735
0.294447
0.133514
0.057817
0.138879
0.309944
0.324845
0.252724
0.313520
0.247955
0.380874
0.284910
0.436902
0.262856
0.315905
0.400543
0.260472
0.360608
0.269413
0.433922
0.337958
0.256896
0.239611
0.091791
0.317693
0.225902
0.219941
0.394583
0.398755
0.280738
0.151992
0.387430
0.273585
0.182986
0.247955
0.371933
0.322461
0.328422
0.232458
0.440478
0.248551
0.322461
0.414848
0.290871
0.357628
0.317693
0.312924
0.345707
0.442863
0.536442
0.475645
0.518560
0.588894
0.542998
0.544786
0.829697
0.765920
0.854731
0.910759
1.071692
2.966523
16.460419
42.906404
109.439492
193.532705
346.192718
463.548899
581.937432
618.506670
591.170788
521.074533
386.529565
275.942683
151.761770
86.789727
36.807656
15.692711
5.696416
4.425645
4.189610
4.059672
4.071593
##ZVALUE=390
0.341535
0.253916
0.336766
0.200868
0.005960
0.240803
0.202656
0.339746
0.359416
0.186563
0.209808
0.155568
0.486970
0.267625
0.232458
0.137687
0.388622
0.360608
0.251532
0.351667
0.255704
0.249743
0.171661
0.213981
0.230670
0.167489
0.444651
0.332594
0.339746
0.392795
0.325441
0.301600
0.357628
0.266433
0.334978
0.340939
0.321865
0.357628
0.358820
0.264645
0.280738
0.485778
0.246763
0.516772
0.437498
0.410676
0.268817
0.369549
0.417829
0.349879
0.459552
0.463724
0.244975
0.258684
0.454783
0.400543
0.407696
0.498891
0.442863
0.425577
0.365973
0.466704
0.560880
0.539422
0.518560
0.528693
0.429749
0.661612
0.595450
0.801682
0.843406
0.932813
0.933409
1.013875
0.950694
1.158714
1.664758
8.218884
26.246905
82.324743
154.820681
291.848779
401.055813
524.937510
594.403744
615.842938
571.889877
451.114774
345.263481
211.571455
124.439001
52.501559
24.277568
7.965565
4.697442
4.000664
##ZVALUE=395
0.252724
0.304580
0.364780
0.186563
0.263453
0.205636
0.217557
0.196695
0.169873
0.280738
0.319481
0.198483
0.205636
0.311732
0.255704
0.277758
0.234842
0.389814
0.367761
0.331998
0.386834
0.377893
0.291467
0.302792
0.370741
0.434518
0.228882
0.234842
0.291467
0.271797
0.274777
0.319481
0.218749
0.350475
0.361800
0.282526
0.402927
0.325441
0.371933
0.369549
0.314713
0.425577
0.389814
0.286698
0.477433
0.356436
0.471473
0.305772
0.542998
0.332594
0.301600
0.574589
0.377893
0.443459
0.428557
0.414848
0.277758
0.363588
0.491738
0.446439
0.233650
0.352859
0.425577
0.415444
0.372529
0.597835
0.548959
0.600815
0.635982
0.599623
0.712872
0.672936
0.681877
0.749826
0.756979
0.775456
0.831485
1.001954
1.172423
4.685521
16.461611
57.228804
112.681985
226.107836
333.721638
480.398536
570.951700
630.818009
612.834692
523.859859
411.385894
257.131457
164.132714
77.977777
38.039684
13.198853
##ZVALUE=400
0.291467
0.280738
0.220537
0.137687
0.237823
0.221729
0.104904
0.298619
0.264645
0.098944
0.141859
0.275970
0.201464
0.132918
0.275970
0.183582
0.333786
0.228882
0.403523
0.264645
0.268817
0.300407
0.236630
0.251532
0.299811
0.363588
0.345707
0.308752
0.169873
0.281930
0.416636
0.459552
0.439882
0.467896
0.402927
0.211596
0.352859
0.411868
0.250936
0.176430
0.324845
0.309944
0.446439
0.440478
0.380874
0.387430
0.554919
0.361800
0.339746
0.386834
0.494719
0.467896
0.341535
0.408888
0.450611
0.391603
0.389814
0.331998
0.451803
0.480413
0.384450
0.422597
0.649691
0.580549
0.562668
0.499487
0.622869
0.489950
0.780821
0.530481
0.569820
0.831485
0.663996
0.691414
0.688434
0.781417
0.732541
0.833869
0.702739
0.693798
0.836849
2.636909
9.054542
33.102632
71.976781
162.742734
261.934996
409.152508
509.692430
595.532656
610.578656
540.980697
446.505547
296.692848
196.242929
99.877715
##END
