##TITLE=QP00352
##FORMAT=SPECTACLE-ASCII V-1.2
##DATA TYPE=ULTRAVIOLET SPECTRUM
##SECOND TYPE=ULTRAVIOLET SPECTRUM
##DATE=01/30/18
##TIME=16:19:16
##SPECTROMETER/DATA SYSTEM=SPECTACLE
##XUNITS=NM EM
##YUNITS=ENERGY
##YFACTOR=1
##FIRSTX=220
##LASTX=410
##NPOINTS=96
##3DDATA=Equidistant
##ZUNITS=NM EX
##FIRSTZ=210
##LASTZ=400
##ZPOINTS=39
##XYDATA=(Y..Y)
##ZVALUE=210
2.143979
2.054572
2.279878
1.632571
2.268553
2.251863
2.380610
2.600551
2.129674
2.655983
2.126694
2.428889
2.662539
2.832413
2.520680
2.965927
3.377795
3.457665
3.041625
4.449487
3.417730
4.566908
4.255772
4.046559
5.366802
5.315542
5.857944
5.490780
5.753636
6.007552
6.276965
6.404519
6.775856
6.659627
7.531643
6.149411
5.939603
7.408857
7.498860
8.177757
7.948875
8.195639
9.067655
8.691549
8.488894
8.254647
10.092854
9.701848
10.269880
9.484887
9.813905
10.185838
11.221766
10.966659
11.865497
11.410713
10.420680
11.654496
12.475848
11.522770
11.648536
12.049675
12.055635
12.233853
12.689829
13.898611
15.088916
17.458797
19.200444
23.497939
26.677847
32.974482
37.660599
42.730570
48.246980
49.704909
52.238703
49.483776
51.629543
47.753453
45.340657
41.810870
37.445426
30.412674
28.850436
19.897819
17.881989
15.154481
13.914704
13.500452
13.143420
13.332963
11.780858
11.792779
11.530519
11.603832
##ZVALUE=215
6.668568
5.774498
5.393624
5.049706
4.080534
4.048944
4.200935
4.698634
4.230738
4.723668
5.085468
4.046559
3.854632
3.805757
3.102422
2.995729
3.381968
3.084540
3.387928
3.836751
3.823638
4.271865
4.621744
4.376769
5.190969
3.812909
5.944967
5.358458
5.714893
6.119609
6.084442
6.286502
6.039739
6.219745
6.899834
6.997585
7.646680
8.513927
8.385777
7.768869
7.632971
8.057952
8.396506
8.099675
9.033680
9.209514
9.336472
8.999705
9.822845
9.631515
10.885000
9.878874
11.322498
10.207891
10.461807
10.815859
10.947585
11.392832
10.973811
11.712909
12.148619
10.810494
11.245608
11.212826
11.361837
13.365746
13.359785
14.003515
16.634464
18.893480
22.334456
27.344823
29.473901
33.548474
37.192702
39.297938
36.762953
40.505528
37.877560
38.248897
35.293698
31.463504
27.767420
23.818612
19.957423
15.685558
16.441941
12.851954
12.180805
10.630488
11.497736
11.172891
11.386871
10.553598
10.204911
9.966493
##ZVALUE=220
18.471479
19.658804
20.957589
20.481944
20.452738
18.022656
14.735460
11.382699
10.181665
10.399818
11.266470
11.149645
10.414720
9.966493
7.999539
6.670952
5.480647
4.806519
4.276633
3.615618
4.195571
4.289746
4.515648
4.681945
5.320907
4.707575
4.819632
6.120801
5.379915
5.671978
6.078482
7.106662
6.885529
6.451607
6.737709
6.913543
7.159710
6.735921
7.499456
7.549524
7.768869
7.576942
7.922649
8.797646
8.037686
8.061528
8.478761
9.183884
9.265542
10.033846
9.249449
9.472966
9.269714
9.533763
9.362698
10.569692
9.954572
10.039806
10.141730
9.946823
9.923577
10.653734
10.487437
11.574626
11.119843
11.406541
10.830760
11.693835
12.799501
17.433763
18.132925
20.909905
25.193691
27.521849
28.121471
30.866861
31.746626
30.875802
32.221675
29.927492
28.522611
24.689436
22.953749
18.258691
18.740892
14.352798
13.881922
11.274815
10.844469
9.754896
9.280443
10.138750
9.260774
9.043813
9.307861
9.841919
##ZVALUE=225
33.470988
36.526918
54.043531
61.941743
71.820617
72.726607
66.974759
56.566000
40.139556
32.926798
24.920702
20.872951
23.522973
24.745464
27.565956
23.586750
19.742846
17.495751
12.393594
8.239746
6.566644
5.656481
5.332828
5.154610
4.862547
5.502701
5.115867
5.574822
6.184578
5.727410
7.068515
7.310510
6.839633
7.610917
7.395744
7.372499
8.220673
7.494688
7.237792
7.297993
7.950664
7.585883
8.305907
7.855892
8.404851
9.200573
8.015633
7.990599
8.762479
8.989573
9.965897
9.525418
9.686947
10.012984
10.532737
11.796951
10.655522
11.285543
11.340976
12.482405
10.656714
11.886954
12.206435
13.328791
11.551976
11.631846
13.234615
15.078783
15.063882
16.765594
19.553900
21.987557
24.181604
27.171969
29.479861
30.432940
28.674603
28.432608
27.902722
24.440885
24.928451
22.347569
20.867586
18.109679
17.769933
14.938712
15.152693
13.458729
13.508797
12.601614
11.235476
11.386871
11.305809
11.143684
9.994507
10.962486
##ZVALUE=230
32.970905
37.244558
56.605935
103.165507
135.418773
170.492530
195.488930
200.048685
181.859732
161.050558
110.954642
78.659654
51.811934
44.769645
45.092702
48.531890
49.571991
49.032569
43.806434
35.498738
27.105808
18.248558
13.088584
9.391904
7.836819
6.134510
5.778670
6.854534
6.826520
7.560849
8.300543
7.670522
6.904602
8.625984
8.828640
8.452535
9.093881
9.142756
8.758903
9.055734
9.775758
9.001493
8.983612
9.629726
10.257959
9.402633
10.141730
10.570884
10.091662
10.515451
10.381937
10.595918
12.075901
11.835694
11.671782
11.470914
12.957454
12.738705
13.306737
13.112426
13.596416
13.523698
14.559627
14.830828
15.815496
14.949441
15.825629
16.469955
17.525554
21.420717
22.996664
25.276542
29.545426
31.837821
32.311678
32.345653
33.872724
33.790469
30.033588
27.486682
26.502609
25.203824
22.799969
21.616817
18.516779
16.359687
16.237497
16.849637
16.267896
15.439987
15.303493
13.930798
14.348626
15.299916
15.259981
14.723539
##ZVALUE=235
12.139678
14.434457
31.293631
83.836913
138.241649
223.660469
301.277637
388.813615
429.895520
433.572531
382.815599
324.857831
216.324925
153.555870
104.535818
81.270933
72.092414
76.449513
84.552765
83.979964
76.274872
65.795779
51.057935
40.291548
23.523569
18.525720
13.323426
10.239482
9.403825
9.867549
9.705424
8.737445
10.254979
11.233687
10.296702
9.196997
8.809566
10.469556
9.619594
10.995865
10.064840
9.760857
9.510517
10.363460
9.349585
11.256933
10.820627
11.443496
11.962652
12.101531
12.178421
12.998581
13.246536
15.038848
13.418794
14.593601
14.021993
14.687777
13.988614
15.082955
16.563535
15.681982
17.406940
16.164780
16.690493
18.777847
17.332435
19.906759
21.032691
25.677681
27.697682
29.675961
33.067465
35.515428
37.038922
38.935542
39.240718
36.865473
36.149621
34.202933
29.454827
31.160712
26.337504
25.687814
23.182631
22.778511
21.521449
18.191934
18.502474
18.940568
18.753409
18.864870
18.534660
19.519925
17.669797
17.482638
##ZVALUE=240
2.535582
1.845956
6.386638
18.202662
62.891841
119.539499
241.884589
366.984606
547.776818
648.922920
724.574924
718.127489
623.448491
518.451929
371.768475
272.603631
167.532563
123.611689
100.198984
103.106499
108.182430
118.887424
113.704801
101.984739
86.241961
62.197447
50.497651
33.009648
25.268793
17.622709
15.701652
13.073683
13.108850
12.216568
11.711717
10.946989
11.527538
11.845827
10.776520
11.748672
11.818409
10.380745
10.168552
11.042953
11.753440
11.552572
10.808706
10.948777
11.661649
11.711717
10.025501
11.895895
11.867881
13.064742
13.266802
13.673902
14.749765
12.963414
14.451742
15.917420
16.490817
14.922619
17.104745
16.298890
17.222762
19.028783
18.496513
18.379688
22.902489
24.435520
26.074648
30.374527
34.355521
37.551522
40.979981
42.386651
41.877627
40.179491
38.767457
35.294890
32.122731
31.141639
28.205514
26.575923
26.388764
23.479462
23.187995
23.790598
22.157431
21.371841
21.229982
21.047592
22.440553
20.013452
20.931959
21.369457
##ZVALUE=245
1.979470
1.693964
2.189875
2.317429
5.816817
15.280843
53.417683
114.450455
258.345008
399.055481
618.977547
772.351027
885.433555
920.231938
881.725550
708.914995
568.476915
385.367870
261.269808
153.957605
119.525790
105.539560
116.143823
127.611756
134.066939
130.668879
116.394758
103.103518
76.023936
58.516860
43.146610
29.174685
21.062493
15.342832
14.189482
13.135672
12.296438
11.804700
12.252927
11.170506
11.749864
10.909438
10.470748
11.908412
10.893941
10.487437
10.149479
10.139942
10.665655
10.663867
11.479855
10.775924
12.116432
11.925697
11.578798
11.288524
11.971593
12.734532
13.210773
13.024807
13.802648
13.176799
14.919639
13.605952
14.975667
15.229583
18.298626
17.696619
18.824935
22.173524
23.684502
27.020574
29.363632
31.817555
32.989979
33.250451
33.672452
33.682585
33.370852
30.099750
28.514862
27.008653
24.236441
24.656653
24.670959
21.583438
21.412969
20.554662
22.011995
21.784902
21.307468
20.213723
21.693707
19.630790
20.078421
19.218922
##ZVALUE=250
1.644492
1.406670
1.514554
1.695752
1.594424
1.695752
2.361536
9.778738
32.282472
77.688694
209.565759
367.689729
619.516969
816.443563
1004.563570
1015.871763
1015.871763
974.109769
836.175680
567.619801
384.463668
208.408833
137.968659
103.459954
107.714534
126.284957
138.324499
140.270591
141.266584
122.257471
108.078718
81.595778
61.391592
40.944815
28.204918
18.105507
13.927817
11.364818
10.782480
10.591745
9.711981
9.958744
9.884834
9.947419
9.041429
8.841753
8.853674
8.876920
9.747744
9.500980
9.177923
8.847713
9.441972
9.240508
10.095835
9.710789
10.341406
10.129809
10.894537
10.316968
10.997653
11.502504
11.011958
12.289882
12.515783
13.701916
13.235807
15.181899
16.371608
17.906427
20.017624
24.557710
25.996566
26.845932
29.583573
28.539896
28.858781
28.978586
28.822422
27.030706
25.485754
23.075938
22.368431
20.676851
20.994544
19.714832
19.612908
18.459558
17.000437
19.524693
17.594695
17.754436
18.358827
18.680692
18.839836
17.981529
##ZVALUE=255
1.347661
1.304746
1.406670
1.411438
1.504421
1.324415
1.654625
1.940727
2.276897
5.042553
29.778481
84.414482
180.584788
375.565886
578.891039
904.607773
1015.872955
1015.872955
1015.872955
1015.872955
1015.872955
875.149965
544.566512
334.525704
165.287852
111.258626
96.711516
109.075904
129.903555
141.421556
148.395896
144.238472
130.840540
106.878877
82.487464
56.365728
41.475892
24.649501
16.790628
11.774898
9.882450
9.526610
8.399487
9.312630
8.278489
8.449554
9.095669
8.140802
8.576512
8.015633
8.020997
8.995533
8.350611
8.832812
8.646846
9.061694
8.630753
9.054542
9.808540
9.746552
9.900928
10.422468
9.881854
10.664463
10.487437
12.270808
11.445880
13.042688
14.448762
16.084909
18.422604
19.840598
21.920800
24.480820
25.857687
25.721788
24.895668
24.991632
24.337769
22.939444
22.432804
21.342635
19.667745
19.635558
19.103885
18.038750
17.197728
16.941428
16.753674
17.607808
16.906857
16.274452
16.474724
16.411543
16.650558
16.056895
##ZVALUE=260
1.262426
0.934601
0.947714
1.235604
1.104474
1.364946
1.455545
1.499653
1.499653
1.827478
1.974702
3.051758
9.868741
50.246716
127.364993
316.863656
519.751906
861.105919
1015.691757
1015.691757
1015.691757
1015.691757
1015.691757
1015.691757
756.675601
501.719713
265.963674
153.365731
90.890527
88.238716
104.103684
129.464865
143.005848
154.028535
147.961974
130.728483
112.656951
82.764626
59.028864
39.389729
25.262833
15.351772
10.593534
8.432865
8.102655
7.771850
8.327961
7.373691
7.499456
8.130670
8.342862
7.864833
7.483959
8.633733
8.432865
8.198619
8.498430
8.450747
8.411407
9.016991
9.153485
8.713603
9.091496
8.949637
8.996725
9.288788
9.513497
10.943413
12.037754
13.332963
14.677644
15.873909
17.746687
19.218922
19.561648
20.236969
20.122528
19.506812
19.361973
18.181801
17.325878
16.382933
15.772581
15.255809
14.775991
14.455914
14.937520
14.466643
14.763474
14.460683
14.981627
14.911890
14.181733
14.407635
15.213490
14.460683
##ZVALUE=265
1.177788
1.213551
1.110435
1.088977
1.307726
1.239777
1.147985
1.309514
1.439452
1.565814
1.570582
1.930594
1.982450
2.347827
6.348491
22.985935
81.833005
166.096687
306.189656
613.048673
882.723927
1015.871763
1015.871763
1015.871763
1015.871763
1015.871763
882.052779
565.319657
361.389518
185.604692
110.563636
76.091886
82.652569
111.733675
128.507614
148.455501
153.840780
146.505833
132.195950
104.179978
82.765818
53.122640
37.136674
21.831989
13.153553
8.890629
7.803440
6.286502
6.319880
6.711483
6.521940
6.844997
7.377863
6.726980
6.778836
6.704926
7.343888
7.108450
6.698966
6.999969
7.334948
7.386804
7.145405
8.042455
8.063912
8.567572
8.429885
9.056926
9.433627
10.830760
12.198687
13.164878
14.060736
15.208721
15.532970
15.773773
15.273690
15.016794
14.244914
14.587641
13.572574
13.340712
12.768507
13.223886
12.584925
12.593865
12.635589
12.664795
13.339520
13.104677
13.401508
13.209581
12.903810
13.086796
13.442636
13.193488
##ZVALUE=270
0.962615
1.030564
1.124740
1.242757
1.331568
1.193881
1.167655
0.965595
1.294613
1.271963
1.347661
1.392961
1.267791
1.693964
1.776814
2.307892
3.130436
11.818409
54.421425
123.641491
298.314691
517.917871
920.789838
1015.872955
1015.872955
1015.872955
1015.872955
1015.872955
1015.872955
794.933438
462.549925
274.173617
150.531530
73.889494
62.733889
83.869696
105.628967
129.551888
146.286488
152.637959
147.292614
129.271746
107.616782
78.332424
58.414936
35.111904
24.005771
13.767481
9.380579
6.843805
6.844997
6.819963
6.711483
6.931424
6.945729
7.007718
6.867647
7.543564
7.428527
7.239580
7.236600
7.152557
7.459521
7.747412
7.750988
7.870793
8.199811
8.510947
9.167790
9.888411
11.464953
12.062788
13.063550
13.827682
13.955832
14.519691
14.186502
13.420582
13.239980
13.514757
12.504458
11.671782
12.148619
11.810660
11.746883
10.942817
10.793805
11.106730
10.697842
11.520982
11.770725
11.730790
12.575984
11.883974
11.776686
11.466742
##ZVALUE=275
1.114607
0.915527
1.146793
1.007915
1.076460
1.271963
1.323819
1.243949
1.270771
1.289845
1.541972
1.386404
1.354814
1.748800
1.654625
1.748800
1.736879
1.777411
2.352595
6.223917
23.007989
67.672729
198.108554
396.974683
789.803863
1015.871763
1015.871763
1015.871763
1015.871763
1015.871763
1015.871763
1015.871763
754.517913
390.632749
217.714906
91.576576
57.124496
59.868693
76.495409
107.749701
125.725865
144.060850
151.571631
144.551992
129.884481
104.077458
84.538460
57.392716
39.946437
23.726821
15.926957
9.863973
7.666945
7.220507
6.545782
7.023811
7.180572
7.321835
7.584691
6.925464
7.360578
7.397532
7.555485
7.502437
7.587671
7.768869
8.133650
8.803606
8.843541
10.400414
10.051727
12.023449
12.415648
13.216734
13.808608
14.142990
13.810992
13.276935
13.030767
12.487769
11.977553
11.812449
11.331439
11.420846
11.236668
10.949969
10.692477
11.051893
10.580420
10.509491
10.905862
11.211634
10.937452
10.136962
10.672808
10.833740
##ZVALUE=280
0.910759
0.887513
1.035929
1.066923
0.798702
1.038909
0.861883
1.018643
1.039505
1.034737
1.154542
1.259446
1.215935
1.309514
1.325607
1.396537
1.592636
1.779795
1.808405
2.151728
2.398491
2.860427
14.079809
49.813986
160.495639
312.557817
615.744591
914.177895
1015.871763
1015.871763
1015.871763
1015.871763
1015.871763
1015.871763
959.094763
551.850796
332.563519
141.611695
69.323778
44.777989
54.084659
80.399513
101.947784
126.882792
140.555501
146.342516
142.662525
125.230551
105.954409
77.444911
58.378577
37.413836
24.826527
14.903545
10.789633
8.029938
6.944537
6.924868
6.904602
6.792545
7.051826
7.516742
7.187724
7.345676
7.352829
7.816553
7.792711
8.072853
9.055734
9.292960
9.879470
10.954738
11.517406
12.174845
12.394786
12.502670
12.339950
11.577606
11.581779
11.198521
10.787845
11.324883
10.282993
9.948611
10.449886
10.053515
9.811521
9.786487
9.931922
9.898543
10.318756
9.682775
10.159612
9.672642
10.166764
10.065436
##ZVALUE=285
0.876784
0.759959
0.969768
1.023412
1.010895
0.932813
1.086593
1.098514
0.873804
0.960827
0.958443
0.880957
0.978708
1.093745
1.289845
1.278520
1.297593
1.435876
1.356602
1.603961
1.658797
1.747608
2.147555
2.558827
6.973743
25.163889
90.680718
194.647908
435.056686
712.438822
998.298526
1015.871763
1015.871763
1015.871763
1015.871763
1015.871763
1015.871763
755.223632
477.939844
223.840475
111.693740
44.493675
36.278963
53.296685
72.337985
100.405812
118.311644
135.208964
143.529773
137.234926
126.320720
104.011893
83.034635
57.096481
39.900541
23.811460
16.173720
10.450482
8.284450
7.097721
7.313490
6.891489
7.343888
7.274747
7.032752
7.826686
7.737875
7.891655
8.442998
9.307861
9.626746
10.166764
11.386871
11.630654
11.672974
11.606812
11.632442
11.007786
10.764599
10.209680
10.246634
9.869933
9.803772
9.611845
9.863973
9.834766
9.576678
9.406805
9.763837
9.459853
9.958744
9.412766
9.463429
9.501576
9.268522
9.761453
##ZVALUE=290
0.877976
0.748634
0.936985
0.799894
0.721812
0.837445
0.739694
0.819564
0.916719
0.862479
0.858903
1.038909
0.872612
1.081824
1.048446
1.059771
1.049638
1.298785
1.215935
1.269579
1.395941
1.519918
1.734495
1.756549
1.988411
2.440810
3.291965
9.747744
48.919916
125.135779
251.340866
549.631715
868.625641
1015.871763
1015.871763
1015.871763
1015.871763
1015.871763
1015.871763
948.449969
624.948740
312.052965
160.432458
59.329867
31.853914
34.646988
47.664642
70.719719
90.021491
113.924742
128.849745
138.365626
136.039853
121.796727
104.419589
77.519417
58.172941
37.373900
26.086569
15.697479
10.955930
8.419752
7.820725
7.706881
7.649660
7.405877
7.673502
8.321404
8.195639
8.949637
9.717941
10.512471
10.807514
11.164546
11.430979
11.263490
11.046529
10.475516
11.058450
10.146499
9.379983
9.634495
9.916425
9.701848
8.987784
9.408593
9.056926
9.211898
9.172559
9.642839
9.180903
8.911490
9.115934
9.263754
9.392500
9.420514
##ZVALUE=295
0.778437
0.808835
0.819564
0.893474
0.806451
0.722408
0.830889
0.860691
0.861883
0.756979
0.740886
0.839829
0.799894
0.924468
1.058578
1.041889
0.945926
1.153946
1.197457
1.297593
1.156926
1.324415
1.543760
1.494884
1.820922
1.929998
2.169609
2.263784
2.381802
4.844666
17.456412
80.115795
187.435746
456.114411
747.808814
1015.871763
1015.871763
1015.871763
1015.871763
1015.871763
1015.871763
1015.871763
763.702989
413.302779
225.124955
81.209540
37.816763
22.917986
29.156804
46.677589
62.968731
88.118911
106.700659
125.415921
132.764578
127.358437
118.043423
97.057819
78.474879
55.119991
39.909482
24.230480
16.165972
11.002421
8.485913
7.750988
7.218719
7.686615
8.304715
8.708835
9.211898
10.280609
10.308623
10.663867
10.550618
10.755658
10.781884
10.008812
9.917617
9.949803
9.544492
9.495616
9.277463
9.294748
9.010434
8.793473
8.839965
9.184480
9.089708
8.762479
9.052753
8.934736
8.648634
8.754730
8.797646
8.595586
##ZVALUE=300
0.830889
0.745654
0.715852
0.733733
0.871420
0.712872
0.843406
0.900626
0.801682
0.767708
0.682473
0.784993
0.864863
0.904799
0.981688
0.935793
0.890493
1.081824
0.937581
1.065731
1.176596
1.339912
1.240969
1.373887
1.427531
1.508594
1.656413
1.771450
2.061725
2.208948
2.386570
3.349781
12.833476
44.951439
154.345632
306.674838
652.647018
982.726812
1015.871763
1015.871763
1015.871763
1015.871763
1015.871763
1015.871763
971.146822
654.072762
329.157710
174.777508
60.056448
25.259852
19.523501
26.756525
41.860938
56.700706
81.389546
98.913908
117.304921
124.379992
124.194622
115.474463
96.123815
77.930689
55.701733
40.459633
25.048852
17.412901
11.673570
9.549856
8.589625
8.874536
9.040833
9.633899
10.289550
10.203719
10.562539
10.212660
10.245442
9.878874
9.955764
9.955764
9.917617
9.556413
9.146929
9.516478
9.433627
9.591579
8.844733
9.310842
9.222627
8.839965
8.767843
9.266734
8.970499
8.978844
8.705854
9.132624
##ZVALUE=305
0.717640
0.805855
0.560880
0.680685
0.778437
0.590682
0.723600
0.706911
0.768900
0.811815
0.851750
0.778437
0.734925
0.703931
0.900626
0.852942
0.794530
0.897646
1.051426
1.029968
0.930429
0.888705
1.127720
1.262426
1.162887
1.335740
1.173615
1.422763
1.576543
1.653433
1.699924
2.141595
2.313852
2.582669
7.075667
27.096868
111.680627
236.615539
538.492799
846.297741
1015.872955
1015.872955
1015.872955
1015.872955
1015.872955
1015.872955
1015.872955
847.364664
452.209711
251.562595
95.262527
39.114952
16.561747
17.453432
26.754737
37.703514
58.760643
75.122714
96.639991
110.310912
118.397474
117.523670
107.828975
93.541741
71.991682
55.480599
37.040710
26.658773
16.545653
12.498498
10.991693
10.450482
10.305643
10.090470
10.290742
10.142922
10.283589
10.027885
9.441972
9.648800
9.291768
9.373426
9.083748
9.429455
9.525418
9.457469
9.403825
9.204745
9.424686
9.012818
9.013414
8.976460
8.799434
8.610487
8.412600
8.525848
##ZVALUE=310
0.694990
0.568628
0.753999
0.760555
0.650883
0.846982
0.801682
0.783801
0.735521
0.740886
0.740886
0.826716
0.740886
0.774860
0.814795
0.864863
0.838637
0.767708
0.901818
0.877976
0.796914
1.179576
0.960827
1.080632
1.126528
0.971556
1.266599
1.472831
1.361966
1.389980
1.435876
1.570582
1.958609
1.974702
2.237558
2.648830
3.198981
15.885830
55.007935
177.505016
347.959399
741.970539
1015.871763
1015.871763
1015.871763
1015.871763
1015.871763
1015.871763
1015.871763
979.961753
684.647560
347.508788
185.516477
63.947439
23.865700
13.192892
16.069412
24.209619
33.641458
51.507950
67.341924
89.217424
102.454424
111.898780
113.408566
103.909969
91.421604
72.607994
56.369901
37.185550
27.808547
18.804669
14.688969
11.718869
10.738969
10.151863
9.904504
9.654760
9.139776
9.471774
9.022951
9.020567
9.145737
9.196997
9.095669
9.251833
9.185672
9.165406
9.156466
9.056926
9.037852
9.015799
9.044409
8.757710
8.461475
8.758903
##ZVALUE=315
0.642538
0.668764
0.693798
0.658631
0.580549
0.616908
0.760555
0.671744
0.729561
0.707507
0.728965
0.595450
0.768900
0.594854
0.887513
0.751615
0.772476
0.811815
0.794530
0.993609
0.963807
0.892878
0.900626
1.041889
1.181960
1.221895
1.208782
1.203418
1.333952
1.547933
1.562834
1.468658
1.800656
1.913905
1.922846
2.192855
2.412796
2.564788
3.110766
8.033514
33.381581
139.215589
295.258760
657.173991
1004.237533
1015.871763
1015.871763
1015.871763
1015.871763
1015.871763
1015.871763
1015.871763
922.574997
490.958691
266.329646
94.480515
37.465692
13.999939
12.018681
15.832782
21.363497
33.421516
45.857430
65.422654
80.116987
97.014904
105.680823
106.910467
99.883676
85.476637
71.378946
52.916408
39.902925
25.690794
19.664764
13.666749
11.470914
10.076761
9.771585
9.579659
9.410977
9.461641
9.472966
9.653568
9.424686
8.988976
9.427667
9.462833
9.273887
9.039640
9.099841
9.231567
8.874536
8.662939
8.767843
8.641481
##ZVALUE=320
0.567436
0.712872
0.564456
0.623465
0.554919
0.619888
0.699759
0.665784
0.732541
0.783801
0.670552
0.742674
0.818968
0.731945
0.676513
0.681877
0.893474
0.905991
0.854731
0.930429
0.851750
1.012683
0.781417
0.936985
1.069903
1.001954
1.254678
1.239777
1.079440
1.272559
1.041889
1.267791
1.427531
1.557469
1.564622
1.555681
1.967549
2.057552
2.220869
2.569556
2.838969
4.018545
14.254451
83.186030
208.801627
523.549914
860.225558
1015.871763
1015.871763
1015.871763
1015.871763
1015.871763
1015.871763
1015.871763
1015.871763
623.650551
355.208516
154.154897
67.812800
19.120574
11.384487
11.725426
13.992786
19.975901
28.032660
44.414997
59.075952
76.420903
90.301633
100.665689
103.053451
96.116662
85.863471
67.338943
53.196549
35.649538
26.986599
17.734766
13.656616
10.748506
10.061860
9.383559
8.766651
9.314418
9.365678
9.079576
9.164810
9.020567
9.102821
9.434819
9.020567
9.090900
9.076595
8.964539
8.933544
8.563995
##ZVALUE=325
0.647902
0.629425
0.681877
0.758767
0.697970
0.710487
0.449419
0.664592
0.549555
0.568628
0.652671
0.680685
0.592470
0.534654
0.626445
0.825524
0.765920
0.771880
1.018643
0.704527
0.924468
0.866652
1.024604
0.896454
0.930429
0.828505
0.971556
0.928640
1.179576
1.048446
1.232624
1.159906
1.132488
1.152754
1.428723
1.509786
1.629591
1.659989
1.724958
2.021790
2.140999
2.308488
2.642870
2.927780
8.610487
39.763451
159.642696
338.853002
739.272833
1015.875936
1015.875936
1015.875936
1015.875936
1015.875936
1015.875936
1015.875936
1015.875936
860.911608
451.668501
241.905451
86.518526
32.948852
11.770725
10.397434
11.292696
13.022423
19.528866
27.949810
44.206977
57.636499
76.870918
87.934732
95.304847
97.186565
89.559555
79.337955
61.501861
47.672987
32.012463
24.227500
16.907454
13.241768
10.826588
9.807944
9.481907
9.008646
9.168983
8.988976
8.858442
8.961558
8.728504
8.727908
8.850694
8.476973
8.417964
8.375645
##ZVALUE=330
0.655651
0.619888
0.682473
0.611544
0.518560
0.696778
0.631809
0.639558
0.659823
0.744462
0.718832
0.661612
0.671744
0.728965
0.774860
0.676513
0.651479
0.540614
0.756979
0.710487
0.630617
0.783801
0.852942
0.900626
0.689626
0.972748
0.759959
0.950694
1.023412
1.028776
1.048446
1.269579
1.233816
1.253486
1.306534
1.313686
1.347661
1.378655
1.556873
1.650453
1.657605
1.976490
1.991987
2.303720
2.483726
3.019571
3.837943
20.454526
71.216822
250.982046
487.625599
964.702964
1015.878916
1015.878916
1015.878916
1015.878916
1015.878916
1015.878916
1015.878916
1015.878916
705.097914
325.815678
162.074566
53.571463
19.119978
10.171533
10.021925
11.275411
13.496876
19.906759
27.565956
41.131973
53.216815
71.791410
82.470775
90.508461
90.210438
84.557533
74.489713
57.889819
45.254827
31.379461
23.554564
17.068982
13.404489
10.706782
9.598732
9.093881
9.202957
8.759499
8.801818
8.666515
8.755922
8.241534
8.483529
8.230805
##ZVALUE=335
0.636578
0.583529
0.657439
0.715852
0.680685
0.721812
0.596642
0.558496
0.570416
0.575781
0.710487
0.655651
0.712872
0.690818
0.681877
0.728965
0.800490
0.678897
0.695586
0.888705
0.806451
0.841618
0.783801
0.936985
0.901818
0.875592
0.876784
0.923872
0.827909
1.014471
1.004934
1.104474
1.208782
1.322627
1.151562
1.301765
1.187921
1.534820
1.557469
1.496673
1.851916
1.649857
1.778603
1.950860
1.948476
2.401471
2.587438
2.883673
3.030896
8.694530
34.220815
140.056014
306.856632
714.067817
1015.951633
1015.951633
1015.951633
1015.951633
1015.951633
1015.951633
1015.951633
1015.951633
895.774961
457.574725
232.833624
75.254440
28.833747
11.812449
10.501742
9.870529
11.508465
14.323592
18.316507
28.621554
37.944913
53.624511
64.760447
76.609850
83.048940
84.316730
78.924894
67.602992
56.277514
44.072866
34.495592
23.615956
18.214583
13.173819
10.876656
9.533763
8.737445
8.686781
8.141994
8.372664
8.195639
8.386970
##ZVALUE=340
0.700951
0.690818
0.472665
0.712872
0.745654
0.628829
0.661612
0.723600
0.796914
0.586510
0.886917
0.718832
0.681877
0.747442
0.770688
0.925660
0.790954
0.881553
0.850558
0.781417
0.914931
0.860691
0.911951
0.885725
0.863671
0.889897
0.784993
0.947714
1.026988
0.809431
0.946522
1.153946
1.142621
1.070499
1.234412
1.203418
1.362562
1.311898
1.212955
1.383424
1.485944
1.498461
1.528859
1.648664
1.647472
1.820922
2.121925
2.320409
2.511740
2.810955
3.329515
4.372001
24.581552
83.704591
274.228454
556.641817
1015.999913
1015.999913
1015.999913
1015.999913
1015.999913
1015.999913
1015.999913
1015.999913
994.042754
638.015866
278.928876
126.200914
33.111572
14.142990
10.918975
10.717511
10.953546
11.746883
14.212728
17.705560
25.807619
35.466552
50.420761
62.106848
73.566437
78.243613
78.109503
76.089501
64.609647
55.855513
41.784644
32.604933
22.971630
17.342567
12.545586
11.029840
9.301901
8.667707
8.533597
8.342862
##ZVALUE=345
0.641942
0.521541
0.586510
0.617504
0.660419
0.465512
0.581741
0.567436
0.622869
0.576973
0.745654
0.618696
0.741482
0.789762
0.621676
0.682473
0.555515
0.811815
0.834465
0.721812
0.651479
0.728965
0.864863
0.958443
0.723600
0.772476
0.757575
0.876784
0.865459
0.817776
0.783801
0.828505
0.881553
0.964999
0.944734
1.181960
1.033545
0.946522
1.275539
1.030564
1.112819
1.396537
1.330972
1.279712
1.362562
1.612902
1.548529
1.863837
1.945496
2.095699
2.345443
2.641678
2.840757
3.737807
7.704496
50.000548
144.592524
396.872759
728.682876
1015.871763
1015.871763
1015.871763
1015.871763
1015.871763
1015.871763
1015.871763
1015.871763
827.114582
454.189777
174.717903
69.301724
19.868612
12.487769
11.065602
10.589957
10.319948
10.643601
12.635589
15.692711
23.694634
32.432675
45.223832
55.633783
66.276789
72.041750
74.094534
70.663691
63.394904
54.418445
41.281581
31.914711
22.339821
17.191768
12.542605
10.452867
8.987784
##ZVALUE=350
0.623465
0.506639
0.528693
0.563860
0.535846
0.545979
0.584722
0.657439
0.676513
0.556707
0.415444
0.618696
0.600815
0.573993
0.655651
0.791550
0.716448
0.606775
0.751615
0.872612
0.774860
0.642538
0.811815
0.739694
0.760555
0.813603
0.669956
0.742674
0.844598
0.720620
0.983477
0.852942
0.953674
0.832677
0.788569
0.928640
0.959635
1.021624
1.118779
0.961423
1.166463
1.056790
1.084805
1.316667
1.218915
1.495481
1.572967
1.463890
1.773834
1.716614
1.976490
2.054572
1.895428
2.418756
2.757907
3.299713
4.638433
25.974512
82.576871
267.493725
521.681905
1008.917689
1015.872955
1015.872955
1015.872955
1015.872955
1015.872955
1015.872955
1015.872955
993.415713
623.580813
264.144540
113.425851
27.673841
12.672544
10.323524
9.656549
9.099841
8.847713
9.823442
11.389852
15.700459
20.693541
29.256940
38.131475
49.935579
58.514476
65.568686
67.358613
64.847469
59.837699
49.554706
40.794611
29.444695
22.994876
16.373992
##ZVALUE=355
0.726581
0.723600
0.660419
0.581741
0.585914
0.598431
0.733733
0.680685
0.526905
0.662804
0.635982
0.619888
0.764728
0.793934
0.749826
0.769496
0.650883
0.725985
0.852942
0.719428
0.750422
0.626445
0.805855
0.589490
0.753999
0.811815
0.787973
0.828505
0.853539
0.921488
0.810623
0.847578
0.948906
0.999570
0.969768
1.030564
0.857711
0.913739
1.040697
1.126528
1.122952
1.130700
1.210570
1.214743
1.285672
1.395941
1.428723
1.571774
1.660585
1.825690
1.793504
1.998544
2.130866
2.149940
2.331734
2.572536
2.811551
3.164411
3.709793
13.862848
53.535700
204.408765
418.989658
879.596472
1015.871763
1015.871763
1015.871763
1015.871763
1015.871763
1015.871763
1015.871763
1015.871763
808.603764
330.326557
145.693421
39.927959
15.452504
9.934902
9.309649
8.752942
8.591413
8.529425
9.112954
10.944605
13.353825
18.956661
25.219917
35.155416
42.604804
52.545667
58.437586
61.002970
59.852600
54.832697
47.961473
38.471818
##ZVALUE=360
0.551939
0.598431
0.770688
0.673532
0.608563
0.594854
0.689626
0.685453
0.791550
0.663996
0.730753
0.747442
0.716448
0.782609
0.779629
0.815988
0.703931
0.724792
0.654459
0.849962
0.738502
0.767708
0.787973
0.816584
0.835657
0.767708
0.858903
0.901818
0.931621
1.009703
0.919700
0.994802
1.052618
0.951886
1.066923
1.155734
1.070499
1.092553
0.918508
0.985861
1.117587
1.318455
1.413822
1.166463
1.330972
1.373887
1.448989
1.521707
1.646876
1.678467
1.673698
1.942515
1.821518
2.065897
2.103448
2.209544
2.365708
2.740622
2.991557
3.432631
3.788471
6.745458
26.271939
130.962729
313.019753
745.851994
1015.872955
1015.872955
1015.872955
1015.872955
1015.872955
1015.872955
1015.872955
1015.872955
956.501961
463.251472
232.228637
79.124570
28.085709
10.505915
9.302497
8.336902
8.171797
8.308887
7.846951
8.282661
9.019971
11.598468
14.515519
21.122694
27.974844
37.508607
44.901967
52.384734
55.068731
55.008531
##ZVALUE=365
0.694990
0.697970
0.674725
0.638962
0.672936
0.609756
0.697970
0.678897
0.686646
0.647902
0.760555
0.705719
0.822544
0.655651
0.805855
0.591874
0.731945
0.754595
0.707507
0.833869
0.802875
0.712872
0.795722
0.854731
0.862479
0.916719
0.824928
0.657439
0.855923
0.977516
0.975728
1.028776
1.038909
0.910759
1.071692
0.805855
1.019835
1.143813
1.045465
1.044869
1.018643
1.003742
1.262426
1.132488
1.192689
1.316667
1.207590
1.349449
1.343489
1.576543
1.542568
1.722574
1.664758
1.764894
1.766682
2.011657
1.925826
2.342463
2.203584
2.581477
2.874732
3.397465
3.772974
4.628897
9.962916
68.024397
193.589330
525.779724
951.289535
1015.871763
1015.871763
1015.871763
1015.871763
1015.871763
1015.871763
1015.871763
1015.871763
664.686561
353.649855
121.434927
44.319630
12.239814
8.881688
8.515716
7.781982
7.729530
7.132888
7.135868
7.291436
8.151531
9.318590
13.104677
17.331839
25.060773
31.915903
40.003657
##ZVALUE=370
0.677705
0.657439
0.607967
0.534654
0.634789
0.811815
0.503659
0.691414
0.655651
0.505447
0.727773
0.521541
0.598431
0.641942
0.627637
0.657439
0.722408
0.794530
0.768900
0.644922
0.601411
0.810623
0.729561
0.742674
0.643730
0.748634
0.808835
0.810623
0.752807
0.795722
0.845790
0.901818
1.027584
0.833869
0.847578
0.934601
0.909567
0.976920
1.020432
1.065731
1.224875
1.081824
0.969768
1.167655
1.022816
1.096725
1.256466
1.240969
1.275539
1.286864
1.305938
1.407862
1.477599
1.282692
1.626611
1.629591
1.902580
1.925826
2.006888
1.962781
2.137423
2.379417
2.419949
2.823472
3.295541
3.895760
5.564690
31.116009
106.696486
356.488824
673.720837
1015.881896
1015.881896
1015.881896
1015.881896
1015.881896
1015.881896
1015.881896
1015.881896
842.271447
473.031402
181.237459
78.476667
22.624731
10.065436
7.922649
7.384419
7.042885
6.716847
6.334782
6.532669
6.293654
6.935596
8.637905
10.995865
15.739799
##ZVALUE=375
0.590682
0.544786
0.660419
0.554919
0.469685
0.432730
0.586510
0.497699
0.642538
0.561476
0.584722
0.496507
0.549555
0.661612
0.748634
0.637770
0.683665
0.687838
0.670552
0.794530
0.503659
0.576973
0.633597
0.604987
0.700951
0.531673
0.658631
0.594854
0.693798
0.676513
0.671744
0.614524
0.813603
0.782609
0.825524
0.742674
0.914931
0.911951
0.802875
0.739694
0.951886
0.981688
0.939965
0.945926
0.963807
1.008511
1.041889
1.037717
1.154542
1.046658
1.197457
1.214743
1.169443
1.150966
1.364946
1.478791
1.420975
1.461506
1.655817
1.543760
1.634955
1.780987
1.993775
1.970530
2.319813
2.489686
2.882481
3.528595
4.110932
15.341640
60.643554
229.917765
492.308736
1005.986929
1015.872955
1015.872955
1015.872955
1015.872955
1015.872955
1015.872955
1015.872955
1008.210778
678.063035
334.579945
162.325501
45.346618
14.965534
7.402897
7.129908
6.565452
6.114841
5.967617
5.859733
5.687475
5.846620
6.077886
##ZVALUE=380
0.524521
0.476837
0.495911
0.653863
0.552535
0.496507
0.543594
0.513792
0.374913
0.467896
0.491738
0.509620
0.541806
0.663996
0.572801
0.416636
0.580549
0.487566
0.501871
0.615716
0.506639
0.661612
0.683665
0.566840
0.647902
0.589490
0.581741
0.637770
0.618696
0.620484
0.720620
0.692606
0.688434
0.694990
0.612736
0.658631
0.679493
0.718832
0.699759
0.806451
0.704527
0.736713
0.745654
0.864863
0.809431
0.947714
0.892878
0.974536
0.911951
1.009703
1.081824
1.158714
1.050830
1.105666
1.100898
1.062751
1.184940
1.342893
1.239777
1.272559
1.336932
1.484752
1.682639
1.881719
1.763701
2.007484
2.361536
2.660751
3.100634
3.602505
3.950596
7.054806
27.328730
136.965513
323.922038
772.666931
1015.871763
1015.871763
1015.871763
1015.871763
1015.871763
1015.871763
1015.871763
1015.871763
868.316889
420.136452
212.139487
70.184469
25.350451
8.551478
6.844997
6.184578
5.735755
5.498528
5.473495
5.121827
##ZVALUE=385
0.395775
0.354648
0.478625
0.486970
0.494719
0.485778
0.517964
0.468493
0.497699
0.495911
0.518560
0.559688
0.738502
0.453591
0.429749
0.340939
0.481606
0.571609
0.547767
0.543594
0.630617
0.573993
0.586510
0.548959
0.661612
0.643730
0.562668
0.615716
0.597835
0.655651
0.626445
0.584722
0.653863
0.638962
0.573993
0.623465
0.729561
0.588894
0.656843
0.563860
0.527501
0.502467
0.747442
0.584722
0.674725
0.706911
0.785589
0.797510
0.869632
0.885725
0.849962
1.019835
1.027584
1.076460
0.970960
1.001954
0.858903
1.091957
1.040697
1.096725
1.202822
1.273751
1.368523
1.419783
1.579523
1.648664
1.723766
2.088547
2.285838
2.870560
3.158450
3.194809
3.488660
4.472733
12.505651
79.291463
214.281678
556.206703
955.446959
1015.871763
1015.871763
1015.871763
1015.871763
1015.871763
1015.871763
1015.871763
1012.251973
584.379435
330.462456
133.271813
51.507950
11.646748
6.688833
5.936623
5.659461
5.302429
##ZVALUE=390
0.431538
0.266433
0.463724
0.519753
0.651479
0.635982
0.372529
0.418425
0.452995
0.436902
0.585914
0.315905
0.423789
0.510812
0.385642
0.413656
0.492930
0.494719
0.559688
0.318885
0.453591
0.443459
0.474453
0.438690
0.567436
0.620484
0.389814
0.516772
0.425577
0.479817
0.535846
0.545979
0.684857
0.568628
0.517964
0.569820
0.471473
0.520945
0.609756
0.658631
0.549555
0.547767
0.635982
0.752807
0.681877
0.648499
0.703931
0.730753
0.874996
0.944734
0.771880
0.904799
0.956655
0.840425
0.848770
0.982881
1.028776
1.026988
0.720620
0.930429
1.217723
1.199841
1.220703
1.319647
1.414418
1.504421
1.564622
1.755953
2.140999
2.272725
2.521873
2.721548
2.935529
3.046989
3.249645
3.615618
5.928874
37.188530
119.288564
378.454924
721.161962
1015.871763
1015.871763
1015.871763
1015.871763
1015.871763
1015.871763
1015.871763
1015.871763
850.383639
476.778746
188.241005
84.417462
23.493767
8.634925
5.887747
##ZVALUE=395
0.449419
0.476837
0.552535
0.388622
0.414848
0.490546
0.359416
0.400543
0.342727
0.454783
0.347495
0.424981
0.552535
0.584722
0.373721
0.511408
0.709891
0.529885
0.339746
0.516772
0.387430
0.527501
0.354648
0.454783
0.477433
0.506639
0.502467
0.516772
0.498891
0.418425
0.542998
0.415444
0.627637
0.530481
0.764728
0.639558
0.619888
0.491738
0.538826
0.658631
0.815988
0.550747
0.690818
0.721812
0.772476
0.714660
0.801682
0.868440
0.795722
0.866652
0.866652
0.755787
0.902414
0.749826
0.856519
0.975728
0.996590
1.143813
1.064539
1.049638
1.068711
1.197457
1.254678
1.255870
1.332760
1.346469
1.535416
1.881719
2.155900
2.229810
2.379417
2.525449
2.686977
2.781749
2.765656
2.758503
3.228784
3.585815
4.421473
19.962788
78.850985
298.403502
589.929819
1015.876532
1015.876532
1015.876532
1015.876532
1015.876532
1015.876532
1015.876532
1015.876532
995.504856
616.517663
245.753527
111.017823
32.490492
##ZVALUE=400
0.436902
0.451803
0.367761
0.496507
0.554919
0.529885
0.495911
0.395775
0.504851
0.553727
0.584722
0.454783
0.522733
0.460744
0.521541
0.428557
0.445843
0.530481
0.407696
0.651479
0.434518
0.472665
0.573993
0.516772
0.559688
0.576973
0.396967
0.526905
0.479817
0.483990
0.555515
0.668764
0.625849
0.518560
0.632405
0.649691
0.653863
0.616908
0.655651
0.657439
0.551939
0.760555
0.902414
0.737906
0.704527
0.677705
0.615716
0.784993
0.805855
0.850558
0.742674
0.899434
0.960827
0.975728
0.847578
1.012683
1.088977
0.916719
1.101494
1.123548
1.110435
1.109838
1.139641
1.222491
1.256466
1.389980
1.689792
1.799464
1.956820
2.068877
2.218485
2.279878
2.519488
2.390742
2.384782
2.302527
2.486706
2.608895
3.013611
3.109574
3.826618
10.615587
38.674474
150.610805
345.014930
824.017525
1015.874743
1015.874743
1015.874743
1015.874743
1015.874743
1015.874743
1015.874743
1015.874743
857.900977
398.997664
##END
