##TITLE=QP00351
##FORMAT=SPECTACLE-ASCII V-1.2
##DATA TYPE=ULTRAVIOLET SPECTRUM
##SECOND TYPE=ULTRAVIOLET SPECTRUM
##DATE=01/30/18
##TIME=16:16:09
##SPECTROMETER/DATA SYSTEM=SPECTACLE
##XUNITS=NM EM
##YUNITS=ENERGY
##YFACTOR=1
##FIRSTX=220
##LASTX=410
##NPOINTS=96
##3DDATA=Equidistant
##ZUNITS=NM EX
##FIRSTZ=210
##LASTZ=400
##ZPOINTS=39
##XYDATA=(Y..Y)
##ZVALUE=210
1.809597
2.167821
2.205968
1.712441
1.829863
2.059937
2.213717
2.349615
2.647638
2.193451
2.197623
1.903772
1.498461
2.360940
2.258420
2.821684
2.282858
2.664924
3.038645
2.861619
2.752542
2.962947
3.484488
3.109574
3.508925
3.618598
4.429817
3.950000
4.294515
4.568696
4.513860
4.956722
5.715489
4.606843
4.712939
5.099773
4.926920
5.038977
4.749894
5.437732
5.501509
6.500483
6.634593
5.199909
6.250739
5.801916
6.765723
6.494522
6.909966
5.975962
5.814433
6.560683
7.610917
6.530881
6.631613
7.626414
7.327795
7.851720
7.789731
6.694794
7.307529
6.486773
8.142591
8.116961
7.479787
8.274913
9.189844
10.370612
10.480881
12.882948
14.743805
19.217730
19.971728
24.157763
24.248958
25.802851
27.427673
27.571917
28.988719
24.693608
22.371411
19.760728
16.840696
13.673902
12.496710
10.374784
9.615421
8.128881
8.790493
8.647442
8.395910
7.546544
7.468462
8.622408
8.300543
7.712841
##ZVALUE=215
4.838705
5.303621
5.117655
4.465580
3.162622
3.948808
3.935695
4.680753
4.018545
4.607439
4.067421
4.216433
3.343821
2.823472
3.416538
3.327727
3.588796
3.391504
2.896786
2.961755
3.186464
3.558993
3.934503
3.677607
3.640652
4.428625
5.033612
5.070567
4.692674
4.286766
4.742742
5.179644
5.415678
5.486608
4.992485
6.214976
5.706549
6.205440
6.393790
6.497502
6.194711
5.366802
5.385876
6.985664
6.687641
7.443428
7.663965
6.706715
7.695556
7.533431
6.918907
6.782413
7.046461
7.662773
8.620620
8.272529
8.026958
8.421540
8.152723
7.536411
8.177757
7.507801
8.805990
8.721948
8.477569
8.610487
8.921623
11.120439
11.236668
13.761520
15.814900
17.709732
21.257997
24.357438
27.133822
26.599765
26.593804
27.550459
25.413632
23.971796
22.585988
20.370483
17.350912
14.429688
13.869405
11.291504
9.757876
9.734631
8.745790
8.716583
8.018613
7.186532
8.932948
7.406473
7.573962
8.715987
##ZVALUE=220
17.933846
17.810464
23.393631
22.794604
21.152496
17.383695
15.942454
11.241436
10.481477
9.660721
11.748672
10.832548
10.785460
9.635687
8.199811
6.940961
6.374717
5.280972
3.202558
3.604889
3.755689
4.096627
4.108548
4.235506
5.228519
4.654527
4.992485
5.509853
5.117655
4.520416
5.084872
6.125569
6.795526
6.474853
6.818771
7.310510
7.428527
7.059574
7.394552
7.215738
7.982850
6.431937
7.943511
7.368922
7.821918
7.365942
7.769465
7.813573
7.991791
8.667707
8.922815
8.610487
7.541776
8.587837
9.985566
10.013580
8.699894
9.866953
7.927418
8.876920
9.371638
11.676550
10.008812
10.203719
10.582805
10.697842
10.217428
11.802912
12.717843
16.087890
18.939972
21.466613
23.264885
24.999976
27.018785
30.011535
28.860569
28.588772
28.338432
26.330948
24.363995
21.670461
19.309521
18.649697
14.929771
13.830662
11.611581
9.890795
9.942651
8.842945
9.433627
8.853674
9.311438
9.304881
8.875728
9.414554
##ZVALUE=225
36.195517
34.715533
55.138469
63.928962
77.502728
79.113841
72.038770
61.894655
42.849779
31.422973
26.651621
20.871758
24.049878
25.940537
25.420785
23.446679
20.719767
16.565919
11.824965
9.638667
6.506443
5.110502
4.363656
4.945993
4.737973
5.796552
5.480647
6.155968
6.631613
6.734729
5.987883
6.182790
6.727576
6.982684
7.230639
7.978678
7.893443
7.782578
7.809997
8.082986
7.658601
7.999539
7.038713
8.261800
8.498430
8.293986
8.104444
8.725524
7.982850
8.699894
10.809898
8.771420
9.624958
9.594560
9.432435
9.131432
9.948611
9.689927
10.152459
11.224747
9.902716
9.628534
11.085868
10.027885
11.515617
10.845661
12.450814
12.737513
12.800694
15.726686
18.130541
19.808412
22.135973
23.171902
25.783777
25.256872
25.768876
24.585724
23.263693
20.774603
19.150972
18.148422
16.177893
15.292764
13.083816
12.182593
11.172891
10.929704
10.225773
10.834932
9.424686
10.245442
9.837747
10.141730
10.410547
9.784698
##ZVALUE=230
30.487776
31.698942
54.332614
97.503662
128.282905
151.149631
172.920823
173.445940
163.408518
135.051608
100.400448
69.471002
47.205687
43.119788
45.469999
47.924519
48.117638
50.038695
41.965842
37.057996
26.042461
18.143654
13.147593
9.410977
7.353425
5.926490
5.245805
5.957484
6.077886
6.988645
6.246567
6.715655
7.346869
6.968975
7.181764
7.084608
7.550716
7.172823
7.365942
7.942915
7.281899
7.871985
8.792877
8.355975
8.464456
7.712841
7.261634
7.866621
7.953644
9.078979
8.657575
8.996725
8.826852
9.339452
10.005832
10.310411
10.104775
9.919405
10.173917
11.183619
10.518432
11.662841
12.154579
11.219978
11.944771
13.821721
12.358427
12.882948
14.257431
17.461777
17.974973
21.260977
22.374988
23.393631
24.834871
25.507808
24.718642
22.861958
22.690892
20.300746
19.922853
18.149614
18.315911
15.453696
13.915896
13.526678
13.186932
11.910796
13.123751
11.617541
12.001991
13.193488
11.647940
10.987520
11.212826
12.116432
##ZVALUE=235
11.449456
12.698770
28.850436
64.430833
107.719898
178.548694
245.597959
311.880708
356.775522
361.483693
330.594778
273.633599
186.049938
137.205720
90.181828
74.495673
70.404410
76.619983
81.299543
83.686709
75.895786
65.646768
50.216913
39.420724
23.841858
16.303658
13.015866
8.885860
7.590652
8.149743
8.771420
8.424520
8.664727
8.266568
8.113980
9.299517
8.528829
7.635951
8.428693
8.430481
8.051991
8.609891
8.946657
8.751750
7.871985
8.115768
8.787513
8.557439
8.119941
7.824898
8.537769
9.179711
10.133982
9.440780
9.246469
11.332631
12.022853
11.601448
12.164712
11.862516
11.658669
12.273788
13.237000
13.358593
13.209581
13.051629
14.215708
15.235543
17.070770
17.193556
18.741488
22.095442
24.126768
26.418567
27.580857
28.598905
28.920770
25.900602
25.881529
24.424791
23.831725
19.948483
20.101666
19.584894
17.578602
17.161965
16.471744
16.256571
15.439987
16.490817
14.367700
15.216470
15.201569
14.560819
14.074445
14.710426
##ZVALUE=240
1.830459
1.917481
6.016493
14.125705
43.671727
80.460906
172.411799
258.891582
403.523445
484.083891
554.983616
565.071702
520.953536
429.199934
342.840552
220.416784
156.406760
109.022856
96.066594
102.607608
109.406710
115.430951
112.839937
103.418827
82.103610
69.341660
47.124624
34.509897
22.996664
15.915632
13.797879
10.932684
9.715557
10.641813
9.479523
9.358525
9.242892
9.579659
9.005666
10.089874
9.554625
9.115934
8.796453
7.377863
8.742809
9.263754
8.001924
8.316636
8.984804
8.391738
9.491444
9.684563
9.733438
10.741949
9.502769
10.891557
10.583997
10.685921
11.966825
11.575818
12.503862
12.185574
11.654496
12.809634
13.183951
13.632774
14.071465
16.011000
16.979575
19.931793
19.303560
22.163987
24.147630
26.324987
27.166605
29.438734
29.094815
29.778481
27.242899
25.578737
27.011633
23.757815
21.823645
21.863580
20.417571
19.102693
19.702911
18.679500
18.359423
18.927455
18.825531
17.189980
17.408729
16.917586
17.646551
17.813444
##ZVALUE=245
1.633763
1.622438
1.525879
1.846552
3.643632
13.212562
33.618808
89.414716
163.937807
268.491507
436.342955
563.610792
685.082674
710.754991
680.141449
595.883727
446.472764
335.721970
234.032869
144.714713
109.170675
106.158853
109.306574
132.443905
133.694410
125.571489
115.917921
94.646811
76.760650
55.646896
40.533543
25.656819
19.544959
11.386871
11.952519
10.194778
10.125637
9.805560
10.057688
8.718967
9.189844
8.004904
8.120537
7.983446
7.688999
7.559657
7.916689
8.286834
8.694530
7.626414
7.513762
9.325743
7.473826
8.589625
8.646846
8.205771
9.352565
8.884668
9.428859
9.862781
10.644794
10.716915
10.396838
11.565685
11.501908
12.586713
13.465881
14.597774
15.231967
15.500784
17.189980
20.433664
22.801757
24.548769
25.350451
25.615692
25.422573
24.821758
24.776459
22.326708
23.790598
22.273660
19.572973
19.586682
18.812418
17.867684
19.035935
17.142892
17.144680
16.556978
17.713904
16.898513
17.740726
16.475916
17.288923
17.758608
##ZVALUE=250
1.422763
1.499653
1.571774
1.404881
1.664758
1.738667
2.440810
7.270575
33.310652
70.202947
172.919631
290.007591
425.085425
620.166659
747.860670
849.599838
853.194594
763.649940
651.939511
453.561544
314.525962
204.291940
122.645497
101.366639
108.287930
120.594501
139.561892
143.738985
135.442615
127.574801
101.194978
84.802508
62.136650
40.464997
26.276708
17.112494
11.856556
9.257793
9.937882
9.013414
9.003878
8.728504
7.719994
7.597804
7.514954
7.127523
7.624626
7.839799
6.752610
7.124543
7.607937
7.710457
7.418990
7.174611
7.626414
8.146763
8.853674
8.409619
8.077621
8.348823
8.569956
8.729696
10.047555
9.700656
10.298491
10.648966
10.554790
12.101531
13.078451
14.386773
14.750957
17.083883
18.862486
20.109415
22.057891
20.778775
21.964908
20.281672
21.289587
19.974709
19.703507
20.279884
18.841624
18.448830
18.809438
16.276836
16.770959
16.678572
15.989542
17.500520
15.965700
16.230941
16.944408
16.851425
17.056465
15.663505
##ZVALUE=255
1.277924
1.413822
1.543760
1.591444
1.173615
1.486540
1.191497
1.493692
2.112985
4.304647
21.872520
55.444837
114.177465
250.583887
385.793447
607.955456
754.488707
917.147994
975.425839
921.033025
803.811550
648.619533
409.325957
262.472630
144.500732
103.513002
91.183782
104.033947
130.460858
140.958428
147.477984
144.407749
130.626559
106.120706
84.312558
56.781769
39.767623
23.261905
16.339421
9.370446
7.576942
7.653832
7.083416
6.338954
6.988645
6.759763
6.492734
7.074475
6.686449
6.665587
6.627440
6.268620
6.568432
6.651878
7.289648
7.318854
7.111430
7.313490
7.486939
7.594824
7.660985
7.183552
8.202791
7.855892
7.941723
8.805990
9.514689
9.629726
10.988712
12.165904
13.015866
15.083551
15.705824
17.427802
18.198490
18.682480
19.235611
17.386675
17.817616
16.713738
16.183853
15.812516
15.523434
15.198588
15.727878
14.929771
15.390515
14.936924
14.828444
15.198588
14.727712
14.524460
14.963746
15.731454
15.294552
14.838576
##ZVALUE=260
0.921488
1.032948
0.983477
1.389980
1.290441
1.309514
1.205802
1.355410
1.692772
1.451969
1.886487
2.776980
8.108616
35.069585
80.722570
196.892023
327.791572
547.174811
738.939643
956.290960
1015.871763
1015.871763
957.375765
787.462592
523.895621
359.020829
205.211639
128.113627
86.263418
84.719658
99.817514
128.372908
141.697526
150.065422
148.406625
127.031803
110.710859
79.380870
59.789419
36.841631
24.945736
14.291406
9.141564
6.919503
7.191896
6.130934
6.150603
6.129742
6.451607
6.266832
5.950928
5.986691
5.876422
6.184578
5.819798
6.019473
6.472468
6.131530
6.375909
6.598830
6.397963
7.203817
7.302761
7.488728
7.105470
8.364916
8.376837
8.718967
9.950995
10.435581
10.965466
12.819767
13.645887
13.683438
14.830828
14.661551
14.256835
15.120506
14.580488
14.772415
15.113950
14.381409
14.158487
13.720989
13.596416
13.011694
13.675690
13.211966
14.199615
13.609529
13.470650
13.879538
13.515949
14.268756
13.466477
14.327765
##ZVALUE=265
1.093745
1.024604
1.150966
1.066923
1.081824
1.301765
1.212955
1.260638
1.315475
1.288652
1.524687
1.828671
1.781583
2.421737
4.684925
25.280714
61.686635
156.200528
277.613997
524.372458
743.829012
966.031551
1015.871763
1015.871763
1015.871763
959.812999
709.138513
506.813526
281.920433
169.402957
102.142692
71.830750
79.950690
107.653737
127.142668
147.377849
150.181651
144.603848
131.483674
104.587674
84.367990
53.453445
35.431981
21.060705
13.314486
8.121729
6.368756
6.259680
6.085634
5.844831
5.995631
5.805492
6.380677
6.271601
5.961657
6.574988
6.187558
6.628633
6.422997
5.966425
6.264448
6.250739
6.561875
6.941557
7.030964
7.158518
7.129908
8.408427
8.485913
9.579659
10.552406
11.328459
11.905432
13.833642
13.296604
14.022589
14.036894
13.630986
13.620853
12.481809
13.308525
12.384653
12.032986
12.202859
12.068748
12.274981
11.550784
12.611747
12.180805
11.692643
12.765527
12.483597
12.689829
12.310743
12.865663
12.529492
##ZVALUE=270
1.119971
1.008511
0.992417
1.134872
0.969768
1.071692
1.119971
0.992417
1.003742
1.196861
1.201630
1.193881
1.449585
1.456738
1.726747
2.000928
2.664924
11.840463
35.759807
116.387606
230.492949
411.226749
721.834898
964.528918
1015.872955
1015.872955
1015.872955
1015.872955
925.157666
691.838861
474.979877
246.104598
138.824582
68.327785
63.043833
81.813931
104.054809
128.544569
142.794847
150.744915
146.654844
127.233863
108.239651
80.094934
56.116581
33.781528
22.932887
13.028979
9.231567
7.074475
6.086826
5.699992
5.814433
5.793571
5.998611
6.418824
6.244779
6.426573
6.044507
6.710887
6.703734
6.641746
6.783605
7.031560
7.167459
7.137656
7.662773
7.508993
8.712411
9.189844
9.814501
10.325909
11.347532
11.512637
12.478828
12.322664
12.737513
12.593865
12.198687
11.833906
10.765791
10.986924
11.212826
10.804534
10.695457
10.800958
10.503531
11.130571
11.599660
11.570454
10.978580
10.982752
10.772943
11.337996
11.045933
11.373758
##ZVALUE=275
0.900626
0.987649
0.920892
0.947714
1.038909
0.832677
1.002550
0.910759
1.181960
0.962615
1.337528
1.390576
1.155734
1.308918
1.526475
1.440644
1.640916
1.981854
2.113581
5.680919
21.940470
64.927936
198.254585
370.326042
686.959624
936.829448
1015.871763
1015.871763
1015.871763
1015.871763
1015.871763
873.583555
613.315701
326.475501
181.672573
80.779791
52.590966
59.179664
76.295733
103.974938
123.361945
142.906904
149.761438
141.868591
127.342939
102.386475
80.149770
55.701733
39.799809
22.366643
15.187860
9.320974
7.006526
6.279945
5.913973
5.982518
5.944967
6.312728
6.230474
6.280541
6.317496
6.232858
6.815791
6.690621
7.168651
7.381439
7.187724
7.088780
8.236766
9.060502
9.217858
10.308623
11.123419
11.556745
11.709929
11.927485
11.582971
11.286736
11.133552
10.551810
10.739565
10.196567
10.029674
10.363460
9.492636
10.165572
9.728670
10.400414
10.249615
9.606481
9.942651
9.845495
10.220408
9.647608
9.756684
10.725856
##ZVALUE=280
0.837445
1.060963
0.798702
0.878572
0.850558
0.863671
0.919700
0.890493
1.017451
1.038909
1.105666
1.078844
1.066923
1.303554
1.195669
1.373887
1.618862
1.510978
1.719594
2.016425
1.838803
2.682805
13.162494
45.455694
148.367882
282.290578
535.741448
798.127651
1015.874743
1015.874743
1015.874743
1015.874743
1015.874743
990.631580
740.167499
419.625640
243.676901
106.679797
55.435896
41.754842
53.127408
77.133775
98.528862
125.331879
137.472749
144.503713
140.004754
126.437545
104.320645
77.765584
57.577491
36.595464
24.000406
13.527870
9.395480
7.443428
6.556511
6.317496
6.355643
6.175637
6.815791
6.564856
6.431937
6.993413
6.678700
6.889701
7.528663
7.542968
8.430481
8.906722
8.992553
10.045767
9.951591
10.709763
11.401772
11.481643
11.077523
11.092424
10.244846
10.449886
10.325909
10.092854
9.300709
9.232759
8.990765
9.636879
9.441972
9.223819
9.924769
9.187460
9.494424
9.381771
9.581447
9.951591
9.376407
9.780526
##ZVALUE=285
0.763535
0.793934
0.859499
0.611544
0.765920
0.881553
0.834465
0.916719
0.897646
1.022816
1.081824
1.007915
0.805855
1.289845
1.169443
0.943542
1.118779
1.382828
1.239777
1.583695
1.486540
1.680851
1.917481
2.385974
7.005930
25.008917
87.462664
188.883543
418.159962
660.512447
998.347998
1015.871763
1015.871763
1015.871763
1015.871763
1015.871763
995.672941
632.459521
387.212634
174.855590
86.636543
37.392974
35.227537
51.778555
70.482492
100.502968
117.587447
137.162805
142.596960
137.549639
127.054453
103.073716
83.849430
57.210922
39.276481
23.521781
15.921593
9.540915
7.785559
6.995797
6.923676
6.750822
6.608963
6.642938
7.163882
7.244945
8.063912
7.672906
8.265972
8.534789
9.543896
10.085702
10.424852
10.500550
11.069775
11.039972
11.108518
11.038780
10.261536
10.339618
9.842515
9.931922
9.702444
9.201765
9.316802
8.947849
9.506941
9.438992
9.358525
9.161830
9.635687
9.358525
9.404421
9.008646
9.264946
9.742975
##ZVALUE=290
0.804663
0.629425
0.715852
0.795722
0.874996
0.692606
0.922680
0.909567
0.857711
0.993609
0.956655
0.930429
0.971556
0.996590
1.303554
1.228452
1.209974
1.215935
1.211762
1.460910
1.386404
1.496673
1.574755
1.611710
1.946688
2.419949
3.724694
12.233853
56.090951
132.248998
255.809426
537.186861
826.739669
1015.871763
1015.871763
1015.871763
1015.871763
1015.871763
1015.871763
947.525501
637.813807
316.218734
156.842470
54.623485
30.009747
34.661889
47.806501
70.212483
89.035630
115.494728
128.176808
140.799880
136.064887
120.454431
103.152990
77.982545
57.966709
37.127733
25.602579
15.054941
11.219978
8.377433
7.620454
7.243752
7.261634
7.435679
7.682443
8.293986
8.658767
8.923411
9.151697
10.204911
10.656714
10.896921
11.117458
10.908842
10.720491
10.756850
9.994507
9.617805
9.887815
9.301901
9.567738
9.350777
9.559989
9.073615
9.541512
9.375811
9.529591
9.476542
9.100437
9.049773
9.333491
8.977652
9.111762
9.206533
##ZVALUE=295
0.739694
0.689626
0.756979
0.682473
0.789762
0.792742
0.643730
0.761747
0.999570
0.712872
0.828505
0.727773
0.820756
1.013875
1.059771
1.187921
1.117587
1.193881
1.218915
1.190901
1.202822
1.587868
1.515746
1.282692
1.656413
1.831651
2.030730
2.194643
2.671480
5.489588
23.516417
96.703768
208.178759
462.414026
732.855797
1015.876532
1015.876532
1015.876532
1015.876532
1015.876532
1015.876532
1015.876532
892.908573
500.579476
279.898643
99.627972
41.531920
23.949742
29.744506
47.011971
62.751770
89.439750
105.225444
124.099851
130.349994
127.979517
118.694901
96.875429
77.829957
54.394603
39.813519
24.354458
16.955733
11.131763
8.764863
7.827878
7.733703
7.767677
8.067489
8.596778
9.077787
9.357929
10.130405
10.687709
10.341406
10.373592
10.055900
10.319948
9.949803
9.649992
9.560585
9.155869
9.068847
9.662509
9.290576
9.022951
8.952618
8.862615
9.060502
9.071827
9.196997
8.946657
8.958578
8.754730
8.948445
8.938909
##ZVALUE=300
0.679493
0.743866
0.697970
0.708699
0.758767
0.691414
0.659823
0.867844
0.924468
0.928640
0.827909
0.833869
0.938773
0.991821
0.969768
0.993609
0.930429
1.109838
0.985861
1.054406
1.013875
1.218915
1.179576
1.344681
1.324415
1.422763
1.351833
1.683831
1.929998
2.065897
2.216697
2.929568
8.964539
60.032010
153.074861
377.105474
622.810721
997.909904
1015.872955
1015.872955
1015.872955
1015.872955
1015.872955
1015.872955
979.132056
579.859614
351.086855
151.608586
68.414807
22.585988
18.016696
27.234554
38.516521
59.412718
77.562928
102.296472
115.939975
124.567747
122.803450
112.762451
98.179579
74.056983
57.528615
37.522912
25.677681
16.020536
11.791587
8.675456
8.568764
8.371472
8.840561
9.146929
9.364486
9.662509
10.112524
9.882450
10.208488
9.648800
9.629726
9.298921
9.364486
9.464622
9.068847
9.032488
8.641481
9.238720
8.801818
9.135604
9.030700
9.043813
8.868575
8.836985
8.609891
8.789897
8.400679
8.735657
##ZVALUE=305
0.594854
0.806451
0.711679
0.666976
0.596642
0.758767
0.692606
0.608563
0.821948
0.745654
0.786781
0.715852
0.765920
0.821948
0.788569
0.843406
0.856519
0.781417
0.876784
0.908971
0.926852
1.101494
1.037717
1.177788
1.221895
1.281500
1.232624
1.182556
1.582503
1.661777
1.900792
1.856685
2.054572
2.497435
4.711747
30.879974
94.666481
274.280906
496.534705
912.441611
1015.845537
1015.845537
1015.845537
1015.845537
1015.845537
1015.845537
1015.845537
702.901483
449.472666
210.677981
104.492903
33.798814
16.315579
17.545819
24.578571
39.477944
55.858493
77.622533
93.629956
111.627579
118.484497
116.677880
109.292865
91.316700
74.167848
50.269961
37.895441
24.143457
17.192960
12.062788
10.511875
9.757876
9.613633
9.709597
9.911656
9.832978
9.329915
8.986592
9.333491
9.480715
9.030700
9.305477
9.006858
8.886456
9.224415
9.158850
9.565949
9.153485
9.194613
8.980632
8.690953
8.508563
8.751750
8.356571
8.425713
8.114576
##ZVALUE=310
0.505447
0.506639
0.506639
0.576973
0.631809
0.459552
0.506639
0.494719
0.696778
0.534654
0.467896
0.734925
0.626445
0.641942
0.614524
0.736713
0.806451
0.686646
0.842810
0.804663
0.886917
0.934601
1.003742
0.869632
0.922680
0.998974
0.862479
1.056790
1.298785
1.198649
1.454949
1.535416
1.685619
1.810789
2.013445
2.227426
2.568960
11.912584
42.276978
151.660442
314.834714
679.371953
994.980931
1015.764475
1015.764475
1015.764475
1015.764475
1015.764475
1015.764475
880.727768
572.615862
284.256935
146.122575
49.552917
19.747615
12.676716
15.037656
23.054481
33.360720
51.167607
67.132711
88.078976
100.549459
111.460686
112.772584
103.049874
91.511607
72.729588
55.810809
36.951900
26.317835
17.776489
13.507605
10.938644
10.000467
9.555817
9.330511
9.201765
9.055734
8.820891
8.825660
9.301901
9.119511
8.941889
9.142756
8.844733
9.317994
9.168983
8.910894
8.602738
8.763671
8.790493
8.527637
8.077621
8.310676
8.737445
##ZVALUE=315
0.824928
0.659823
0.745654
0.690818
0.764728
0.799894
0.763535
0.806451
0.742674
0.788569
0.690818
0.828505
0.754595
0.795722
0.907779
0.883937
0.783801
0.838637
0.807643
0.818968
0.955462
1.040697
1.122952
1.040697
1.033545
1.163483
1.149774
1.263618
1.169443
1.188517
1.304746
1.261830
1.446605
1.571774
1.776814
1.996756
1.806617
2.462864
2.619624
4.616976
26.387572
78.066587
241.892934
460.921526
927.723646
1015.927792
1015.927792
1015.927792
1015.927792
1015.927792
1015.927792
1015.927792
726.795793
441.697836
199.219584
92.659593
26.383996
12.906790
11.845827
14.182925
21.618605
29.652715
47.151446
61.366558
82.081556
94.917417
104.158521
106.478930
97.457767
86.276531
66.908002
53.148866
36.870837
27.093887
18.096566
14.275908
11.044741
9.861588
9.165406
9.293556
9.000897
9.193420
9.007454
9.260774
8.976460
9.356737
9.537935
9.208918
9.123683
9.190440
9.010434
9.129643
8.980632
8.578897
8.554459
8.676648
##ZVALUE=320
0.613928
0.601411
0.589490
0.537634
0.650883
0.539422
0.491738
0.385642
0.755787
0.629425
0.818968
0.651479
0.711679
0.667572
0.586510
0.654459
0.709891
0.873804
0.981688
0.760555
0.743866
0.791550
0.892878
0.866652
0.878572
1.143813
0.891685
1.081824
1.178980
1.225471
1.208782
1.235604
1.251698
1.419783
1.410842
1.553893
1.686811
1.767874
1.910925
2.170801
2.488494
3.489852
9.763837
53.309798
136.197805
368.481874
664.209723
1015.871763
1015.871763
1015.871763
1015.871763
1015.871763
1015.871763
1015.871763
1015.871763
571.964979
311.587453
119.748712
52.858591
16.927719
10.756850
11.190772
13.630986
19.846559
27.420521
43.628812
57.270527
77.178478
90.269446
99.966526
101.200938
95.005631
85.275769
66.317916
52.834749
35.838485
25.914907
17.214417
13.583899
10.830760
9.712577
9.584427
9.376407
9.162426
9.146929
9.043813
8.916855
9.238720
9.267926
9.161830
9.093881
8.935928
8.884668
8.884668
8.672476
8.645654
##ZVALUE=325
0.664592
0.473857
0.582933
0.761747
0.563860
0.514984
0.579953
0.640750
0.519753
0.562668
0.597835
0.635982
0.732541
0.775456
0.882745
0.636578
0.667572
0.880957
0.779629
0.774860
0.823736
0.651479
0.624657
0.982881
0.973940
0.864863
1.031756
0.863671
0.916719
0.926852
1.019835
1.215935
1.397729
1.236796
1.218915
1.428723
1.510978
1.331568
1.734495
1.819730
1.955628
2.126694
2.261996
2.811551
5.850792
36.336780
98.839998
279.562473
506.602526
952.389836
1015.871763
1015.871763
1015.871763
1015.871763
1015.871763
1015.871763
1015.871763
760.462880
451.831818
192.053914
84.805489
22.666454
11.359453
9.743571
10.649562
13.638735
18.352866
28.119683
40.120482
59.125423
73.690414
88.799596
95.788836
95.753670
90.183616
77.499747
63.887835
46.822429
34.694672
22.975802
16.841888
12.449622
10.981560
9.866953
9.430647
9.409785
9.373426
9.015799
8.733869
8.891821
8.797646
8.808970
8.780956
8.609891
8.460879
8.306503
##ZVALUE=330
0.447631
0.646710
0.498891
0.562668
0.438690
0.523925
0.584722
0.575781
0.567436
0.542998
0.673532
0.698566
0.293851
0.544786
0.487566
0.678897
0.549555
0.716448
0.450611
0.540614
0.511408
0.799894
0.802875
0.546575
0.743866
0.640750
0.746846
0.711679
0.710487
0.817776
0.746846
0.912547
1.059771
0.983477
0.988841
1.119971
1.115799
1.153946
1.220703
1.247525
1.333952
1.583695
1.647472
1.984835
2.188683
2.408624
3.312826
16.086698
53.858757
181.676745
356.276631
715.990663
1013.427973
1015.794873
1015.794873
1015.794873
1015.794873
1015.794873
1015.794873
886.496902
571.253896
265.349746
132.977962
44.124722
16.069412
9.179711
9.421706
9.945631
12.801886
18.834472
25.883913
39.875507
52.195787
69.977641
80.642700
89.330673
89.859962
83.554983
74.278712
57.405829
44.753551
30.851960
23.572445
16.587973
13.461709
10.797977
9.807944
9.128451
8.751750
8.543730
8.441806
8.549690
8.318424
8.063912
8.163452
8.251667
##ZVALUE=335
0.503659
0.509620
0.494719
0.528693
0.424981
0.491738
0.618696
0.604987
0.471473
0.545979
0.593662
0.679493
0.616908
0.498891
0.559688
0.513792
0.650883
0.617504
0.569820
0.650883
0.704527
0.746846
0.798702
0.730753
0.619888
0.804663
0.794530
0.695586
0.954866
0.786781
0.838637
0.867844
0.987649
1.110435
0.964999
1.150966
1.110435
1.014471
1.126528
1.265407
1.256466
1.452565
1.563430
1.496673
1.588464
1.848936
1.997948
2.403855
2.581477
7.387996
28.033853
122.588873
271.356702
634.706020
984.839797
1015.874743
1015.874743
1015.874743
1015.874743
1015.874743
1015.874743
1000.775695
710.724592
368.297696
191.008449
62.793493
24.283528
10.840893
9.228587
9.855628
10.464787
13.448000
17.472506
27.116537
36.583543
52.816868
63.781738
76.342821
82.644820
84.344745
78.779459
65.981746
56.369901
43.440461
33.524632
23.339987
17.571449
12.536645
10.772943
9.387732
8.903742
8.349419
8.443594
8.307695
8.221865
8.241534
##ZVALUE=340
0.500679
0.587702
0.517964
0.438690
0.552535
0.501871
0.559688
0.645518
0.476837
0.412464
0.478625
0.441670
0.438690
0.540614
0.474453
0.673532
0.468493
0.505447
0.680685
0.609756
0.609756
0.733733
0.611544
0.686646
0.635982
0.810623
0.607967
0.685453
0.659823
0.716448
0.743866
0.930429
0.629425
0.803471
0.896454
0.942945
0.817776
0.967979
1.054406
1.229644
1.016855
1.193881
1.207590
1.309514
1.487732
1.358986
1.569986
1.757741
1.769662
2.121925
2.242923
3.460646
12.109876
64.597726
161.935687
424.971581
735.272765
1015.839577
1015.839577
1015.839577
1015.839577
1015.839577
1015.839577
1015.839577
872.735977
434.746742
234.285593
90.890527
34.792423
11.619925
9.540915
9.244680
9.269714
10.874867
12.614727
18.045902
24.076700
36.080480
46.204925
61.241984
71.392655
77.988505
78.356862
73.611736
65.958500
53.086877
43.088794
31.304955
23.523569
16.305447
12.532473
9.938478
8.752942
8.219481
7.758737
7.673502
##ZVALUE=345
0.528693
0.485778
0.540614
0.612736
0.539422
0.514984
0.442863
0.517964
0.563860
0.672936
0.545979
0.637770
0.500679
0.712872
0.386834
0.609756
0.617504
0.398755
0.543594
0.570416
0.711679
0.494719
0.574589
0.655651
0.644922
0.845790
0.689626
0.831485
0.643730
0.770688
0.728965
0.796914
0.827909
0.646710
0.678897
0.874996
0.726581
0.779629
0.903606
1.020432
0.937581
1.265407
0.895858
0.970960
1.239777
1.136661
1.212955
1.370907
1.508594
1.550913
1.578927
2.016425
2.238750
2.595782
5.711913
37.397742
104.246736
279.598832
501.216650
931.505561
1015.871763
1015.871763
1015.871763
1015.871763
1015.871763
1015.871763
1005.299687
577.862859
325.239897
131.283402
55.082440
16.819835
10.550618
9.431839
8.883476
9.233952
9.207726
11.500716
15.195608
22.759438
31.536818
44.922829
54.201484
65.289736
70.600510
72.587729
69.611669
62.594414
53.867698
40.852427
31.609535
21.461844
16.745925
12.123585
9.874701
8.323789
##ZVALUE=350
0.483990
0.321865
0.491738
0.577569
0.567436
0.535846
0.301600
0.130534
0.585914
0.495911
0.596642
0.514984
0.457764
0.539422
0.458956
0.379682
0.489950
0.411868
0.570416
0.617504
0.519753
0.709891
0.545979
0.612736
0.671744
0.642538
0.579953
0.617504
0.724792
0.710487
0.700951
0.590682
0.591874
0.717640
0.763535
0.752807
0.652671
0.782609
0.848770
0.903606
0.833869
0.969768
1.056790
1.027584
0.982881
1.116991
1.317859
1.156926
1.284480
1.494884
1.578927
1.620650
1.558661
1.825690
1.915693
2.446771
3.471971
18.387437
63.442588
208.300948
402.166843
797.419548
1015.833616
1015.833616
1015.833616
1015.833616
1015.833616
1015.833616
1015.833616
749.916434
449.749827
197.654963
85.927844
22.803545
10.885000
8.621812
8.202791
7.908940
7.848740
8.549690
10.693669
15.223622
19.707680
28.406978
37.242770
48.811436
57.301521
64.164996
66.817999
64.460635
59.254766
48.514605
40.264726
29.746890
22.968650
16.144514
##ZVALUE=355
0.543594
0.501871
0.428557
0.560880
0.424981
0.450611
0.562668
0.554919
0.478625
0.660419
0.532866
0.651479
0.543594
0.677705
0.638962
0.538826
0.556707
0.667572
0.653863
0.548959
0.595450
0.814795
0.760555
0.532866
0.616908
0.703931
0.706911
0.707507
0.660419
0.759959
0.732541
0.744462
0.766516
0.876784
0.833869
0.834465
0.810623
0.883937
0.903606
0.907779
0.932813
0.975728
0.852942
0.956655
1.084805
1.053810
1.124740
1.145601
1.208782
1.305938
1.432896
1.560450
1.729727
1.711845
1.820922
2.015829
2.088547
2.563596
2.841949
10.077953
38.323402
149.405599
301.715732
625.900626
961.784720
1015.871763
1015.871763
1015.871763
1015.871763
1015.871763
1015.871763
981.146693
640.091896
278.049707
126.730800
34.158826
13.235807
8.641481
8.085966
7.645488
7.573962
7.628798
8.132458
9.707808
12.320876
18.185973
24.084449
33.676624
41.831732
52.064657
57.108998
60.286522
59.039593
53.667426
46.660900
36.989450
##ZVALUE=360
0.522733
0.496507
0.591874
0.533462
0.418425
0.441670
0.582933
0.503659
0.622869
0.570416
0.650883
0.460744
0.636578
0.677705
0.745654
0.553727
0.484586
0.594854
0.636578
0.790954
0.623465
0.564456
0.630617
0.599623
0.738502
0.564456
0.816584
0.635982
0.647902
0.786781
0.885725
0.825524
0.718832
0.661612
0.870824
0.770688
0.879765
0.879765
0.653863
0.846982
0.930429
0.969768
0.891685
0.987649
1.029968
1.104474
1.217723
1.124740
1.133680
1.244545
1.263618
1.328588
1.560450
1.546741
1.691580
1.667738
1.738667
1.926422
2.288818
2.509952
2.433658
4.378557
15.761852
78.428388
194.015503
479.278564
784.931779
1015.871763
1015.871763
1015.871763
1015.871763
1015.871763
1015.871763
1015.871763
769.881606
391.731858
204.486847
71.108937
24.811625
8.918643
7.925630
7.597804
7.251501
7.119775
6.991625
7.634759
8.192658
10.798573
13.937950
20.276904
27.124882
37.274957
43.912530
52.238703
54.506660
54.227710
##ZVALUE=365
0.514984
0.546575
0.634789
0.583529
0.543594
0.458956
0.577569
0.629425
0.651479
0.602603
0.652671
0.572801
0.543594
0.644922
0.543594
0.713468
0.534654
0.625849
0.539422
0.559688
0.555515
0.692606
0.650883
0.585914
0.728965
0.727773
0.761747
0.782609
0.637770
0.765920
0.809431
0.774860
0.671744
0.701547
0.763535
0.851750
0.782609
0.809431
0.838637
0.930429
0.896454
0.802875
0.979900
1.051426
1.057982
0.944734
1.012683
1.162887
1.135468
1.313686
1.338720
1.133680
1.252890
1.495481
1.561642
1.459718
1.629591
1.735687
1.900792
1.817942
2.330542
2.388954
2.660751
3.322959
7.192492
44.402480
122.504830
326.911807
611.099005
1015.871763
1015.871763
1015.871763
1015.871763
1015.871763
1015.871763
1015.871763
893.750787
492.208004
270.060897
98.387003
37.554502
10.710955
7.748604
7.234812
6.967783
6.590486
6.482601
6.334782
6.788969
7.326603
9.025931
12.703538
16.783476
23.560524
30.075908
38.834810
##ZVALUE=370
0.538826
0.608563
0.514984
0.610948
0.613928
0.562668
0.520945
0.567436
0.446439
0.531673
0.605583
0.612736
0.514984
0.571609
0.779629
0.661612
0.743866
0.758767
0.644922
0.670552
0.462532
0.568628
0.571609
0.680685
0.840425
0.612736
0.578761
0.355840
0.604987
0.707507
0.780821
0.820756
0.794530
0.779629
0.860691
0.872612
0.843406
0.772476
0.631809
0.898838
0.936985
1.037717
1.031756
0.949502
1.059771
0.933409
0.970960
0.811815
0.890493
1.069903
0.991821
1.156926
1.216531
1.221895
1.266599
1.266599
1.422763
1.660585
1.561642
1.755953
1.757741
2.139807
2.089739
2.566576
2.766848
3.272891
4.937649
26.356578
88.673830
295.478702
556.260943
990.997553
1015.871763
1015.871763
1015.871763
1015.871763
1015.871763
1015.871763
1015.871763
621.562600
337.737799
127.473474
55.450797
17.011762
8.698702
7.111430
6.832480
6.323457
6.412864
5.970597
5.637407
6.032586
6.308556
8.096695
10.532737
15.360713
##ZVALUE=375
0.484586
0.593662
0.604987
0.604987
0.670552
0.624657
0.400543
0.674725
0.678897
0.452995
0.535846
0.597835
0.462532
0.598431
0.559688
0.674725
0.629425
0.561476
0.567436
0.730753
0.569820
0.558496
0.554919
0.571609
0.606775
0.764728
0.705719
0.688434
0.740886
0.814795
0.736713
0.730753
0.671744
0.660419
0.648499
0.746846
0.859499
0.692606
0.880957
0.914931
0.824928
0.750422
0.895858
0.910759
0.948906
0.897646
0.976920
1.001954
0.850558
1.077652
1.193881
1.157522
1.051426
1.277924
1.031756
1.237988
1.159906
1.294613
1.368523
1.463890
1.628995
1.563430
1.814961
1.915693
2.187490
2.445579
2.747774
3.170967
4.225969
11.720657
69.351792
180.037022
472.301841
843.760967
1015.881896
1015.881896
1015.881896
1015.881896
1015.881896
1015.881896
1015.881896
928.890705
505.019426
277.369618
104.592443
41.838884
11.023879
7.284880
6.538630
6.404519
6.065965
5.776882
5.600452
5.365610
5.314946
5.770922
##ZVALUE=380
0.551939
0.455976
0.480413
0.515580
0.404716
0.380874
0.534654
0.492930
0.506639
0.575781
0.525713
0.599623
0.575781
0.528693
0.586510
0.617504
0.445843
0.641942
0.543594
0.544786
0.636578
0.553727
0.592470
0.591874
0.520945
0.623465
0.652671
0.613928
0.576973
0.668764
0.535846
0.561476
0.696778
0.530481
0.783801
0.849962
0.824928
0.760555
0.721812
0.758767
0.779629
0.729561
0.620484
0.855923
0.559688
0.696778
0.795722
0.950694
0.872612
0.779629
0.854731
0.658631
0.798702
1.012683
0.995994
1.112819
1.137853
1.159906
1.099706
1.257658
1.238585
1.209974
1.345873
1.485944
1.539588
1.595616
1.878738
2.167821
2.484918
2.925992
3.228784
5.707741
21.773577
111.309886
262.342691
618.770719
975.293517
1015.871763
1015.871763
1015.871763
1015.871763
1015.871763
1015.871763
1015.871763
797.075629
381.531715
191.100836
61.423779
22.157431
8.078814
6.239414
5.880594
5.624890
5.222559
5.240440
5.023479
##ZVALUE=385
0.382662
0.373721
0.407696
0.563860
0.465512
0.386834
0.433922
0.261664
0.562668
0.472665
0.512600
0.419617
0.388622
0.475645
0.573993
0.498891
0.460744
0.460744
0.385642
0.436902
0.470877
0.506639
0.486970
0.458956
0.526905
0.627637
0.491738
0.539422
0.550747
0.519753
0.432730
0.506639
0.582933
0.626445
0.577569
0.562668
0.466704
0.616908
0.801682
0.636578
0.594854
0.714660
0.771880
0.717640
0.769496
0.616908
0.767708
0.724792
0.677705
0.782609
0.796914
0.998974
0.927448
0.827909
0.939965
0.835657
0.880957
1.170635
1.082420
1.115799
1.141429
1.004934
1.129508
1.344681
1.296997
1.422763
1.432896
1.872778
1.950860
2.502799
2.699494
2.916455
3.419518
3.708601
10.085702
62.434673
168.028474
436.934829
783.758759
1015.871763
1015.871763
1015.871763
1015.871763
1015.871763
1015.871763
1015.871763
1015.871763
614.695549
339.035988
129.866600
48.190951
11.061430
6.242990
5.573630
5.387664
4.988909
##ZVALUE=390
0.361800
0.497699
0.431538
0.456572
0.297427
0.489950
0.451803
0.469685
0.477433
0.486970
0.395775
0.416636
0.634789
0.642538
0.524521
0.509620
0.560880
0.512600
0.422597
0.726581
0.407696
0.561476
0.449419
0.503659
0.515580
0.543594
0.612736
0.471473
0.514984
0.511408
0.746846
0.646710
0.674725
0.625849
0.553727
0.662804
0.624657
0.628829
0.568628
0.546575
0.564456
0.437498
0.475645
0.620484
0.752807
0.713468
0.705719
0.601411
0.577569
0.669956
0.693798
0.765920
0.863671
0.852942
0.706911
0.767708
0.803471
0.910759
0.892878
0.847578
0.753999
1.003742
0.977516
1.042485
1.224875
1.344681
1.388788
1.567602
1.688600
1.816750
2.134442
2.136827
2.368689
2.393723
2.645850
2.932549
5.089641
31.571984
102.816820
322.073698
614.327788
1015.871763
1015.871763
1015.871763
1015.871763
1015.871763
1015.871763
1015.871763
1015.871763
795.446634
457.585454
182.809830
79.559684
19.225478
7.505417
5.169511
##ZVALUE=395
0.478625
0.436902
0.481606
0.405908
0.388622
0.370741
0.317693
0.459552
0.417829
0.503659
0.286698
0.400543
0.319481
0.265837
0.315905
0.509620
0.447631
0.534654
0.365973
0.470877
0.272989
0.460744
0.372529
0.454783
0.480413
0.403523
0.428557
0.448823
0.581741
0.541806
0.585914
0.572801
0.574589
0.586510
0.581741
0.530481
0.595450
0.549555
0.576973
0.548959
0.626445
0.618696
0.665784
0.603795
0.531673
0.445843
0.668764
0.700951
0.690818
0.668764
0.726581
0.815988
0.509620
0.709891
0.720620
0.837445
0.821948
0.855923
0.916719
0.901818
0.927448
0.931621
0.906587
0.990629
1.066923
0.960827
1.209974
1.455545
1.704693
1.832843
1.891851
2.022982
2.098680
2.105832
2.048612
2.197623
2.262592
2.448559
3.314614
17.420650
67.113638
235.831738
449.295640
837.814808
1015.871763
1015.871763
1015.871763
1015.871763
1015.871763
1015.871763
1015.871763
919.668078
566.323996
240.730643
107.168555
30.287504
##ZVALUE=400
0.433922
0.367761
0.397563
0.379682
0.480413
0.461936
0.465512
0.399947
0.437498
0.385642
0.624657
0.473857
0.373721
0.447631
0.373721
0.436902
0.506639
0.446439
0.308752
0.332594
0.488758
0.463724
0.562668
0.443459
0.483990
0.557899
0.431538
0.464916
0.423789
0.568628
0.574589
0.476837
0.551939
0.561476
0.602603
0.547767
0.557899
0.409484
0.464916
0.628829
0.611544
0.512600
0.651479
0.574589
0.688434
0.600815
0.638962
0.675917
0.696778
0.715852
0.742674
0.744462
0.719428
0.759959
0.744462
0.585914
0.750422
0.775456
0.939965
0.858903
0.901818
0.928640
0.722408
1.039505
1.122952
1.029968
1.102686
1.496673
1.620650
1.812577
1.719594
1.939535
1.776814
1.982450
1.767874
1.993775
1.937747
1.874566
2.133846
2.572536
2.748966
10.074973
39.902925
147.283673
317.497849
683.249831
1002.202630
1015.871763
1015.871763
1015.871763
1015.871763
1015.871763
1015.871763
1015.871763
709.283948
354.640484
##END
