##TITLE=QP00652
##FORMAT=SPECTACLE-ASCII V-1.2
##DATA TYPE=ULTRAVIOLET SPECTRUM
##SECOND TYPE=ULTRAVIOLET SPECTRUM
##DATE=01/30/18
##TIME=16:04:54
##SPECTROMETER/DATA SYSTEM=SPECTACLE
##XUNITS=NM EM
##YUNITS=ENERGY
##YFACTOR=1
##FIRSTX=220
##LASTX=410
##NPOINTS=96
##3DDATA=Equidistant
##ZUNITS=NM EX
##FIRSTZ=210
##LASTZ=400
##ZPOINTS=39
##XYDATA=(Y..Y)
##ZVALUE=210
1.575947
1.847744
1.812577
2.322793
2.079606
2.134442
2.714992
2.355576
2.124906
3.078580
2.195835
2.073646
2.078414
2.203584
2.381802
2.152920
2.339482
2.757907
2.943873
2.981424
3.360510
3.609657
3.382564
3.498793
4.158616
4.188418
4.760623
4.240870
4.766583
4.180670
4.936457
4.381537
5.627871
5.315542
6.093979
5.574822
5.104542
5.290508
6.329417
5.348921
6.191730
5.926490
7.465482
6.359816
6.811619
7.215738
7.321835
8.068681
7.506609
7.636547
8.249879
7.415414
7.926822
8.446574
8.395910
7.432699
8.204579
7.936954
8.409619
8.939505
8.443594
9.083748
9.595752
9.271502
9.854436
8.399487
10.839701
11.336803
13.386607
15.040636
19.585490
21.341443
25.757551
28.680563
31.604767
32.212734
34.812689
34.884810
35.917759
35.616755
31.086802
29.088855
24.914742
23.536682
20.059943
16.171932
12.876987
10.340810
10.190606
8.714795
9.634495
9.370446
8.995533
9.267926
9.521842
9.302497
##ZVALUE=215
5.192757
6.229877
6.044507
5.330443
4.198551
4.169941
4.917979
4.843473
4.008412
4.382730
4.819632
4.885793
3.651977
3.083944
3.072619
2.654791
3.248453
2.958775
3.454685
3.252625
3.647804
3.493428
4.073977
3.870726
4.415512
5.345941
4.429817
5.004406
4.722476
5.598664
4.925728
5.031824
5.093813
5.892515
5.960464
5.513430
6.868839
5.862713
6.281734
6.116629
6.228685
7.493496
6.724596
7.148981
7.325411
7.045865
7.126927
8.483529
8.164644
7.900596
7.221699
8.290410
8.331537
8.766651
8.440614
8.510947
9.372830
9.261966
9.697676
9.216666
9.392500
10.546446
10.570884
10.201931
9.208918
10.738969
11.305809
11.871457
13.604760
15.348792
18.365979
21.197796
23.599863
27.907491
29.314756
29.953718
33.238530
29.328465
30.631423
28.799772
28.247833
25.303960
21.506548
18.708706
16.730428
14.880896
13.157725
11.293888
10.132790
9.359717
9.824634
9.420514
9.792447
7.961988
9.974837
8.907914
##ZVALUE=220
21.833777
24.012923
23.321509
23.907423
21.471977
18.755794
15.327930
13.583899
11.007786
10.442734
10.546446
11.287928
11.491776
10.177493
9.012818
6.513596
5.988479
4.137754
3.397465
3.502965
3.463626
3.867745
4.065633
4.882812
4.312992
4.259944
5.068779
5.409718
5.466938
4.893541
5.944967
5.971789
6.290674
6.641746
6.056428
6.545782
6.779432
6.682873
6.167889
6.646514
6.323457
6.998777
7.215738
7.696748
7.144809
8.165836
7.166862
8.167624
7.384419
8.165836
8.608699
9.113550
8.784533
8.188486
8.677840
8.300543
9.833574
10.550618
8.641481
8.545518
9.479523
10.292530
10.233521
9.106994
10.051727
10.472536
10.651946
12.874603
13.116598
14.364719
16.642809
21.615624
22.843480
24.374723
25.895834
29.053688
27.939677
28.658509
28.410554
25.561452
27.239919
23.470521
23.036599
20.136833
16.528964
13.825893
13.885498
11.166930
10.578632
9.582639
9.647608
9.789467
9.190440
8.837581
8.880496
8.577704
##ZVALUE=225
38.190484
37.110448
51.430464
67.348480
71.566701
75.145960
68.489909
56.286454
45.115948
31.018853
26.323795
23.626685
22.162795
24.623871
25.821924
24.489760
22.362471
17.264485
13.050437
8.970499
6.333590
5.182624
4.421473
4.992485
5.649924
5.216599
5.005598
5.660653
5.412698
5.601645
6.456971
6.325841
6.663799
6.669760
6.569624
6.413460
6.488562
6.392598
7.619858
7.181764
7.099509
7.674694
7.634759
7.885695
7.864833
8.233786
7.556677
7.737875
7.808805
8.269548
8.846521
8.308887
9.244680
9.268522
8.748770
9.288788
8.754730
10.018945
8.335710
10.360479
9.649992
10.782480
10.545850
11.026859
9.683967
10.230541
10.052919
12.402534
12.129545
15.128851
16.115904
19.335747
20.413995
24.248958
24.396777
26.116967
24.340749
24.627447
23.749471
20.854473
22.129416
20.284653
19.068718
16.875863
15.443563
12.475848
13.474822
11.260509
10.660887
10.146499
9.584427
10.032654
10.377765
10.301471
9.895563
8.944869
##ZVALUE=230
32.258630
36.945939
60.759783
102.051497
133.742690
170.888901
193.332434
187.235475
172.413588
145.120621
95.257759
70.821643
48.334599
44.542551
46.405792
50.723553
50.968528
50.382614
46.093464
35.142899
29.535890
19.028783
12.551546
9.396672
6.894469
5.538464
5.967617
5.626678
6.448627
7.241964
6.663799
6.143451
7.582903
6.883740
7.227659
7.129908
6.785989
6.507635
7.082820
7.470846
7.977486
7.694960
7.514954
8.348823
8.013844
7.005930
7.950664
7.499456
8.611679
9.790659
9.162426
9.516478
10.211468
8.779764
9.213686
9.864569
11.031628
9.562969
9.502769
10.347962
9.697676
11.342764
10.383725
10.994673
12.685657
11.812449
12.344718
15.621781
15.627742
17.589927
19.365549
22.058487
23.867488
24.031997
25.835633
26.980639
27.233958
23.951530
25.531650
23.142695
21.436810
20.647645
20.385981
17.064810
16.564727
15.069842
14.858842
13.193488
14.057755
12.794733
13.291836
12.279749
12.351871
11.920929
12.050867
12.933612
##ZVALUE=235
11.722445
14.024973
36.105514
69.689751
130.038857
187.988877
274.096727
328.918695
361.357927
358.605981
324.933529
262.335539
203.351974
134.500861
100.184679
74.937940
74.171424
77.384710
84.278584
85.040927
80.677867
67.415833
50.496459
37.951469
25.308728
18.324852
11.675954
8.096695
7.761717
7.531643
7.659793
8.619428
6.864667
8.248687
8.374453
8.053780
7.857680
8.222461
7.859468
7.243752
7.758737
7.866621
7.810593
7.490516
7.506609
8.389950
10.417700
8.557439
8.428693
9.334683
9.954572
9.066463
9.958744
9.330511
9.759665
9.941459
10.621548
11.643767
11.208653
11.420846
11.665821
13.026595
12.491941
13.863444
12.359619
14.258623
13.594627
16.875863
16.769767
19.744635
20.791888
24.155974
24.323463
28.159618
29.507875
29.132962
27.964711
27.044415
26.971698
25.155544
24.015903
23.772717
21.187663
21.225810
19.332767
19.812584
18.110871
18.248558
18.195510
16.363859
17.584562
18.154979
17.267466
16.242862
16.321540
15.361905
##ZVALUE=240
2.191663
1.986623
6.362796
24.178624
52.341819
116.605759
184.495449
313.391685
420.763493
509.527922
582.987666
587.146878
522.890687
440.935493
324.347615
226.926804
147.581697
110.334754
94.721913
98.335743
109.546781
115.703940
111.809969
100.459456
83.221793
62.416792
49.785972
31.641722
23.045540
15.922785
12.474656
12.085438
11.072755
9.992719
9.919405
9.911656
9.484887
9.593964
8.832812
9.062886
8.337498
9.322762
9.124875
9.101629
8.875728
9.898543
8.949637
10.394454
10.044575
10.025501
10.531545
9.754896
11.194944
10.272861
10.354519
11.253953
10.669827
12.058616
12.272000
12.070537
11.966825
14.652610
13.423562
13.740659
15.108585
14.569759
15.156865
17.121434
19.155741
19.698739
21.215677
25.475621
27.842522
30.982494
30.439496
30.803680
29.374957
30.872822
28.906465
30.786991
26.487708
25.370717
25.534630
21.545887
21.064878
20.481944
21.774769
20.123720
20.929575
20.004511
21.236539
19.714832
19.882917
19.367933
19.802451
17.917752
##ZVALUE=245
1.944900
1.771450
1.815557
2.104640
4.019737
16.360879
40.145516
105.320811
200.153589
393.236876
580.365658
756.594539
931.458473
993.426442
938.513875
818.199515
592.252612
435.047746
259.427428
159.997940
111.217499
104.406476
117.546916
130.589604
132.753849
127.802491
116.522908
94.294548
81.373453
54.180622
40.393472
27.056932
19.332767
14.252663
12.787580
10.749698
11.043549
10.142922
10.471940
9.843707
10.080934
9.318590
9.506941
9.166598
8.472800
8.567572
10.100603
9.598732
9.991527
9.299517
8.964539
9.701848
8.988976
9.945631
10.699630
10.389686
10.727644
10.776520
11.516809
11.824965
11.430979
13.333559
12.207627
13.187528
13.367534
14.917850
14.736652
16.442537
17.351508
19.691586
21.724701
24.970770
25.990605
28.110743
30.981898
31.524897
29.912591
29.853582
27.109981
27.728677
25.663972
25.846958
23.701787
22.209883
22.207499
22.010803
21.738410
20.352602
20.397902
21.168590
20.630956
21.025538
20.169616
19.495487
19.473433
18.748641
##ZVALUE=250
1.441836
1.232624
1.472831
1.569986
1.570582
1.943707
2.749562
7.746816
33.104420
79.150796
207.864642
355.656743
540.090799
787.537694
932.385921
1015.871763
1004.225612
868.266821
723.987818
472.283959
314.891934
203.650594
121.499896
100.740790
107.060671
125.425458
136.296749
141.101480
137.687922
124.982595
106.490850
81.842542
60.320497
39.408803
28.636456
16.068816
12.980700
9.965897
9.502769
8.837581
9.095669
7.733703
7.999539
7.928610
7.886887
6.302595
7.589459
7.476807
7.201433
8.190870
7.484555
7.440448
8.206964
8.248687
8.091927
8.322597
7.803440
8.111596
8.468628
8.701682
8.966923
9.828806
9.348989
10.204911
10.282993
10.734797
11.389852
11.461973
13.589859
15.009642
17.452836
18.072724
19.621849
21.766424
22.036433
22.996664
22.856593
23.414493
22.487640
21.888614
20.787716
20.054579
19.435883
18.635988
18.678904
18.835664
17.515421
18.800497
17.834902
18.901825
18.080473
17.694831
18.063784
17.619729
17.485619
16.402602
##ZVALUE=255
1.240969
1.256466
1.248717
1.346469
1.442432
1.550913
1.510978
1.497865
2.375841
4.464984
21.391511
55.492520
113.538504
242.686868
375.017524
587.825775
727.064013
881.608725
937.082767
890.797973
777.112842
629.513860
403.023958
263.041854
143.950582
106.460452
94.329715
102.961659
126.877427
139.699578
146.510601
140.591860
126.337409
102.129579
81.784725
53.019524
40.200949
22.541881
15.538931
10.153651
8.155704
7.399917
6.574988
6.973743
7.200837
6.461740
6.968975
6.886721
6.904602
6.724596
6.813407
7.041693
6.353855
7.092953
7.550716
6.747842
7.680655
7.527471
8.607507
8.205771
8.250475
8.618832
8.019805
9.040833
9.380579
10.205507
10.316968
11.429787
12.632608
13.313890
14.232993
16.719699
17.374754
19.238591
20.200610
20.718575
19.270778
19.323826
19.511580
18.711686
17.478466
16.994476
17.229915
17.271638
16.127825
16.931891
16.931891
16.162992
16.545653
17.223954
16.285777
15.517473
16.093850
16.387701
17.113686
15.727878
##ZVALUE=260
1.038909
0.914931
1.063943
1.087785
1.181960
1.260638
1.299977
1.296997
1.370907
1.769662
1.758933
3.218651
13.558865
57.251453
124.989748
273.030996
422.270894
644.068718
821.001530
1001.921892
1015.871763
1015.871763
958.198905
785.747766
532.009006
362.419486
210.436583
128.641725
86.851716
83.977580
98.171830
123.242736
138.284564
149.993896
146.368742
129.157901
110.345483
78.478456
59.162974
34.691691
24.070740
13.244748
8.553863
6.454587
6.261468
6.227493
6.027818
6.052852
5.994439
6.042719
6.754994
5.801916
6.547570
6.179810
6.445646
6.257892
6.999969
6.544590
6.815791
6.429553
6.841421
7.054806
7.330775
7.381439
7.732511
7.863641
8.477569
9.094477
9.806752
11.060834
12.302995
13.103485
14.557838
14.563799
15.648603
16.002655
16.134977
15.396476
16.365647
15.311837
15.210509
14.706850
14.302731
14.567971
14.083982
14.247894
14.665723
14.749765
14.803410
14.711618
14.282465
15.470982
15.343428
14.471412
14.238954
14.302731
##ZVALUE=265
1.236796
1.194477
1.351833
1.310706
1.153946
1.442432
1.323819
1.384616
1.397729
1.458526
1.691580
2.049804
1.921654
2.335906
5.446672
31.700730
79.227686
201.257467
338.816643
610.059500
830.344558
1006.113887
1016.068459
1016.068459
1016.068459
987.751484
735.045671
521.677732
284.682512
172.634721
104.863644
71.892738
78.460574
105.750561
127.878785
145.634413
152.341723
144.124627
128.375888
103.919506
81.519485
53.552985
37.133694
21.399856
13.768673
8.331537
6.925464
6.268620
6.209612
6.301999
5.804896
5.853772
6.302595
6.104708
6.248951
6.464720
6.329417
6.260872
6.669760
6.914735
6.542802
6.850958
7.527471
7.159710
7.929802
7.795691
8.266568
8.218884
9.900928
10.032654
10.384917
11.730790
13.483763
13.969541
14.085770
14.511943
14.175773
14.808774
14.191866
13.441443
13.473630
12.698770
12.950897
12.730956
12.958646
13.026595
13.238788
13.435483
13.378859
13.595819
13.415813
13.647676
14.017820
13.561845
13.284683
14.052987
##ZVALUE=270
0.986457
0.911951
1.066923
0.832677
0.977516
0.806451
0.990629
1.010895
1.090765
1.105666
1.289845
1.438856
1.655817
1.536608
1.780987
1.937747
2.634525
11.215806
33.471584
112.249851
227.872729
397.620797
714.119673
972.231030
1015.872955
1015.872955
1015.872955
1015.872955
900.911689
672.547817
407.172441
244.949460
137.212873
67.209601
61.749816
82.315803
102.368593
129.444003
144.017935
149.939656
147.080421
128.497481
106.725693
76.650977
56.241751
34.107566
23.015738
12.564659
8.879900
6.731749
6.125569
5.998611
5.871654
5.220771
5.848408
6.167889
5.983710
6.513000
6.513000
6.400943
6.321669
6.995797
6.370544
6.837845
7.101893
7.582903
7.594824
7.950664
7.959604
9.530783
9.780526
10.764599
11.891723
12.966990
12.730956
12.886524
12.811422
12.162924
12.698770
12.223721
11.772513
11.681914
12.032986
11.800528
11.002421
11.954904
12.326837
12.056828
11.896491
12.208819
11.464953
12.416840
12.174845
12.232661
11.487603
12.626648
##ZVALUE=275
0.773668
1.138449
0.915527
1.049638
0.760555
0.910759
0.829697
0.787973
0.754595
0.928640
1.162887
1.109838
1.094937
1.214743
1.330972
1.450777
1.540780
1.743436
1.961589
4.899502
19.402504
58.286786
173.204541
334.540606
638.724566
877.775550
1015.839577
1015.839577
1015.839577
1015.839577
1015.839577
884.663463
630.638003
336.998701
189.374685
81.070662
53.473711
58.731437
75.743794
102.841854
123.196840
143.414736
148.886442
143.452883
127.142668
102.273822
80.957413
55.203438
38.595796
23.160577
14.458895
8.827448
6.924868
5.713701
5.812645
5.554557
5.982518
6.094575
6.208420
6.720424
6.490946
6.584525
6.904602
6.968975
7.178783
7.143617
7.567406
7.934570
8.137822
8.892417
9.719729
10.319948
11.102557
11.428595
12.037754
12.494922
12.303591
11.802912
12.559891
11.778474
11.376739
11.445880
10.969639
10.996461
11.194944
10.946989
11.322498
11.054873
11.296868
11.140704
11.460781
11.589527
11.512637
11.608601
11.640787
11.864901
##ZVALUE=280
0.946522
0.936985
0.834465
0.935793
0.851750
0.854731
0.814795
0.780821
1.016855
0.917912
1.081824
1.250505
1.031756
0.979900
1.198649
1.355410
1.441836
1.625419
1.498461
1.698732
1.717806
2.433658
13.351440
45.005679
143.072605
272.219777
518.068671
762.144923
1015.866995
1015.866995
1015.866995
1015.866995
1015.866995
1009.963751
779.534578
451.499820
268.260837
117.293000
60.710907
42.223930
52.827597
77.469945
99.756718
123.992562
139.709711
145.031810
139.187574
122.881532
104.013681
77.482462
57.864785
36.179423
23.730993
13.964772
9.360909
6.998777
6.463528
5.693436
6.086826
6.699562
6.468892
6.467700
6.830692
7.004738
6.732941
7.723570
7.387996
7.952452
8.599758
8.887649
9.525418
10.166764
10.373592
11.145473
11.217594
12.206435
12.013912
11.608601
10.966659
11.218786
10.897517
10.998845
10.283589
10.381937
11.331439
11.171699
10.418892
10.944605
10.461807
10.702610
10.877848
10.510683
10.395646
10.436773
10.870695
10.401607
##ZVALUE=285
0.798702
0.705719
0.814795
0.712872
0.690818
0.618696
1.031756
0.826716
0.807643
0.998974
0.967979
0.955462
0.870824
0.931621
0.973940
1.065731
1.090765
1.065731
1.234412
1.438856
1.376867
1.620650
1.768470
2.201796
6.522536
22.907853
82.109571
171.223879
378.577709
604.672432
857.277513
1015.864015
1015.864015
1015.864015
1015.864015
1015.864015
965.945721
610.399842
389.963984
187.056661
92.458725
39.917827
34.272671
51.784515
71.222782
98.464489
117.339492
134.490728
140.107870
137.374997
125.581622
102.471709
83.757639
57.110786
39.593577
23.645759
15.355945
9.714961
7.511973
6.813407
6.762743
6.829500
6.805658
6.981492
7.073879
7.335544
7.810593
8.066893
8.608699
8.995533
9.566545
10.090470
10.224581
10.671616
11.304617
10.996461
11.068583
10.471940
10.596514
10.567904
10.568500
10.436773
10.294914
10.389686
10.300875
10.456443
10.299683
10.519624
10.126829
10.491610
10.697842
10.213852
10.459423
9.860992
9.836555
9.702444
##ZVALUE=290
0.579953
0.691414
0.577569
0.709891
0.732541
0.769496
0.520945
0.716448
0.681877
0.749826
0.785589
0.755787
0.595450
0.803471
0.951886
0.875592
0.834465
0.885725
1.079440
0.929832
1.135468
1.379848
1.391768
1.681447
1.882911
1.953840
2.772808
9.149909
48.109889
120.387673
241.052508
500.272512
763.391852
1015.783548
1015.783548
1015.783548
1015.783548
1015.783548
1015.783548
745.074749
488.251448
243.613720
127.097964
48.330426
28.187633
33.661723
46.264529
68.613887
87.619424
114.552975
127.150416
137.606859
134.051442
121.369958
103.752613
77.015758
57.019591
36.642551
24.972558
14.785528
10.875463
8.276701
7.565618
7.280707
7.148981
7.654428
7.323623
8.057952
8.551478
9.009838
9.237528
9.888411
9.980798
10.622740
10.540485
10.579824
10.929704
10.381937
10.355711
10.159612
10.082722
10.303855
10.527968
10.013580
10.281801
9.736419
10.063648
9.678602
10.523796
9.955764
9.992719
9.765625
9.590983
9.670854
9.617805
10.101795
##ZVALUE=295
0.540614
0.573993
0.546575
0.465512
0.686646
0.589490
0.715852
0.744462
0.685453
0.729561
0.797510
0.679493
0.763535
0.685453
0.885725
0.771880
0.805855
0.811815
0.959635
0.918508
1.066923
0.915527
1.460910
1.290441
1.374483
1.426935
1.572967
1.731515
2.158880
3.924966
23.939610
74.523687
180.077553
431.319475
691.894889
1015.751958
1015.751958
1015.751958
1015.751958
1015.751958
1015.751958
903.583765
629.845858
335.293412
191.029906
73.801875
33.002496
22.275448
28.491616
45.612454
62.588453
87.145567
105.166435
122.254491
130.320787
127.669573
115.199685
95.433593
78.125000
54.384470
39.078593
23.913980
16.593933
11.139512
8.683801
8.036494
7.691979
8.392930
8.387566
9.000897
9.637475
9.664893
10.461807
10.790825
10.766983
10.876656
10.933876
10.239482
10.465980
10.699630
10.323524
10.027885
10.539889
10.328889
10.316968
10.591745
9.994507
10.212660
10.202527
9.957552
10.189414
10.200739
10.221601
9.301901
9.597540
9.470582
##ZVALUE=300
0.597835
0.675917
0.660419
0.774860
0.595450
0.677705
0.720620
0.757575
0.792742
0.588894
0.754595
0.704527
0.686646
0.823736
0.683665
0.873804
0.880957
0.913739
1.043677
1.020432
1.014471
1.220703
0.863671
0.984669
1.204610
1.408458
1.458526
1.592636
1.870990
2.045631
2.077818
2.780557
10.775924
41.154623
151.698589
300.932527
615.421534
925.030708
1015.871763
1015.871763
1015.871763
1015.871763
1015.871763
1015.871763
781.470537
506.266952
253.821611
132.535696
47.416687
21.154881
19.195676
26.182532
41.070580
57.017803
81.684589
98.756552
116.710663
124.519467
123.575926
115.395784
94.656944
77.952743
54.816604
40.505528
25.282502
18.354654
12.498498
10.542870
9.640455
9.496808
9.915829
10.152459
10.181665
10.323524
10.985732
10.839701
10.885596
10.445714
10.582805
11.138916
10.771751
10.546446
10.437965
10.247827
10.073781
10.380745
10.276437
10.439754
10.537505
10.175705
10.085702
10.039806
9.831786
9.886622
9.582639
10.006428
##ZVALUE=305
0.653863
0.757575
0.600815
0.584722
0.427961
0.696778
0.610948
0.659823
0.723600
0.591874
0.727773
0.732541
0.716448
0.887513
0.770688
0.846982
0.789762
0.810623
0.714660
0.799894
1.003742
0.934601
1.036525
1.082420
1.141429
1.045465
1.207590
1.072884
1.457930
1.443624
1.608729
1.803637
1.895428
2.266765
4.138947
26.674867
76.096654
222.285986
411.233902
765.581727
1015.871763
1015.871763
1015.871763
1015.871763
1015.871763
1015.871763
961.632729
610.419512
376.627445
168.479681
80.591440
25.683641
14.795661
17.896891
25.024414
39.458871
54.139495
76.682568
93.448758
109.932423
117.281675
115.403533
108.319521
90.837479
74.487925
52.902699
38.606524
25.744438
17.958879
12.435913
11.337996
10.475516
10.698438
10.650754
10.642409
10.395646
10.906458
10.221601
10.527968
10.424852
10.613799
10.643601
10.902882
10.629892
10.768771
11.013746
10.748506
10.553598
10.392666
10.480881
10.287762
9.832978
9.687543
9.634495
9.904504
9.981990
##ZVALUE=310
0.526905
0.497699
0.635982
0.643730
0.615716
0.557899
0.708699
0.767708
0.683665
0.636578
0.733733
0.634789
0.622869
0.696778
0.715852
0.733733
0.613928
0.677705
0.737906
0.903606
0.805855
1.043677
0.922680
1.007915
0.979900
1.164675
1.075864
1.139641
1.103878
1.114607
1.438856
1.450777
1.512766
1.664758
1.885891
2.144575
2.778769
8.440614
47.157407
119.351745
308.687687
541.309714
956.658721
1015.872955
1015.872955
1015.872955
1015.872955
1015.872955
1015.872955
862.731934
485.859513
285.992622
118.441582
54.196715
18.254519
12.523532
16.346574
22.315979
34.828782
47.567487
68.132877
84.005594
101.660490
109.625459
112.092495
105.492473
89.894533
75.038671
52.804947
39.163828
26.328564
19.511580
14.604926
11.982918
11.143684
10.866523
10.639429
10.492802
10.480881
10.267496
10.654926
10.720491
10.593534
10.897517
10.650754
10.757446
10.752678
10.823607
10.660887
10.652542
10.334849
9.804964
10.388494
9.966493
9.835958
9.865761
##ZVALUE=315
0.882745
0.707507
0.731945
0.714660
0.749826
0.665784
0.705719
0.668764
0.744462
0.745654
0.785589
0.861883
0.692606
0.823736
0.744462
0.740886
0.860691
0.877976
0.972748
0.907779
0.890493
0.937581
0.868440
1.029968
1.036525
1.094937
1.075864
1.115799
1.105666
1.167655
1.210570
1.421571
1.543760
1.730919
1.871586
1.901984
1.887679
2.215505
2.664924
4.295707
25.795698
75.959563
232.995749
441.007614
861.452818
1016.007662
1016.007662
1016.007662
1016.007662
1016.007662
1016.007662
1016.007662
671.178699
412.733555
183.680654
84.507465
24.416447
12.462735
11.867881
14.468431
21.327734
30.304790
47.053695
62.257648
82.466602
94.918609
105.622411
107.468963
98.890662
86.513758
67.985654
54.787993
38.800836
28.507710
19.897819
15.270710
12.260675
11.297464
11.233687
10.593534
10.732412
10.563731
10.744929
10.923743
10.671616
10.748506
10.588765
11.069775
10.928512
10.986924
10.800958
10.603666
10.447502
10.474920
10.123849
10.395646
##ZVALUE=320
0.387430
0.523925
0.599623
0.579953
0.570416
0.554919
0.486970
0.344515
0.542998
0.572801
0.490546
0.592470
0.699759
0.618696
0.612736
0.535846
0.571609
0.635982
0.851750
0.805855
0.649691
0.831485
0.722408
0.896454
0.751615
0.912547
0.939965
0.935793
1.033545
0.887513
1.081824
0.940561
1.020432
1.078844
1.054406
1.187921
1.236796
1.361966
1.755953
1.815557
2.043843
2.890825
9.310842
54.800510
136.207938
355.107784
590.905547
979.494452
1015.872955
1015.872955
1015.872955
1015.872955
1015.872955
1015.872955
887.596607
489.935875
271.595716
107.224584
46.599507
15.364885
10.188818
10.755658
13.025999
19.237995
27.184486
43.519735
57.097673
76.285601
88.836551
100.241899
102.136731
95.827579
85.267425
67.662597
53.177476
36.850572
27.056932
19.033551
14.408827
11.806488
11.189580
10.750890
10.416508
10.586977
10.548830
10.668635
10.553598
10.551810
10.390878
10.510683
10.652542
10.480881
10.600686
10.515451
10.328889
9.679794
##ZVALUE=325
0.501871
0.394583
0.489950
0.468493
0.355840
0.375509
0.515580
0.553727
0.495911
0.421405
0.524521
0.502467
0.381470
0.525713
0.727773
0.551939
0.471473
0.664592
0.441670
0.517964
0.643730
0.662804
0.559688
0.777841
0.711679
0.825524
0.732541
0.690818
0.683665
0.838637
0.794530
0.890493
0.988841
1.071692
1.027584
1.001954
1.104474
1.098514
1.357794
1.591444
1.511574
1.661777
2.183914
2.500415
4.863739
32.913685
87.707639
244.687796
445.064902
834.133625
1015.830636
1015.830636
1015.830636
1015.830636
1015.830636
1015.830636
983.295441
603.155494
358.490944
153.843760
70.933700
21.334887
10.831952
9.443760
9.766817
13.484955
18.444657
27.883649
40.004849
59.179664
71.978569
87.964535
93.952417
95.834732
90.307593
76.881647
63.385963
47.330856
35.311580
23.833513
18.531680
13.451576
12.047887
10.923743
10.739565
10.207891
10.614991
10.405779
10.109544
10.442734
10.196567
10.044575
10.235906
9.957552
9.910464
9.820461
##ZVALUE=330
0.370741
0.408888
0.467896
0.539422
0.514984
0.517964
0.515580
0.487566
0.649691
0.813603
0.464916
0.627637
0.566840
0.518560
0.476837
0.591874
0.539422
0.609756
0.541806
0.638962
0.693798
0.623465
0.649691
0.774860
0.837445
0.624657
0.873804
0.742674
0.718832
0.784993
0.734925
0.840425
0.955462
1.018643
0.948906
1.168847
1.056790
1.123548
1.128912
1.344681
1.378655
1.847744
1.693964
1.787543
1.912713
2.340674
2.952814
16.367435
53.805709
172.513723
331.565738
666.034818
981.589556
1015.871763
1015.871763
1015.871763
1015.871763
1015.871763
1015.871763
826.776624
518.879890
234.261751
114.159584
38.476586
15.873909
9.750724
9.483695
10.467768
12.687445
18.978715
26.207566
40.340424
52.719712
71.446896
80.867410
89.683533
90.260506
83.024502
75.194836
58.287978
47.119856
32.799840
25.240779
17.950535
14.411807
11.840463
11.425614
10.409951
10.318756
10.432601
10.263920
10.039806
9.823442
9.765625
9.717941
9.642839
##ZVALUE=335
0.409484
0.364780
0.392795
0.375509
0.479817
0.430942
0.359416
0.380874
0.337958
0.276566
0.441670
0.553727
0.427961
0.447631
0.528693
0.496507
0.415444
0.469685
0.626445
0.529885
0.568628
0.574589
0.576973
0.660419
0.714660
0.589490
0.715852
0.648499
0.903606
0.835657
0.700951
0.803471
0.844598
0.878572
0.917912
0.807643
0.929832
1.031756
1.050830
0.977516
0.889897
1.214743
1.221895
1.511574
1.488924
1.622438
1.890659
1.906753
2.528429
6.398559
25.622845
109.835863
235.774517
526.934862
839.664936
1015.822887
1015.822887
1015.822887
1015.822887
1015.822887
1015.822887
946.763754
629.510880
322.402716
165.948868
53.794980
21.236539
10.107756
9.088516
9.192824
10.390878
13.241768
17.458797
26.797652
37.035942
53.696632
64.095855
77.335835
82.826614
84.169507
78.884959
67.399740
57.385564
44.673681
35.485625
24.806857
18.874407
14.375448
11.844635
10.674000
10.194778
9.805560
9.855628
9.696484
9.672642
9.581447
##ZVALUE=340
0.382662
0.423789
0.542998
0.392795
0.553727
0.560880
0.530481
0.556707
0.501871
0.415444
0.472665
0.358820
0.550747
0.462532
0.525713
0.478625
0.530481
0.511408
0.579953
0.552535
0.593662
0.622869
0.455976
0.665784
0.594854
0.606775
0.558496
0.489950
0.667572
0.698566
0.710487
0.619888
0.876784
0.855923
0.789762
0.889897
0.735521
1.008511
0.906587
0.853539
1.072884
1.148582
1.213551
1.115799
1.273751
1.497865
1.362562
1.651645
1.625419
1.973510
2.124906
3.248453
11.438727
64.373612
164.319873
413.957834
683.957934
1015.871763
1015.871763
1015.871763
1015.871763
1015.871763
1015.871763
1007.924676
734.308958
382.637978
211.704969
83.360672
32.374859
11.312962
9.401441
9.483695
9.320974
10.626912
12.490749
18.034577
24.586916
35.967827
47.018528
61.793923
70.761442
77.620745
80.074668
74.073672
66.998601
54.130554
44.297576
31.916499
25.177598
17.778873
14.089942
11.613965
10.307431
9.635687
9.460449
9.109974
##ZVALUE=345
0.441670
0.470877
0.394583
0.533462
0.531673
0.325441
0.498891
0.486970
0.453591
0.332594
0.430942
0.511408
0.461936
0.529885
0.512600
0.486970
0.509620
0.588894
0.480413
0.641942
0.527501
0.552535
0.518560
0.495911
0.488758
0.669956
0.565648
0.555515
0.609756
0.600815
0.516772
0.573993
0.636578
0.627637
0.680685
0.763535
0.755787
0.858903
0.757575
0.732541
0.975728
1.048446
0.955462
1.057982
1.079440
1.182556
1.107454
1.269579
1.418591
1.573563
1.676679
2.007484
2.246499
2.516508
6.135702
26.016831
114.730597
247.769952
549.723506
879.684687
1015.871763
1015.871763
1015.871763
1015.871763
1015.871763
1015.871763
887.155533
567.303896
254.032612
122.209787
39.051771
16.873479
10.127425
9.580851
9.373426
9.290576
9.903908
11.429787
16.841888
22.304654
33.704638
43.639541
55.833459
63.769817
71.818829
73.565841
69.613457
63.396692
51.988959
43.174624
32.051802
24.604797
17.733574
13.844967
10.931492
9.955764
##ZVALUE=350
0.499487
0.478625
0.409484
0.534654
0.321865
0.407696
0.563860
0.541806
0.566840
0.452995
0.410676
0.493526
0.387430
0.649691
0.631809
0.531673
0.588894
0.561476
0.552535
0.585914
0.557899
0.519753
0.451803
0.550747
0.609756
0.540614
0.563860
0.476837
0.694990
0.668764
0.943542
0.560880
0.648499
0.821948
0.536442
0.737906
0.928640
0.722408
0.915527
0.826716
0.698566
0.811815
0.951886
0.872612
0.988841
1.058578
1.107454
1.100898
1.146793
1.214743
1.416802
1.439452
1.584888
1.714826
1.878738
2.344847
3.190637
16.772747
58.728456
201.032758
394.039750
794.626474
1015.871763
1015.871763
1015.871763
1015.871763
1015.871763
1015.871763
1015.871763
697.162747
414.909720
176.324844
78.648925
21.961927
10.990500
9.002686
8.467436
8.261800
8.450747
9.242892
10.928512
15.293956
20.909905
29.975772
38.885474
49.765706
58.050752
65.128803
67.213774
65.202713
59.792995
49.790740
41.749477
30.981898
24.350882
17.385483
##ZVALUE=355
0.532866
0.569820
0.580549
0.536442
0.270605
0.444651
0.630617
0.446439
0.558496
0.454783
0.550747
0.471473
0.453591
0.377893
0.489950
0.465512
0.568628
0.558496
0.588894
0.521541
0.591874
0.466704
0.542998
0.592470
0.511408
0.659823
0.527501
0.557899
0.580549
0.589490
0.709891
0.726581
0.742674
0.595450
0.579953
0.785589
0.616908
0.801682
0.860691
0.773668
0.810623
0.939965
0.794530
0.991821
0.831485
1.037717
1.053810
1.097918
1.239777
1.188517
1.212955
1.324415
1.453757
1.600981
1.675487
1.948476
2.088547
2.275705
2.696514
8.855462
32.787919
128.665566
267.243981
576.794744
908.532739
1015.871763
1015.871763
1015.871763
1015.871763
1015.871763
1015.871763
773.888826
480.480790
207.609534
96.037984
28.237700
12.507439
8.623600
8.121729
7.962584
7.708669
7.943511
8.382797
10.466576
13.040900
18.741488
25.059581
34.637451
42.666793
52.192807
57.857633
61.581731
60.187578
54.453611
48.442483
38.873553
##ZVALUE=360
0.420809
0.356436
0.450611
0.422597
0.326633
0.431538
0.373721
0.374913
0.525713
0.559688
0.501871
0.474453
0.606775
0.410676
0.431538
0.707507
0.499487
0.632405
0.688434
0.518560
0.683665
0.536442
0.610948
0.628829
0.731945
0.634789
0.669956
0.406504
0.679493
0.590682
0.831485
0.689626
0.701547
0.683665
0.790954
0.634789
0.799894
0.635982
0.675917
0.575781
0.721812
0.774860
0.960827
0.772476
0.899434
1.194477
0.936985
0.968575
1.067519
1.255870
1.073480
1.286864
1.274943
1.404881
1.556873
1.583695
1.721978
1.912713
2.118945
2.401471
2.633929
4.385710
13.738871
69.119930
172.026753
436.833501
740.718842
1015.836000
1015.836000
1015.836000
1015.836000
1015.836000
1015.836000
992.227793
656.874776
300.513506
149.869919
52.289963
19.696951
8.750558
7.954836
7.653832
7.569790
7.419586
7.207990
7.964969
8.803606
11.410713
14.598966
20.901561
27.376413
37.347674
43.960810
51.206946
54.510832
55.050850
##ZVALUE=365
0.586510
0.515580
0.473857
0.383854
0.472665
0.500679
0.629425
0.544786
0.503659
0.586510
0.551939
0.463724
0.606775
0.483990
0.521541
0.621676
0.422597
0.478625
0.570416
0.623465
0.524521
0.583529
0.591874
0.723600
0.576973
0.504851
0.619888
0.548959
0.515580
0.525713
0.552535
0.642538
0.773668
0.781417
0.698566
0.756979
0.882745
0.608563
0.971556
0.899434
0.889897
0.802875
0.964999
1.012683
0.989437
0.774860
0.963807
1.102686
1.091957
1.101494
1.133680
1.133680
0.987649
1.140833
1.402497
1.622438
1.706481
1.595616
1.679659
1.874566
2.112985
2.289414
2.549887
3.085732
5.799532
32.985806
98.017454
284.681916
531.913638
960.792899
1015.875936
1015.875936
1015.875936
1015.875936
1015.875936
1015.875936
845.575929
453.925729
241.965652
83.250999
32.340884
9.872913
7.904768
7.372499
7.116795
6.740689
6.763935
6.879568
6.721616
7.777810
9.115934
13.139844
17.435551
24.056435
30.479431
38.725734
##ZVALUE=370
0.438690
0.475645
0.448823
0.572801
0.652671
0.522733
0.391603
0.409484
0.483990
0.544786
0.416636
0.536442
0.471473
0.479817
0.511408
0.540614
0.473857
0.617504
0.582933
0.655651
0.553727
0.494719
0.574589
0.618696
0.590682
0.586510
0.731945
0.618696
0.717640
0.513792
0.462532
0.533462
0.549555
0.635982
0.634789
0.588894
0.662804
0.718832
0.851750
0.768900
0.756979
0.839829
0.783801
0.885725
0.762939
0.865459
0.801682
0.661612
0.855923
0.685453
0.988841
0.929832
1.013875
1.109838
1.106858
1.043677
1.141429
1.481771
1.301765
1.294613
1.642704
1.580715
1.887679
2.088547
2.329946
2.389550
4.069805
16.880631
87.209940
208.334923
496.860743
793.187022
1015.872955
1015.872955
1015.872955
1015.872955
1015.872955
1015.872955
934.408903
586.407781
265.394449
130.476952
46.207905
17.884970
7.725954
6.861687
6.470680
6.206632
6.288886
6.075501
5.845428
6.098747
6.698966
8.339882
11.298656
14.478564
##ZVALUE=375
0.447631
0.427961
0.336766
0.508428
0.351667
0.537634
0.369549
0.549555
0.414848
0.467896
0.418425
0.354648
0.573993
0.458956
0.421405
0.389814
0.348687
0.431538
0.592470
0.410676
0.593662
0.432730
0.596642
0.544786
0.461936
0.498891
0.646710
0.657439
0.475645
0.629425
0.502467
0.511408
0.623465
0.682473
0.630617
0.507832
0.667572
0.562668
0.440478
0.629425
0.617504
0.748634
0.656843
0.718832
0.897646
0.870824
0.829697
0.733733
0.826716
0.740886
0.904799
0.958443
0.737906
0.948906
0.815988
1.035929
1.041889
0.877976
1.166463
1.123548
1.170635
1.353621
1.457930
1.471639
1.729727
1.904964
2.176762
2.339482
2.840757
9.952784
37.307739
139.004588
303.604007
687.275529
1004.611850
1015.871763
1015.871763
1015.871763
1015.871763
1015.871763
1015.871763
676.285028
422.350764
205.722451
101.835728
29.137731
11.232495
6.544590
6.120801
5.683899
5.508661
5.373955
5.449653
5.300641
5.570650
5.958676
##ZVALUE=380
0.410676
0.385642
0.456572
0.586510
0.433922
0.371933
0.370741
0.427961
0.546575
0.385642
0.378489
0.466704
0.518560
0.494719
0.494719
0.301600
0.344515
0.454783
0.441670
0.399947
0.439882
0.368953
0.658631
0.458956
0.673532
0.374913
0.569820
0.375509
0.488758
0.452995
0.517964
0.382662
0.496507
0.354648
0.446439
0.388622
0.519753
0.519753
0.529885
0.563860
0.540614
0.565648
0.619888
0.664592
0.636578
0.624657
0.659823
0.578761
0.671744
0.698566
0.624657
0.770688
0.777841
0.720620
0.922680
0.815988
0.851750
0.882745
0.887513
1.092553
1.037717
1.125932
1.114607
1.101494
1.310706
1.319647
1.540780
1.849532
1.927614
2.397895
2.831817
5.147457
19.728541
93.676448
215.117931
496.915579
823.154449
1015.872955
1015.872955
1015.872955
1015.872955
1015.872955
1015.872955
901.705623
594.155788
289.498568
155.079961
54.186583
19.590855
7.081628
5.997419
5.595684
5.285740
4.868507
5.059838
4.964471
##ZVALUE=385
0.393987
0.476837
0.335574
0.346899
0.444651
0.468493
0.451803
0.237823
0.339746
0.305772
0.449419
0.422597
0.445843
0.376701
0.373721
0.357628
0.385642
0.362992
0.338554
0.376701
0.497699
0.308752
0.426769
0.564456
0.408888
0.402927
0.393987
0.436902
0.434518
0.542998
0.557899
0.415444
0.361800
0.465512
0.415444
0.628829
0.463724
0.500679
0.626445
0.510812
0.547767
0.500679
0.548959
0.638962
0.745654
0.690818
0.556707
0.589490
0.769496
0.706911
0.699759
0.709891
0.671744
0.797510
0.799894
0.678897
0.728965
0.795722
0.857711
1.049638
1.162887
1.009703
0.982881
1.024604
1.187921
1.303554
1.386404
1.517534
1.754761
2.069473
1.999736
2.271533
2.533793
3.252625
8.159876
47.969818
133.709908
370.348692
678.581595
1015.871763
1015.871763
1015.871763
1015.871763
1015.871763
1015.871763
1015.871763
816.167593
427.726507
238.003731
93.772411
36.557913
9.464622
6.015897
5.170703
5.040765
4.852414
##ZVALUE=390
0.168681
0.271797
0.212789
0.198483
0.232458
0.231862
0.294447
0.141859
0.245571
0.277758
0.266433
0.249743
0.208616
0.129938
0.123978
0.357628
0.235438
0.240803
0.196695
0.291467
0.319481
0.217557
0.375509
0.409484
0.411868
0.257492
0.359416
0.294447
0.358820
0.319481
0.031590
0.252724
0.230670
0.344515
0.425577
0.297427
0.238419
0.202656
0.306964
0.348687
0.499487
0.376701
0.534654
0.649691
0.441670
0.563860
0.413656
0.528693
0.476837
0.662804
0.449419
0.506639
0.501871
0.452995
0.583529
0.562668
0.716448
0.598431
0.664592
0.665784
0.795722
0.712872
0.712872
0.702739
0.987649
0.969768
1.086593
1.271963
1.417994
1.601577
1.765490
1.997948
1.851916
2.047420
2.386570
2.450943
4.311800
27.232766
87.620616
276.047587
530.661941
987.283587
1015.743017
1015.743017
1015.743017
1015.743017
1015.743017
1015.743017
1015.743017
658.908486
374.363661
145.427585
61.024427
14.629960
6.502867
4.906654
##ZVALUE=395
0.293851
0.351667
0.285506
0.363588
0.297427
0.401735
0.236630
0.399947
0.360608
0.219941
0.291467
0.317693
0.353456
0.318885
0.410676
0.327826
0.596642
0.294447
0.380874
0.408888
0.429749
0.349879
0.515580
0.358820
0.268817
0.371933
0.455976
0.381470
0.320673
0.474453
0.587702
0.517964
0.426769
0.471473
0.501871
0.425577
0.487566
0.548959
0.487566
0.482798
0.526905
0.578761
0.541806
0.563860
0.602603
0.534654
0.591874
0.545979
0.612736
0.580549
0.645518
0.676513
0.650883
0.650883
0.754595
0.592470
0.710487
0.673532
0.811815
0.862479
0.962615
0.827909
0.942945
1.143813
0.880957
1.203418
1.250505
1.313686
1.314878
1.630783
1.713634
1.982450
1.924634
1.873970
1.923442
2.000928
1.998544
2.537966
3.230572
16.079545
62.109828
214.943886
402.981639
751.627684
1015.877724
1015.877724
1015.877724
1015.877724
1015.877724
1015.877724
1015.877724
836.758614
526.428819
246.324539
119.300485
40.233731
##ZVALUE=400
0.166893
0.180602
0.265837
0.226498
0.179410
0.135899
0.181794
0.194907
0.117421
0.188947
0.246763
0.054836
0.204444
0.203848
0.193715
0.263453
0.162721
0.123978
0.254512
0.339746
0.337958
0.038743
0.281930
0.182986
0.291467
0.336766
0.325441
0.242591
0.335574
0.173450
0.209808
0.294447
0.290871
0.278950
0.423789
0.427961
0.376701
0.394583
0.338554
0.181794
0.387430
0.447631
0.266433
0.403523
0.330806
0.469685
0.418425
0.435710
0.597835
0.548959
0.356436
0.477433
0.500679
0.459552
0.577569
0.522733
0.523925
0.580549
0.561476
0.482798
0.785589
0.654459
0.621676
0.722408
0.725985
0.745654
0.844598
0.986457
1.083612
1.393557
1.408458
1.462698
1.407862
1.305938
1.501441
1.492500
1.535416
1.719594
1.989603
2.155900
2.436638
7.916689
32.401681
123.285651
263.471007
586.913824
935.977697
1015.715599
1015.715599
1015.715599
1015.715599
1015.715599
1015.715599
988.034010
689.074993
355.240703
##END
