##TITLE=QP00302
##FORMAT=SPECTACLE-ASCII V-1.2
##DATA TYPE=ULTRAVIOLET SPECTRUM
##SECOND TYPE=ULTRAVIOLET SPECTRUM
##DATE=05/07/18
##TIME=15:17:25
##SPECTROMETER/DATA SYSTEM=SPECTACLE
##XUNITS=NM EM
##YUNITS=ENERGY
##YFACTOR=1
##FIRSTX=220
##LASTX=410
##NPOINTS=96
##3DDATA=Equidistant
##ZUNITS=NM EX
##FIRSTZ=210
##LASTZ=400
##ZPOINTS=39
##XYDATA=(Y..Y)
##ZVALUE=210
3.029704
3.721714
3.372431
3.409982
2.985597
2.908707
3.360510
3.149509
3.589988
3.977418
3.787875
4.064441
3.613830
3.063679
4.182458
4.386902
4.330873
4.010797
4.013777
5.100965
4.999638
5.081892
5.780458
5.337000
6.614923
5.780458
5.968809
5.375743
7.090569
7.291436
7.483959
7.477999
7.783771
7.370710
8.966923
8.599758
8.055568
8.917451
9.401441
9.460449
8.779764
9.888411
9.921789
11.205673
9.952784
10.704994
10.378957
10.600686
11.225939
11.203885
11.462569
10.610819
11.622906
11.803508
12.359619
12.384653
13.318658
11.464953
12.960434
12.883544
13.051629
12.742877
15.573502
14.578700
13.901591
15.584826
16.370416
17.817616
21.027923
23.624897
26.391745
33.847690
39.650798
43.604970
51.125884
54.513812
55.577755
57.728887
57.360530
53.388476
46.299696
40.273666
37.284493
29.039979
25.012493
21.270514
17.626882
17.000437
14.433861
12.960434
13.683438
12.400746
14.832616
13.865829
13.536811
14.254451
##ZVALUE=215
10.534525
9.018779
9.413958
8.176565
6.266832
6.689429
6.258488
6.657839
6.369948
6.356835
5.920529
5.107522
5.543828
5.003810
4.214644
5.236864
4.735589
4.529953
4.826784
5.261898
5.391836
6.586909
5.935431
5.907416
6.229877
7.529855
7.229447
7.496476
6.797910
8.033514
7.420778
7.521510
8.065701
8.388758
9.508729
8.816719
8.395910
9.615421
9.639859
8.790493
10.440946
8.896589
10.261536
10.031462
10.335445
10.237694
11.075735
10.907650
10.150671
12.145638
12.288690
12.030602
11.311769
12.239814
12.426972
13.906956
13.451576
12.456775
12.962818
13.395548
14.292598
14.494658
13.834834
14.339685
13.889670
14.650822
16.462803
17.187595
18.979907
23.938417
24.687648
31.727552
35.748482
39.552450
42.302608
45.311451
44.945478
42.735934
42.625666
40.310621
37.662983
33.381581
30.269623
24.291873
22.614598
19.106865
17.789602
15.095472
14.337897
12.955666
13.524890
11.621714
11.898875
12.265444
12.404919
12.084842
##ZVALUE=220
32.441616
32.535791
34.275651
34.806728
30.154586
25.063753
20.667911
15.819669
13.861656
12.147427
12.094975
14.484525
12.362599
13.585687
9.740591
8.817911
6.652474
6.570816
5.684495
5.690455
5.278587
5.953908
5.926490
6.182790
6.263852
6.072521
7.261634
7.761717
6.796718
9.146929
7.725954
8.359551
7.994771
9.620786
9.037852
8.802414
9.422898
8.774996
9.069443
9.203553
9.366870
9.767413
9.501576
10.940433
10.517836
9.948611
10.488629
11.493564
10.355711
11.932850
12.426972
11.507869
11.261702
11.617541
14.094710
12.533665
13.335943
12.937784
13.180971
13.298988
14.676452
12.374520
13.235807
14.023781
14.050603
14.791489
15.921593
16.971827
20.133853
22.336841
25.141835
27.936697
32.760501
38.255453
39.056540
40.567517
39.921999
40.571690
39.645433
36.773682
34.453869
32.175779
28.826594
26.010871
24.088621
19.510984
16.612411
15.899539
13.167858
14.997721
13.928413
13.786554
12.695789
13.237596
13.433695
13.851523
##ZVALUE=225
54.317713
57.277679
75.825453
93.574524
99.752545
99.676847
95.308423
72.922707
58.651567
42.442679
30.958652
25.075674
27.237535
26.598573
27.776957
25.800467
21.798611
18.831491
14.343858
10.446906
8.888841
6.492734
6.640553
6.600618
6.750822
7.060766
7.778406
7.647872
8.171797
8.597970
8.786917
9.040833
8.720756
8.662939
8.850694
9.459853
10.354519
9.042621
10.759830
10.719895
9.284616
9.955764
10.802746
11.732578
12.420416
11.898875
11.528730
11.102557
12.479424
12.568831
12.313724
13.036728
13.122559
12.281537
12.918711
13.896823
14.173985
13.741851
14.589429
14.546514
14.371872
15.703440
16.134977
16.939640
17.080903
16.255975
18.268824
18.858910
19.794703
24.529696
27.865767
30.671954
34.560561
35.962462
39.196610
41.076541
38.669705
39.348602
38.901567
36.109686
33.760667
32.212734
26.990771
27.053952
22.450686
20.680428
20.120740
18.672943
18.148422
17.419457
18.902421
16.433001
17.127991
15.854836
17.531514
16.767979
##ZVALUE=230
46.488643
52.920580
83.669424
136.290789
179.626942
233.341455
254.144669
262.624621
242.925882
189.581513
139.156580
91.638565
62.327981
48.560500
44.989586
47.983527
51.759481
48.786998
40.945411
38.678646
29.946566
20.918846
13.313890
10.902882
9.118915
8.355975
9.372830
8.141994
8.167624
10.725856
9.155869
10.042787
9.035468
9.427667
9.958744
10.182858
10.810494
10.993481
12.292862
10.456443
13.342500
12.077689
12.371540
11.654496
13.883710
12.960434
13.364553
13.330579
13.916492
13.999939
13.557673
14.305711
14.986992
15.200973
15.623569
15.999675
16.766787
16.550422
17.147660
17.924905
17.053485
17.251968
17.572641
19.068718
18.919706
21.432638
20.746589
24.564862
25.426745
28.700829
33.274889
36.495924
39.884448
43.682456
47.917962
46.351552
46.896935
45.757890
43.912530
39.394498
38.950443
35.929680
35.095811
32.582879
29.844642
26.578903
27.580857
25.365949
23.821592
23.584962
25.324821
25.041699
24.618506
23.605824
23.410916
22.215843
##ZVALUE=235
17.334819
20.761490
44.107437
104.682446
178.277493
292.289853
394.955873
515.131950
574.223995
580.044985
516.648889
422.357917
281.868577
202.505589
126.275420
87.448955
74.806809
75.978637
79.686642
84.662437
82.191825
65.796971
53.115487
37.478805
26.454926
19.156933
14.110804
11.602640
10.061860
10.807514
11.805892
10.955930
10.364652
11.121631
10.655522
12.515783
12.861490
12.956858
12.640953
11.836886
12.293458
13.375878
12.633801
14.001727
13.487935
14.455914
14.937520
14.854670
14.235973
15.016794
14.661551
14.908910
15.402436
16.632676
17.717481
16.914606
18.402934
17.822981
19.832850
17.919540
21.648407
21.179914
21.179914
21.903515
21.131635
24.869442
24.112463
26.054978
31.824708
31.853914
38.856864
41.807890
48.653483
49.598813
52.518845
53.391457
54.609776
53.706765
52.257776
50.342679
45.081973
43.931603
40.656924
39.772987
36.164522
37.501454
34.102798
33.343434
32.051802
32.293797
30.676723
31.769872
32.354593
31.450987
28.726459
30.993819
##ZVALUE=240
2.850890
3.226995
6.971955
25.590658
59.266686
144.611597
247.742534
457.122922
636.242032
862.630010
974.423885
991.488695
917.837620
696.181655
532.486439
367.991924
209.148526
144.578815
108.302832
99.215508
113.395452
117.229819
113.346577
104.269981
81.915855
66.608787
50.880909
35.418868
25.153756
18.440485
15.293956
13.437867
13.209581
13.723969
11.611581
13.276935
13.352633
13.696551
13.078451
15.451908
14.089942
14.691949
13.892651
13.891459
15.046597
14.700890
15.645623
15.977621
16.806722
17.437935
17.675757
16.592741
17.209649
18.558502
20.236969
18.121600
20.219684
19.531846
20.651817
20.263791
22.181869
24.169683
23.743510
23.012757
26.452541
26.191473
27.045608
32.245517
33.737421
36.966801
41.265488
45.772791
52.376986
54.574609
58.140755
61.465502
60.758591
57.832599
54.860711
55.742860
52.260756
47.912598
46.549439
45.549870
42.825937
41.849613
43.938756
39.044619
39.648414
39.640665
39.555430
38.826466
36.415458
38.425922
36.988854
38.695931
##ZVALUE=245
2.473593
2.005696
2.567768
2.796650
5.994439
17.101765
57.495832
126.747489
303.869843
470.633507
770.363808
995.661020
1015.684605
1015.684605
1015.684605
996.213555
802.783966
540.854931
363.047719
200.717449
135.648847
108.483434
115.228891
125.050545
129.678845
128.113627
114.741921
99.294782
74.237585
57.300925
44.109821
26.669502
19.880533
15.067458
13.388991
11.787415
12.581944
12.064576
12.078881
13.015866
12.909770
13.446808
13.821721
12.943745
13.137460
13.013482
12.943745
13.726950
14.874935
14.530420
16.482472
15.639663
15.609860
16.848445
16.281605
17.859936
17.330647
16.730428
18.204451
18.046498
19.701719
19.779801
20.328760
21.126866
22.046566
23.035407
24.995804
26.991963
30.957460
33.132434
37.909746
42.012930
42.420626
46.418905
52.146912
51.451921
52.411556
52.373409
49.098730
47.526956
44.774413
44.949651
43.006539
42.153001
41.224957
40.326715
39.213896
37.531853
41.620731
38.940907
37.389994
37.791729
37.860870
36.145449
36.915541
37.489533
##ZVALUE=250
1.922846
1.978874
2.073646
2.300739
2.537966
2.641678
4.190803
10.710955
51.616430
113.799572
283.587575
481.798649
715.029836
1009.047031
1015.653014
1015.653014
1015.653014
1015.653014
1014.797688
728.266835
483.273864
313.714743
162.061453
116.474628
112.820864
124.719739
137.665868
136.767626
133.532882
122.433901
106.073618
81.508756
58.636665
36.746860
27.384758
17.461777
13.180971
11.775494
11.070967
12.056828
12.242794
12.354851
11.407733
12.274981
11.655688
13.043880
12.167692
12.013912
11.915565
12.627840
12.553930
13.562441
13.793707
14.290810
14.504790
15.021563
14.645457
14.749765
14.680624
16.277432
16.263723
17.074943
16.794801
18.646717
20.559430
21.048784
20.802617
23.104548
25.899410
29.581785
31.891465
36.206841
37.573576
42.725801
44.875741
46.475530
46.090484
44.832826
44.761896
43.933988
43.892860
39.753914
39.168596
36.137700
37.067533
36.478639
36.650896
35.192966
34.562945
35.594702
35.300851
35.220981
35.057664
35.779476
33.765435
35.240650
##ZVALUE=255
1.726747
1.723766
2.123713
2.166629
2.058744
2.388954
2.363920
2.585649
2.771616
5.170703
29.168725
81.565976
222.730637
387.690663
686.307549
967.077017
1015.684605
1015.684605
1015.684605
1015.684605
1015.684605
1015.684605
780.918598
460.834503
279.299617
146.547556
109.954476
108.003616
126.189590
143.356919
149.230957
145.545602
132.098794
106.471777
85.336566
60.469508
43.654442
26.126504
18.687844
13.329983
10.867715
10.829568
10.670424
10.969639
10.856986
10.701418
11.524558
11.737943
11.445880
11.793971
11.801720
11.835694
11.923909
12.929440
13.060570
13.194680
13.610721
13.649464
14.055967
14.510751
14.498830
15.463829
15.880466
16.381741
16.963482
16.711950
18.497705
21.508932
22.489429
24.994612
27.036667
29.631853
33.853650
36.571622
37.208796
36.625862
37.712455
39.037466
39.005876
36.342740
35.651922
36.401749
34.023523
32.132864
31.254888
32.964945
32.233596
32.000542
31.394958
32.324791
31.276941
31.148791
31.710863
31.389594
31.641722
32.275915
##ZVALUE=260
1.793504
1.940727
1.625419
1.606941
1.628995
2.090931
2.230406
1.892447
2.123713
2.372861
2.953410
4.602671
15.206933
64.599514
144.124627
342.269540
568.758845
942.210555
1015.681028
1015.681028
1015.681028
1015.681028
1015.681028
1015.681028
1009.549499
760.546923
451.060534
273.274779
128.362775
95.283985
110.305548
129.345655
145.563483
155.245662
148.975849
132.382512
114.232898
84.859729
63.046813
41.556954
27.447939
17.151833
12.643933
11.162758
9.864569
9.446740
10.680556
10.562539
9.695888
10.506511
11.041760
10.326505
11.680722
11.140704
11.853576
12.612939
12.346506
12.614727
12.696981
13.147593
13.288856
13.842583
14.355779
15.146732
15.158653
16.225576
17.121434
18.007755
20.138621
22.415519
22.633672
27.041435
28.404593
32.102466
32.945871
33.404827
33.777952
33.767819
32.276511
33.078790
31.198859
31.421781
29.890537
29.093623
29.436946
29.757619
30.300617
29.194951
28.549433
29.373765
29.225945
29.416680
29.617548
28.648973
29.670596
29.841661
##ZVALUE=265
1.607537
1.709461
1.712441
1.831651
1.787543
1.693964
1.887679
1.667738
2.316833
2.171993
2.088547
2.530813
2.696514
3.453493
8.210540
27.887821
106.763840
227.004886
511.187911
810.473561
1015.684605
1015.684605
1015.684605
1015.684605
1015.684605
1015.684605
1015.684605
1002.404690
733.922720
402.866006
223.450661
101.467967
89.108944
112.803578
134.270787
151.195526
159.026980
151.232481
137.309432
108.318925
90.450644
59.803724
41.798949
25.852919
17.390847
11.958480
10.883808
9.674430
10.042787
10.825992
9.889603
10.825992
10.293722
11.503696
10.890961
11.936426
11.375546
11.096597
11.842847
12.810826
12.614727
13.000965
13.181567
13.543963
13.899803
14.593601
16.141534
16.849637
18.195510
20.842552
22.209883
24.494529
27.942657
28.786659
30.016899
30.297637
30.226707
28.899908
29.136539
28.787851
27.135611
28.529763
26.743412
26.514530
26.640892
27.209520
25.979877
26.693940
27.548671
26.508570
26.718974
27.213693
26.778579
28.047562
27.577877
27.312636
##ZVALUE=270
1.574755
1.564622
1.793504
1.713634
1.342893
1.452565
1.584888
1.740456
1.865625
1.669526
1.790524
2.019405
2.109408
2.783537
2.748966
2.761483
3.897548
17.657876
54.092407
176.345706
365.970731
653.295517
1015.678644
1015.678644
1015.678644
1015.678644
1015.678644
1015.678644
1015.678644
1015.678644
1004.082561
596.020818
345.555544
133.690834
80.595613
88.825822
110.079646
138.129592
151.212811
157.711506
154.058933
136.301517
114.892721
84.348917
62.782764
38.244724
27.587414
18.360615
13.250709
10.845661
10.360479
10.469556
10.821819
10.237694
10.394454
10.842681
11.225939
11.324883
11.620522
12.009740
12.715459
12.866855
13.277531
12.914538
13.595819
14.225841
15.176535
16.063452
16.825795
18.494725
20.975471
23.172498
24.732947
25.858879
28.045774
28.119683
27.667880
27.841926
27.820468
26.974678
26.596785
24.955869
24.122596
24.566650
24.875998
24.356842
24.333000
26.201606
25.591850
24.838448
24.814606
26.057959
25.636554
25.502443
25.983453
25.435686
##ZVALUE=275
1.333952
1.605749
1.682639
1.458526
1.487732
1.508594
1.692772
1.563430
1.378655
1.579523
1.784563
2.201796
1.976490
1.931787
2.093911
2.290606
2.382994
2.924800
3.102422
8.963943
36.324859
97.677708
292.452574
551.317930
995.836854
1015.677452
1015.677452
1015.677452
1015.677452
1015.677452
1015.677452
1015.677452
1015.678048
781.027675
466.651917
195.973516
95.048547
66.713691
82.630515
112.580657
129.753947
150.759816
156.330466
148.233771
135.127902
109.710693
87.368488
62.429905
43.649673
27.164817
18.903613
12.948513
11.202693
10.542870
10.392666
10.595918
10.816455
11.356473
10.206699
11.479855
12.163520
12.647510
12.915730
12.838840
13.245940
13.504624
14.656782
15.424490
16.475916
18.499494
18.808842
20.959973
22.282600
24.399757
25.234818
26.059747
26.785731
26.650429
25.617480
25.407672
24.773479
23.706555
23.455620
23.341775
23.652911
23.131967
22.384524
24.074912
23.062825
23.371577
23.296475
23.076534
23.732781
23.739934
24.416447
23.583770
##ZVALUE=280
1.176596
1.195669
1.412630
1.284480
1.253486
1.591444
1.496673
1.336932
1.328588
1.363754
1.438856
1.506805
1.580715
1.913905
2.000928
1.768470
2.275705
2.210736
2.587438
2.695918
3.144741
5.237460
20.922422
97.804666
223.214626
507.809520
806.023479
1015.684605
1015.684605
1015.684605
1015.684605
1015.684605
1015.684605
1015.684605
1015.684605
970.148444
632.688999
291.685462
142.492652
59.372783
59.332848
84.549785
106.507540
133.254528
148.020983
152.618885
148.800611
129.571557
112.379789
85.447431
64.963698
41.360855
28.801560
18.147826
14.251471
12.340546
11.454821
11.240840
11.361837
11.534691
11.969805
12.589693
12.739897
13.573766
13.595819
14.156699
14.601946
15.611649
16.313791
17.672777
18.898845
20.536780
21.592975
22.626519
24.081469
24.760962
24.340749
24.147630
23.961663
22.859573
23.783445
23.358464
22.904873
23.071766
23.013949
22.978783
23.302436
22.431612
23.077726
22.758842
22.815466
22.784472
22.498965
22.795796
21.994710
22.352934
##ZVALUE=285
1.153946
1.179576
1.402497
1.510978
1.173615
1.204610
1.295805
1.211762
1.354814
1.312494
1.493692
1.344681
1.540780
1.660585
1.723766
1.868606
1.678467
2.144575
2.178550
2.299547
2.692938
2.628565
3.326535
3.523827
10.674000
38.926601
143.230557
301.714540
646.087527
981.145501
1015.684605
1015.684605
1015.684605
1015.684605
1015.684605
1015.684605
1015.684605
1015.684605
914.425850
491.489768
265.760422
94.667673
47.309995
58.209896
77.388883
106.875896
124.811530
145.151615
151.574612
146.416426
135.174990
110.204816
91.523528
64.927936
47.027469
29.621720
22.037625
16.143918
14.210939
13.755560
13.917685
13.680458
14.312863
14.704466
15.236735
16.090870
15.492439
17.120838
17.159581
19.007921
20.009875
21.144748
22.449493
24.023652
24.476647
24.219751
23.830533
23.713708
23.881793
22.909641
23.477674
22.983551
22.643805
22.584796
22.559762
22.344589
22.622943
22.999644
23.332834
22.470951
22.310615
22.561550
22.398829
22.842884
21.872520
22.185445
##ZVALUE=290
1.086593
1.083612
1.097918
1.327991
1.496673
1.155734
1.160502
1.267791
1.051426
1.255870
1.438856
1.176000
1.365542
1.269579
1.410842
1.404881
1.522899
1.694560
1.765490
1.825690
2.401471
2.185702
2.339482
2.476573
2.980828
3.185868
4.742742
25.586486
77.942610
237.444639
445.073843
895.543694
1015.684605
1015.684605
1015.684605
1015.684605
1015.684605
1015.684605
1015.684605
1015.684605
1001.414061
595.319867
347.356796
140.411854
58.384538
39.296746
53.036809
75.537562
96.334815
128.540993
138.629675
144.694448
131.430626
129.614472
108.263493
84.345937
52.254796
43.665767
24.815798
21.654963
15.978813
14.141798
13.078451
13.306737
13.799667
14.148951
14.468431
14.737844
16.529560
16.762614
19.106865
20.119548
21.398664
21.855831
22.101998
22.720695
23.244619
23.107529
21.984577
22.278428
21.668673
22.302866
21.593571
22.141933
22.315979
22.378564
22.223592
22.547841
22.126436
21.914840
22.577643
22.014976
21.551847
21.733642
21.765828
22.170544
##ZVALUE=295
0.875592
0.931621
0.960827
1.002550
0.880957
1.002550
0.918508
1.004934
0.887513
0.812411
1.129508
1.117587
1.055598
1.121759
1.115799
1.285672
1.229644
1.102686
1.330972
1.408458
1.486540
1.708865
1.855493
2.123713
2.317429
2.348423
2.824664
2.736449
3.613830
7.055998
26.454926
119.837523
276.293755
656.377673
998.039842
1015.504599
1015.504599
1015.504599
1015.504599
1015.504599
1015.504599
1015.504599
1015.504599
801.146626
473.291874
185.827613
77.841878
31.266809
32.891631
51.422715
65.802932
93.932748
110.388994
130.648613
138.508677
135.957599
125.252604
104.758739
84.563494
59.779882
44.873953
29.366612
22.024512
16.057491
14.591813
13.730526
14.250875
14.607906
16.020536
17.075539
17.580986
18.684864
20.067692
20.549893
21.966696
21.944642
21.899939
21.726489
22.114515
21.815896
21.330714
21.718740
21.357536
22.097826
21.673441
21.891594
21.882653
21.827817
22.354722
22.091866
21.913648
22.218823
21.979809
21.633506
22.194982
21.732450
##ZVALUE=300
0.818968
0.928640
1.138449
0.968575
0.976920
0.997782
1.132488
0.906587
1.201630
1.121759
1.057982
1.178980
1.195669
1.174808
1.060963
1.239777
1.247525
1.360774
1.286864
1.419783
1.562834
1.604557
1.746416
1.717806
1.898408
2.042651
2.205968
2.307892
2.828836
3.106594
3.213882
4.097819
11.301637
66.684484
170.537829
449.766517
782.506466
1015.684605
1015.684605
1015.684605
1015.684605
1015.684605
1015.684605
1015.684605
1015.684605
963.479877
628.289580
306.649804
145.352483
39.682984
23.491979
31.025410
42.193532
63.567758
84.130764
106.440783
122.245550
132.592916
131.011605
121.416450
104.749799
81.662536
64.721704
44.225454
33.446550
22.362471
18.996596
16.080737
16.223788
16.602874
17.713904
18.580556
20.261407
21.351576
21.687746
21.696687
21.582842
21.443963
21.114945
21.637678
21.513700
21.444559
21.691918
22.151470
21.997690
22.295713
22.061467
22.402406
22.520423
22.141933
22.103786
22.135973
21.762848
21.316409
21.584630
21.777749
##ZVALUE=305
0.933409
1.056790
0.948906
0.957847
1.118779
1.117587
1.162887
0.865459
1.043677
1.042485
1.111627
1.081824
1.019835
1.164675
1.151562
1.348853
1.297593
1.247525
1.328588
1.442432
1.418591
1.360774
1.776814
1.679659
1.747608
1.927614
1.980662
2.221465
2.266765
2.461672
2.743602
2.815723
3.069639
3.492832
6.708503
42.578578
122.950673
360.630751
646.777749
1015.812755
1015.812755
1015.812755
1015.812755
1015.812755
1015.812755
1015.812755
1015.812755
1015.812755
711.944699
332.005620
162.247419
48.714876
21.287799
20.741820
28.482676
43.658614
58.258772
82.573891
100.359917
118.757486
125.774741
124.376416
117.504597
100.430846
83.069801
60.647726
46.585798
31.989813
25.469661
20.658970
19.391775
18.702745
19.979477
20.600557
21.612644
21.839738
21.612644
21.816492
22.126436
22.097826
22.206903
22.572875
22.363663
22.696853
23.204684
23.320913
23.139715
23.141503
23.328662
22.813678
22.636652
22.499561
22.480488
21.870732
21.441579
22.189617
##ZVALUE=310
0.534654
0.808835
0.747442
0.852942
0.995994
0.860691
0.747442
0.921488
0.938773
1.117587
1.012683
0.901818
0.950694
1.140833
1.121759
1.100898
1.079440
1.135468
1.140833
1.140833
1.197457
1.208782
1.430511
1.350641
1.406670
1.752973
1.625419
1.734495
1.848936
1.783967
2.034903
2.299547
2.478957
2.689958
3.046989
3.453493
4.016757
20.339489
73.711872
263.255835
523.727536
987.876654
1015.684605
1015.684605
1015.684605
1015.684605
1015.684605
1015.684605
1015.684605
1015.684605
931.407809
480.272770
251.937509
86.766481
31.371713
15.661716
18.460751
27.051568
36.857724
54.962635
71.322918
94.137788
108.096004
119.699836
120.587945
112.761855
100.131631
80.248713
64.659715
47.190785
37.097931
28.315783
24.598837
22.823811
21.992922
21.925569
21.349788
21.693707
21.793842
22.035837
22.069812
22.233725
22.960901
23.389459
22.835732
22.807717
23.238659
22.998452
22.837520
22.995472
23.201704
22.500753
22.868514
22.524595
22.238493
22.403598
##ZVALUE=315
0.862479
0.934601
0.918508
1.014471
0.861883
0.953674
0.835657
0.774860
0.954866
0.846982
0.866652
1.005530
0.966787
1.086593
0.835657
1.019835
0.954866
0.911951
1.136661
1.055598
1.074672
1.375675
1.163483
1.409650
1.612902
1.475811
1.581907
1.658797
1.571774
1.939535
1.880527
1.976490
1.969934
2.091527
2.495646
2.785921
2.983809
3.541708
4.016757
10.156631
45.415759
230.613947
524.899960
1015.684605
1015.684605
1015.684605
1015.684605
1015.684605
1015.684605
1015.684605
1015.684605
1015.684605
1015.684605
630.875826
337.574482
114.781857
45.081973
17.175674
14.980435
19.033551
24.100542
37.913918
50.382614
70.450902
85.942745
104.058981
114.734769
116.260648
110.874772
96.581578
82.993507
64.474940
51.568747
37.410855
30.852556
25.120974
23.266673
22.701621
22.121668
21.739602
22.219419
22.596717
23.014545
23.382902
23.163557
24.115443
23.272634
23.052692
23.270845
23.354888
23.135543
23.312569
23.148656
22.727847
23.293495
22.698641
##ZVALUE=320
0.830889
0.775456
0.807643
0.824928
0.869632
0.817776
0.911951
1.069903
0.834465
0.951886
0.828505
1.039505
0.950694
1.030564
0.991821
0.949502
1.100898
1.056790
1.002550
1.023412
1.089573
1.151562
1.248717
1.238585
1.285672
1.254678
1.418591
1.517534
1.626611
1.568794
1.638532
1.884699
1.924634
2.107620
2.065897
2.272725
2.532601
2.862811
3.073812
3.464818
4.157424
5.620718
23.188591
143.870711
374.800563
925.529599
1015.684605
1015.684605
1015.684605
1015.684605
1015.684605
1015.684605
1015.684605
1015.684605
1015.684605
868.181586
495.180488
197.904706
77.827573
22.450686
14.985800
15.104413
17.550588
24.484992
33.503771
49.929619
64.696670
84.915757
99.473596
111.091733
113.371611
108.550787
98.210573
80.034733
65.657496
48.922896
39.116740
30.765533
26.213527
23.717880
23.308992
22.638440
22.859573
23.009777
23.445487
23.574829
23.412704
23.864508
23.988485
23.862720
23.898482
23.175478
23.043752
22.948980
22.597909
22.762418
##ZVALUE=325
0.920892
0.719428
0.761747
0.733733
0.854731
0.793934
0.849962
0.766516
0.756979
0.829697
0.909567
0.865459
0.778437
0.856519
0.911951
0.947714
0.859499
0.986457
0.822544
1.110435
1.259446
1.027584
1.094937
1.237988
1.082420
1.145601
1.180768
1.334548
1.506805
1.716614
1.547933
1.768470
1.758933
1.847744
1.828671
2.207756
2.071857
2.410412
2.520680
2.847910
3.134608
3.471971
3.865957
4.954934
13.451576
119.737983
324.974656
799.612999
1015.681028
1015.681028
1015.681028
1015.681028
1015.681028
1015.681028
1015.681028
1015.681028
1015.681028
1004.008055
662.663579
296.836495
131.588578
33.365488
16.606450
14.808774
15.377998
18.796921
24.473667
35.193563
48.249960
68.045855
83.417892
98.819733
107.507706
109.051466
102.797747
89.536905
76.519847
59.846640
47.594905
36.498904
29.934645
26.370883
24.554729
23.423433
23.505688
23.280978
23.273826
23.217797
23.662448
23.280978
23.110509
23.384690
22.463799
22.645593
22.745728
22.252798
##ZVALUE=330
0.685453
0.750422
0.780821
0.815988
0.843406
0.860691
0.870824
0.878572
0.765920
0.906587
0.819564
0.907779
0.784993
0.963807
0.903606
0.813603
1.021624
0.921488
0.970960
1.121759
1.042485
0.977516
1.183748
1.174808
1.265407
1.415610
1.340508
1.360774
1.301765
1.390576
1.544952
1.431704
1.689792
1.715422
1.679659
1.696944
2.012849
2.128482
2.450943
2.468824
2.829432
2.814531
3.045797
3.589988
4.109740
4.796982
6.784797
44.949651
174.617767
620.334744
1015.686989
1015.686989
1015.686989
1015.686989
1015.686989
1015.686989
1015.686989
1015.686989
1015.686989
1015.686989
819.094777
397.725701
205.645561
67.287683
24.513602
15.228987
14.605522
16.076565
19.269586
26.767850
34.906864
48.639774
62.186718
81.836581
93.198419
101.819634
103.205442
97.272992
87.574720
72.270632
59.354901
45.828819
37.152767
30.801892
27.356744
24.428964
23.506880
23.288727
23.137927
22.914410
22.492409
23.033619
22.268891
22.664666
22.435784
22.414923
##ZVALUE=335
0.877976
0.867844
0.764728
0.856519
0.850558
1.005530
0.668764
0.736713
0.847578
0.943542
0.819564
0.836849
1.002550
0.957847
1.006722
0.944734
0.899434
0.897646
0.979900
1.014471
1.222491
1.007915
1.200438
1.253486
1.160502
1.269579
1.317859
1.375675
1.513958
1.541972
1.530647
1.379848
1.737475
1.690984
1.424551
1.795888
1.931787
1.926422
1.928806
2.144575
2.112985
2.394915
2.643466
2.833605
3.021955
3.591776
4.072785
4.520416
5.191565
18.028021
73.910952
319.728851
695.329905
1015.771031
1015.771031
1015.771031
1015.771031
1015.771031
1015.771031
1015.771031
1015.771031
1015.771031
973.093510
516.776443
278.704762
101.201534
39.200783
17.001629
15.976429
16.784668
18.349886
21.893978
26.478767
36.284924
46.942830
63.544512
75.388551
89.334846
95.839500
97.651482
91.920495
81.492662
71.148872
57.781935
47.768950
37.284493
31.125546
26.773810
24.439692
23.043752
22.647977
21.943450
22.205710
21.128654
22.028685
21.875501
##ZVALUE=340
0.963807
0.827909
0.797510
0.711679
0.715852
0.634789
0.709891
0.881553
0.774860
0.758767
0.682473
0.747442
0.862479
0.718832
0.782609
0.776649
0.773668
1.041889
0.960827
1.047850
1.009703
1.050830
1.001954
0.852942
1.229644
1.123548
1.068711
1.040697
1.265407
1.265407
1.310706
1.321435
1.334548
1.380444
1.527667
1.499653
1.668930
1.610518
1.925826
1.813769
1.812577
1.935959
2.188683
2.276897
2.374649
2.653599
2.998710
3.355742
3.688931
4.184842
4.727840
8.045435
33.160448
187.020898
474.215746
1015.684605
1015.684605
1015.684605
1015.684605
1015.684605
1015.684605
1015.684605
1015.684605
1015.684605
1015.684605
651.571751
335.964561
125.338435
53.344965
20.608902
17.377734
17.570853
18.035769
19.380450
21.738410
27.577877
33.967495
46.333671
58.126450
73.617697
83.478689
91.886520
92.754960
86.907744
79.925656
67.121983
57.112575
44.249892
37.067533
29.926896
26.060939
22.952557
21.838546
21.298528
20.916462
21.142960
##ZVALUE=345
0.894666
0.731945
0.729561
0.767708
0.617504
0.737906
0.703931
0.859499
0.913739
0.820756
0.877976
0.788569
0.727773
0.793934
0.849962
0.806451
0.826716
0.836849
0.880957
0.931621
0.951886
1.194477
0.967979
1.148582
1.019835
1.146793
0.993609
1.049638
1.183748
1.264811
1.159906
1.358986
1.549721
1.359582
1.344681
1.480579
1.460910
1.553893
1.854897
1.742840
1.814961
1.834631
2.280474
2.058744
2.131462
2.385974
2.641678
2.792478
3.032684
3.123879
3.581643
4.086494
4.558563
5.310774
11.887550
92.342496
285.975933
829.286575
1015.684605
1015.684605
1015.684605
1015.684605
1015.684605
1015.684605
1015.684605
1015.684605
1015.684605
957.429409
533.494949
209.728479
94.138980
30.688643
18.904805
17.954707
17.644763
17.598867
17.814636
20.106435
24.377704
33.029914
42.333603
56.755543
66.779852
77.190995
84.085464
86.164474
83.688498
75.135827
67.486763
54.645538
44.983625
35.020709
29.738545
24.464726
22.501945
21.186471
##ZVALUE=350
0.729561
0.991821
0.820756
0.870824
0.842810
0.871420
0.816584
0.867844
0.920892
0.967979
0.794530
0.846982
0.755787
0.792742
0.995994
0.917912
0.937581
0.956655
0.999570
0.983477
1.010895
1.162887
1.047850
1.126528
1.185536
1.035929
1.286864
1.256466
1.198649
1.388788
1.255870
1.308918
1.447797
1.187921
1.445413
1.421571
1.349449
1.527667
1.638532
1.644492
1.782775
1.860857
1.889467
1.917481
2.043843
2.243519
2.157688
2.376437
2.795458
2.804995
3.099442
3.179908
3.631711
4.129410
4.721880
5.221963
7.500648
43.046474
146.300793
504.430532
966.238976
1015.684009
1015.684009
1015.684009
1015.684009
1015.684009
1015.684009
1015.684009
1015.684009
1015.684009
812.713504
353.850722
163.362622
47.068596
21.545887
17.105937
16.173720
16.028881
16.226768
17.008781
19.067526
23.977757
29.858947
39.244890
47.843456
60.189962
69.065690
76.759458
79.596639
77.255964
71.565509
60.927868
52.427649
41.586757
34.791827
27.907491
##ZVALUE=355
0.875592
0.908971
0.933409
0.891685
0.907779
0.995994
0.894666
0.788569
0.865459
0.838637
0.813603
0.984669
1.000762
1.066923
1.065731
0.927448
1.127720
1.102686
1.015663
1.040697
1.056790
1.226664
1.146793
1.117587
1.262426
1.108646
1.254678
1.221895
1.238585
1.304746
1.270771
1.355410
1.579523
1.507998
1.544952
1.510978
1.598597
1.568794
1.691580
1.606941
1.792908
1.815557
1.992583
1.992583
1.970530
2.042651
2.198815
2.311468
2.506971
2.938509
2.714992
2.909899
3.252625
3.673434
3.728867
4.332662
4.647970
5.470514
6.283522
17.371774
66.745877
289.269686
637.011528
1015.684605
1015.684605
1015.684605
1015.684605
1015.684605
1015.684605
1015.684605
1015.684605
1015.684605
999.704599
429.378748
186.675787
55.507421
24.244785
16.762614
16.061664
15.545487
15.445948
16.077757
16.505718
18.404722
21.189451
27.279854
33.934712
44.378638
52.387714
62.720776
69.011450
72.193742
71.069002
65.773726
58.302879
48.936605
##ZVALUE=360
0.982881
1.084805
0.970960
0.930429
1.029968
1.086593
0.930429
0.989437
1.094937
0.999570
1.032948
1.031756
0.981688
1.165867
1.196861
1.066923
1.155734
0.983477
1.200438
1.265407
1.303554
1.163483
1.357794
1.279712
1.210570
1.245737
1.355410
1.335740
1.328588
1.408458
1.515746
1.407862
1.705885
1.685619
1.639724
1.427531
1.689792
1.572967
1.732707
1.787543
1.850724
1.909733
2.042651
2.077818
1.991987
2.136827
2.270937
2.275705
2.470613
2.701879
2.980828
2.949834
3.224611
3.313422
3.434420
3.817677
4.291534
4.543662
4.975796
5.729795
6.369948
9.296536
27.495623
136.051774
364.753604
960.586667
1015.705466
1015.705466
1015.705466
1015.705466
1015.705466
1015.705466
1015.705466
1015.705466
1015.706062
715.314746
330.678821
96.856952
35.324693
18.044710
16.498566
15.480518
15.267730
15.190840
14.907718
15.432835
16.664863
19.485950
22.931695
29.279590
36.424994
45.978427
53.849816
61.136484
65.236688
65.036416
##ZVALUE=365
0.742674
0.736713
0.910759
0.914931
0.883937
0.953674
1.051426
0.872612
1.087785
1.109838
0.970960
1.088977
1.158714
0.985861
1.202822
0.906587
1.091957
1.211762
1.012683
0.968575
0.952482
1.077652
1.179576
1.141429
1.282692
1.372695
1.315475
1.389980
1.332760
1.436472
1.328588
1.541972
1.508594
1.407862
1.447797
1.577735
1.531839
1.525879
1.574755
1.671910
1.756549
1.806617
1.732707
1.647472
1.977682
2.037883
2.010465
2.176762
2.344847
2.438426
2.455711
2.541542
2.461672
2.777576
2.877712
3.112555
3.231764
3.581643
3.892779
4.229546
4.902482
5.618930
6.043911
7.197857
12.997985
69.517493
215.936899
672.788620
1015.684605
1015.684605
1015.684605
1015.684605
1015.684605
1015.684605
1015.684605
1015.684605
1015.684605
1015.684605
634.689927
207.513571
68.682432
19.353628
15.429854
14.808774
14.274716
13.653636
13.534427
13.514757
13.750792
14.339685
16.521811
19.719601
24.426579
31.886697
38.083792
47.151446
##ZVALUE=370
0.884533
0.814795
0.971556
0.944734
0.970960
0.871420
0.875592
1.057982
0.912547
1.045465
0.856519
0.920892
0.917912
0.996590
1.058578
0.990629
1.046658
0.880957
1.146793
1.061559
1.056790
1.131892
1.023412
1.059771
1.129508
1.296997
1.394749
1.186728
1.160502
1.099706
1.246929
1.241565
1.193881
1.236796
1.357794
1.379848
1.401901
1.371503
1.396537
1.469851
1.569986
1.483560
1.668930
1.737475
1.661777
1.560450
1.576543
1.644492
1.965761
2.009869
1.954436
1.995564
2.066493
2.154708
2.182722
2.462864
2.679825
2.692938
2.824664
3.235936
3.314614
3.904700
3.980994
4.508495
5.190969
5.888939
8.400679
37.234426
125.841498
442.744493
886.520743
1015.733480
1015.733480
1015.733480
1015.733480
1015.733480
1015.733480
1015.733480
1015.733480
1015.733480
909.487605
362.447500
157.579780
41.171908
17.150640
13.431907
12.676716
12.195706
12.002587
11.971593
11.818409
12.328625
12.528896
14.273524
16.436577
21.806955
##ZVALUE=375
0.773668
0.782609
0.744462
0.748634
0.882745
0.781417
1.047850
0.883937
0.797510
0.908971
0.848770
0.767708
0.712872
0.784993
0.855923
0.792742
0.738502
0.716448
0.776649
0.805855
0.956655
0.925660
1.120567
1.107454
0.967979
0.963807
0.844598
0.845790
1.023412
1.218915
0.990629
1.035929
1.049638
1.189709
0.927448
1.069903
1.056790
1.083612
1.169443
1.210570
1.269579
1.003742
1.278520
1.328588
1.272559
1.402497
1.337528
1.276731
1.468658
1.556873
1.545548
1.602769
1.809597
1.860857
1.922846
1.907945
1.950860
2.282858
2.118945
2.481937
2.244711
2.684593
2.919436
3.221631
3.573895
3.758669
4.400611
5.847812
6.556511
36.183596
80.620646
380.802751
674.048662
1015.684605
1015.684605
1015.684605
1015.684605
1015.684605
1015.684605
1015.684605
1015.684605
1015.684605
1014.995575
621.485710
327.947736
97.422600
30.357838
12.808442
12.242794
11.463761
10.873675
10.670424
10.527968
10.631680
10.857582
11.940598
##ZVALUE=380
0.726581
0.681877
0.658631
0.542998
0.720620
0.747442
0.535846
0.744462
0.688434
0.677705
0.663996
0.770688
0.722408
0.638962
0.668764
0.558496
0.716448
0.675917
0.708699
0.803471
0.877976
0.635982
0.817776
0.874996
0.733733
0.826716
0.784993
0.904799
0.828505
0.977516
0.924468
0.982881
0.856519
0.926852
0.903606
1.192689
0.846982
0.979900
0.998974
0.909567
1.008511
1.151562
1.103878
1.057982
1.236796
1.306534
1.230836
1.308918
1.173615
1.412630
1.367927
1.507998
1.443624
1.558661
1.462698
1.652837
1.658797
1.701713
1.904964
2.026558
2.209544
2.182722
2.608895
2.457500
2.830625
3.145933
3.397465
3.988743
4.526973
5.629659
6.328821
9.975433
36.434531
309.983492
419.560671
1015.684605
1015.684605
1015.684605
1015.684605
1015.684605
1015.684605
1015.684605
1015.684605
1015.684605
1015.684605
477.965474
332.911015
149.231553
39.842725
15.007854
10.674596
10.522604
9.591579
9.500980
9.707808
9.560585
##ZVALUE=385
0.701547
0.515580
0.429749
0.559688
0.619888
0.464916
0.544786
0.642538
0.397563
0.552535
0.722408
0.633597
0.660419
0.698566
0.836849
0.710487
0.675917
0.543594
0.632405
0.619888
0.642538
0.689626
0.788569
0.688434
0.750422
0.821948
0.820756
0.740886
0.732541
0.706911
0.881553
0.723600
0.705719
0.976920
0.836849
0.828505
1.000762
0.811815
0.942945
0.945926
0.908971
0.888705
0.948906
1.054406
0.972748
1.049638
1.003742
1.174808
1.212955
1.163483
1.379848
1.126528
1.247525
1.295805
1.297593
1.302958
1.594424
1.564622
1.625419
1.689792
1.776814
1.774430
1.905560
1.959801
2.249479
2.435446
2.901554
2.936721
3.549457
4.052520
4.706979
5.125999
5.912781
6.265640
17.934442
64.970255
265.680552
618.040562
1015.684605
1015.684605
1015.684605
1015.684605
1015.684605
1015.684605
1015.684605
1015.684605
1015.684605
1015.684605
540.950894
243.541598
67.543983
21.302700
10.597706
9.734631
9.206533
9.055734
##ZVALUE=390
0.468493
0.549555
0.560880
0.479817
0.631809
0.583529
0.587702
0.415444
0.501871
0.637770
0.641942
0.592470
0.716448
0.595450
0.554919
0.683665
0.541806
0.589490
0.625849
0.622869
0.545979
0.684857
0.512600
0.702739
0.731945
0.668764
0.765920
0.724792
0.763535
0.751615
0.660419
0.874996
0.678897
0.662804
0.684857
0.652671
0.787973
0.799894
0.815988
0.840425
0.975728
0.915527
1.087785
0.996590
0.992417
1.025796
0.971556
1.057982
0.975728
1.184940
1.222491
0.997782
1.125932
1.063943
1.279712
1.326799
1.321435
1.444817
1.317859
1.379848
1.600981
1.817942
1.815557
1.730919
2.078414
2.373457
2.640486
2.834797
3.300905
3.553629
4.062653
4.354715
4.545450
4.834533
4.906654
5.415678
10.536909
44.373870
213.811398
507.506728
1015.684605
1015.684605
1015.684605
1015.684605
1015.684605
1015.684605
1015.684605
1015.684605
1015.684605
1015.684605
830.352902
408.111811
119.299889
35.964847
11.015534
9.407997
##ZVALUE=395
0.611544
0.573993
0.542998
0.595450
0.602603
0.501871
0.713468
0.539422
0.642538
0.670552
0.618696
0.390410
0.411868
0.697970
0.567436
0.529885
0.614524
0.590682
0.527501
0.591874
0.536442
0.611544
0.696778
0.645518
0.638962
0.723600
0.654459
0.768900
0.688434
0.860691
1.020432
0.793934
0.695586
0.865459
0.726581
0.742674
0.795722
0.741482
0.786781
0.962615
0.879765
0.797510
0.795722
1.016855
0.869632
1.033545
1.223683
0.910759
1.054406
1.153946
1.194477
1.174808
1.340508
1.276731
1.179576
1.347661
1.339912
1.472831
1.510978
1.475811
1.518726
1.783967
1.713634
1.749992
1.945496
2.097487
2.379417
2.775788
3.079772
3.411770
3.763437
3.954768
4.135966
4.096627
4.360676
4.365444
4.757643
5.375743
6.875992
38.965940
148.064494
509.395003
947.108865
1015.684605
1015.684605
1015.684605
1015.684605
1015.684605
1015.684605
1015.684605
1015.684605
1015.684605
1015.684605
492.689013
224.186778
60.952902
##ZVALUE=400
0.450611
0.566840
0.481606
0.504851
0.872612
0.510812
0.362992
0.483990
0.618696
0.582933
0.483990
0.672936
0.640750
0.594854
0.491738
0.469685
0.527501
0.609756
0.729561
0.657439
0.678897
0.670552
0.836849
0.640750
0.654459
0.791550
0.706911
0.602603
0.659823
0.771880
0.765920
0.726581
0.776649
0.888705
0.783801
0.921488
0.791550
0.926852
0.882745
0.934601
0.720620
0.916719
0.918508
0.838637
0.977516
1.104474
0.992417
1.215935
1.193881
1.009703
1.156926
1.110435
1.035929
1.125932
1.200438
1.313686
1.283884
1.379848
1.267791
1.509786
1.509786
1.543760
1.430511
1.755953
1.744628
2.166629
2.493858
2.791882
3.035665
3.317595
3.564954
3.766418
3.749728
3.712773
3.691912
3.852844
3.938675
4.287958
4.859567
5.686879
6.213784
18.207431
71.523786
291.622877
647.086501
1015.684009
1015.684009
1015.684009
1015.684009
1015.684009
1015.684009
1015.684009
1015.684009
1015.684009
1015.684009
639.906526
##END
