##TITLE=QP00602
##FORMAT=SPECTACLE-ASCII V-1.2
##DATA TYPE=ULTRAVIOLET SPECTRUM
##SECOND TYPE=ULTRAVIOLET SPECTRUM
##DATE=05/07/18
##TIME=14:47:51
##SPECTROMETER/DATA SYSTEM=SPECTACLE
##XUNITS=NM EM
##YUNITS=ENERGY
##YFACTOR=1
##FIRSTX=220
##LASTX=410
##NPOINTS=96
##3DDATA=Equidistant
##ZUNITS=NM EX
##FIRSTZ=210
##LASTZ=400
##ZPOINTS=39
##XYDATA=(Y..Y)
##ZVALUE=210
2.326965
2.640486
2.821684
2.570748
3.142953
3.727674
3.340840
3.607869
2.827644
2.895594
2.933741
3.154874
3.379583
3.479719
3.279448
3.167987
3.222823
3.108978
3.613830
4.104972
3.778934
3.934503
4.362464
4.492998
4.658699
4.793406
6.099939
5.151629
4.760623
5.654693
5.831718
6.070733
6.183982
6.595850
6.378889
5.700588
6.004572
5.753636
6.216764
6.336570
8.311868
7.394552
7.650852
7.387996
7.404685
8.420944
7.246733
7.858872
7.504821
7.416606
7.713437
8.574724
7.891655
9.596944
8.904934
8.115768
8.960962
8.073449
8.719563
8.680820
9.228587
8.673668
9.142756
10.222793
9.644628
10.793805
11.337996
12.966990
14.408827
16.167760
18.521547
22.142529
25.158525
29.494762
30.580759
31.763911
31.337738
29.343963
27.934909
27.501583
25.364757
21.415949
20.608902
17.813444
14.254451
12.719631
12.072921
10.362864
9.140968
9.545684
10.045767
9.189844
9.430647
10.121465
11.108518
10.792613
##ZVALUE=215
8.784533
8.371472
7.116795
6.933808
5.866885
5.081892
5.263686
5.605817
4.937649
6.154776
5.326867
5.474687
5.172491
4.266500
4.315972
3.503561
3.507733
3.418922
4.017949
3.752708
4.446507
4.572868
5.354881
4.140735
5.517602
5.414486
4.668832
5.622506
4.945993
5.514622
5.598664
6.431937
5.858541
6.071925
6.080866
6.486773
6.097555
6.165504
7.211566
7.164478
7.377863
7.119775
7.094741
6.746650
7.545948
7.211566
8.359551
8.183718
8.701682
7.646680
8.469820
8.146763
8.976460
8.467436
8.707643
9.161830
8.559823
8.481741
9.835958
9.195805
9.353757
9.770989
10.036826
9.542704
10.185838
10.699630
10.519624
11.981726
14.038682
14.107823
17.855763
22.013783
23.307800
26.215911
28.367639
30.594468
31.575561
29.753447
27.414560
22.879839
24.254918
20.172596
18.015504
15.657544
13.867617
12.198687
11.835694
11.110902
10.196567
9.977818
10.272861
10.006428
9.481907
10.593534
9.999871
9.835958
##ZVALUE=220
26.295781
26.397705
28.630495
29.180646
24.922490
21.291971
16.421676
14.917850
11.984706
11.687875
13.393760
13.846755
13.021827
12.341738
10.818839
8.194447
7.097721
5.339980
5.145669
4.296899
4.046559
4.854798
4.423857
5.059838
5.329847
5.078912
5.346537
5.858541
5.223751
5.000830
5.839467
5.375743
6.272793
7.552505
7.089972
7.673502
7.578731
7.252693
7.919669
7.976890
7.139444
8.193851
7.608533
7.528663
8.369684
8.828640
8.385777
8.728504
8.944869
8.391738
8.943677
9.542704
9.058714
9.106994
9.557605
10.435581
9.678602
11.158586
9.911656
9.350777
10.235906
9.902716
9.772778
9.345412
10.270476
10.848641
12.285709
12.322664
13.243556
14.512539
17.942786
20.069480
21.814704
26.022792
27.821660
29.305816
29.075742
28.599501
27.270913
25.057793
23.986697
21.890998
20.863414
18.616915
15.530586
14.455914
13.622642
13.005733
12.292862
10.969639
12.139678
11.831522
11.393428
11.049509
11.152625
10.869503
##ZVALUE=225
44.465661
46.028495
61.053634
78.506470
81.904531
82.536936
72.698593
61.944723
47.534704
32.976866
25.238991
25.640726
26.371479
24.442673
25.291443
26.990771
19.866824
16.413927
13.256669
10.135770
6.787777
6.055832
5.760789
5.832911
5.181432
5.784631
6.316900
6.162524
6.208420
6.885529
7.058978
6.747842
6.999969
6.914735
7.469654
8.588433
8.264780
9.052753
8.413792
9.346604
8.991957
9.085536
10.505915
10.688901
9.616613
9.728670
10.182858
10.376573
10.420680
10.093451
11.051893
10.983944
10.676980
11.089444
12.530684
12.720823
10.469556
12.313724
12.783408
12.538433
11.344552
12.041926
12.485981
12.009740
12.456775
12.954473
13.356805
15.638471
15.409589
20.925999
19.735694
22.262931
25.047660
29.697418
28.474927
28.663874
28.322935
26.627779
27.254820
23.192763
23.581982
21.342635
20.282865
19.196868
16.992688
16.890764
16.924739
14.174581
15.392900
14.018416
13.564825
14.147758
13.804436
14.587641
14.961958
14.732480
##ZVALUE=230
42.103529
43.825507
70.008636
115.613937
152.564645
188.248754
206.532478
202.588439
185.486674
154.522657
108.844638
76.398849
53.237677
44.765472
47.009587
49.766898
50.033927
51.020980
42.681694
38.222671
28.458834
18.813610
13.820529
7.838607
7.223487
6.483793
6.314516
7.889867
6.645918
7.067919
7.553697
7.600784
7.636547
8.253455
8.613467
8.917451
10.084510
9.204745
9.807944
9.041429
10.035634
9.396672
9.517670
11.284947
10.761619
11.643767
10.854602
12.003779
11.915565
10.852814
12.245774
13.091564
11.824965
11.765957
13.653636
11.406541
13.088584
14.145970
13.992786
13.282895
15.376806
15.339851
15.980601
14.438629
17.367601
16.970634
18.477440
17.358661
19.962788
22.615790
24.780631
25.811791
27.604699
31.350851
31.811595
31.613708
31.040907
30.954480
30.776858
29.224753
28.229952
25.576949
25.767684
23.555756
21.789670
21.492839
21.032691
21.802783
21.501780
20.816922
20.857453
20.420551
20.198822
19.759536
19.667745
19.307733
##ZVALUE=235
15.145540
14.932752
44.309497
79.255700
157.320499
222.563744
329.545736
399.804711
461.895466
440.585613
381.190777
305.949450
230.966806
145.465732
102.773905
73.796511
72.829723
78.203678
84.658861
85.367560
78.912973
70.412755
54.416656
38.379431
25.641918
17.328858
12.937784
10.183454
7.898808
8.755922
9.686947
9.909868
9.018779
8.764863
8.040667
9.752512
10.376573
9.659529
10.023713
10.445714
10.871887
11.412501
10.488629
11.267662
11.190772
10.836720
10.878444
12.963414
12.936592
13.431907
12.969971
14.041662
12.868643
13.347864
13.901591
14.005899
15.118718
14.278889
14.707446
15.895963
17.092824
17.448664
17.692447
18.296838
18.891692
19.484758
19.918680
22.807717
22.354722
23.435950
26.784539
31.453967
32.806993
36.750436
39.930940
37.892461
40.215850
36.648512
36.328435
36.667585
34.229755
34.597516
31.462908
29.817820
29.105544
28.513670
29.038787
27.933717
27.517676
27.969480
26.990771
25.677681
27.896762
28.398633
27.584434
27.427673
##ZVALUE=240
2.447963
2.620816
9.154677
21.737814
62.322617
111.783743
228.752494
339.137912
497.893691
611.738563
683.053732
663.992763
618.590713
478.113890
365.141630
226.500630
162.455440
113.184452
99.802613
100.796819
106.567740
115.509629
109.288692
102.653503
82.755685
65.774918
45.470595
32.839775
20.984411
14.845729
10.309815
9.503961
9.968877
9.740591
9.262562
8.776784
10.127425
9.885430
10.605454
10.288954
11.123419
9.796619
10.257959
10.364652
10.809898
10.876656
11.605620
11.690855
11.810660
10.312796
12.801886
11.765957
11.514425
11.090636
12.723804
12.785792
13.753772
14.138818
15.216470
15.308857
14.925599
15.905499
17.111897
18.937588
17.936826
19.474626
19.521713
23.535490
25.062561
26.741624
28.901696
29.870868
35.570860
38.179755
38.589835
38.083792
40.619969
39.268732
38.350821
40.218830
38.981438
36.453605
35.032630
35.092831
34.375787
32.580495
33.558607
34.432411
33.304691
31.939745
32.430887
31.662583
33.181906
33.959746
33.836961
33.030510
##ZVALUE=245
1.898408
1.905560
2.312660
2.879500
4.810691
15.434623
51.098466
106.144547
234.936476
365.054607
570.470691
712.123513
803.349018
846.346617
811.162591
661.667585
531.673431
346.224904
239.349008
137.807727
105.603933
99.188685
111.181736
117.612481
127.088428
122.004747
107.834935
91.858506
68.527460
52.867532
38.396716
23.279786
16.881824
10.505915
9.826422
9.448528
8.857846
8.907914
8.998513
8.111596
8.345842
8.351803
9.513497
9.963512
8.285642
9.560585
9.014606
9.655952
9.833574
9.692907
10.229945
10.202527
10.269880
9.785891
11.088848
11.576414
11.565685
13.347864
12.260675
12.713671
13.645887
14.289618
14.339685
15.896559
17.331839
17.104745
18.449426
20.852685
21.299720
23.268461
26.929975
29.004812
30.647516
33.273697
36.242604
35.173893
36.404729
36.608577
34.001470
35.550594
35.256743
34.447908
33.622980
33.112764
33.325553
31.845570
32.776594
32.808781
32.962561
31.245947
33.412576
32.342672
32.546520
32.016635
31.930804
31.915903
##ZVALUE=250
1.476407
2.168417
1.632571
1.982450
2.295971
2.089739
2.697706
11.347532
30.592680
91.772676
177.204609
358.088613
510.442853
730.558634
869.341493
963.710546
954.356790
853.191018
718.484521
503.926873
350.257754
209.413767
140.316486
108.653903
104.312897
116.393566
131.608844
137.668848
129.720569
119.529963
94.819665
77.292919
55.515766
37.380457
22.363663
16.156435
10.845661
8.557439
8.107424
8.762479
8.544922
8.633733
9.039640
8.240938
9.277463
9.176731
8.829832
9.582639
9.845495
9.771585
10.304451
9.333491
9.748936
10.176897
10.148883
11.165738
11.141896
11.769533
11.984706
12.226701
12.857914
12.959838
14.408827
14.730692
14.647841
15.439987
17.491579
16.811490
20.683408
21.805763
23.317933
26.399493
27.874708
30.437708
30.966997
31.891465
33.694506
31.164885
31.603575
31.579733
32.115579
33.490658
30.028820
30.777454
30.731559
30.130744
30.037761
31.145811
30.721426
31.649470
29.584765
30.108690
29.332638
31.189919
30.816793
30.257702
##ZVALUE=255
1.730919
1.518726
1.851916
1.425743
1.849532
1.987815
1.989603
2.298951
2.662539
5.091429
28.311610
70.711970
137.492418
305.050015
471.495986
727.829933
896.348953
1015.684605
1015.684605
1015.684605
936.832428
768.639445
490.748882
320.796967
167.693496
113.641620
92.549920
100.720525
122.346878
136.048794
142.487884
139.925480
128.292441
100.475550
79.527497
54.182410
39.303899
22.750497
15.672445
10.526776
8.649826
8.661747
8.775592
9.304881
9.438992
8.408427
8.888841
8.817911
8.929968
8.769631
9.643435
9.731650
9.744763
10.519624
9.228587
9.826422
10.759830
10.774732
11.019707
11.400580
11.724830
12.323856
12.696981
12.603998
13.292432
14.385581
15.817881
16.573668
16.572475
18.701553
20.507574
22.146702
24.163723
25.575757
27.329922
28.289557
27.569532
28.280616
29.178858
27.444959
27.588606
26.804805
27.941465
26.366711
26.203990
27.460456
27.202964
27.835965
26.577711
27.792454
28.020740
27.662516
26.918650
28.438568
29.083490
27.986765
##ZVALUE=260
1.321435
1.245737
1.300573
1.584888
1.272559
1.527667
1.516938
1.552701
1.782775
1.980662
2.402663
2.991557
10.246634
45.162439
100.347400
241.048932
400.448442
657.540560
884.670615
1015.603542
1015.603542
1015.603542
1015.603542
942.395926
633.623004
431.257486
235.973001
136.197805
85.615516
83.077550
97.334981
124.573708
138.773918
150.272846
145.080686
128.460526
111.265779
82.172751
61.881542
37.722588
26.070476
15.848875
11.477470
9.926558
9.798408
9.129643
9.559989
9.097457
9.559989
10.135770
9.944439
9.735823
9.465814
10.061860
10.091662
10.058880
11.078715
10.087490
10.500550
10.760427
11.246800
11.513829
11.679530
11.254549
12.167692
13.617873
14.835000
15.234947
16.131997
17.287731
18.265843
20.824671
21.928549
22.656918
25.162697
26.033521
25.764704
26.096702
25.175810
25.160909
25.283694
24.138689
25.640726
24.355650
24.456978
24.155974
25.541782
25.661588
25.843978
24.867654
25.146604
25.752783
26.939511
26.164651
27.264953
25.572777
##ZVALUE=265
1.481771
1.567602
1.327991
1.474619
1.534820
1.550913
1.608729
1.498461
1.571774
1.793504
1.847744
1.983643
2.052784
2.644658
7.602572
24.471879
89.853406
174.239874
311.578512
601.078868
865.549445
1015.684605
1015.684605
1015.684605
1015.684605
1015.684605
835.828781
520.301461
328.418016
159.412622
98.874569
72.740912
81.974864
110.553503
129.978657
148.641467
152.888894
144.530535
133.983493
107.582808
85.847974
57.334900
39.971471
24.351478
17.064810
12.201667
10.333657
10.569692
9.532571
10.408759
9.600520
10.112524
10.073781
10.172725
10.841489
10.582805
11.093616
10.736585
11.507869
10.662675
10.544658
11.158586
11.765957
12.531877
12.767911
14.260411
14.106631
14.754534
16.510487
16.573668
18.396974
18.820763
21.534562
21.996498
21.894574
23.785830
22.836924
22.760630
23.710728
22.802949
24.005771
23.365617
21.662712
23.394823
23.577809
23.713708
23.914576
24.020672
23.533702
25.345683
24.618506
23.766756
25.039911
24.945736
25.013685
25.079846
##ZVALUE=270
1.346469
1.304746
1.303554
1.087785
1.414418
1.318455
1.315475
1.275539
1.287460
1.683831
1.606941
1.581907
1.702905
1.769662
2.160668
2.115965
3.493428
11.196733
51.659942
118.490458
285.850763
491.643548
863.884687
1015.658975
1015.658975
1015.658975
1015.658975
1015.658975
984.783769
735.821724
491.957664
249.220729
140.057802
70.935488
63.634515
83.372593
106.182694
135.424733
150.098801
157.583952
151.630640
133.643746
112.991929
83.294511
60.569644
38.842559
27.447939
17.802715
13.913512
11.000633
10.176897
10.132790
10.092854
10.459423
10.511875
10.434985
11.125803
10.676980
11.385679
11.353493
11.184812
11.294484
12.251735
12.373924
12.082458
12.742877
13.656616
14.134645
15.624762
16.803741
17.592907
18.030405
19.628406
21.111965
21.173954
21.367669
21.595955
21.736622
21.776557
21.054745
21.633506
21.161437
21.309853
22.214651
22.323728
21.447539
22.607446
22.209883
22.404790
22.882819
22.754669
22.566915
22.446513
23.146868
23.556948
22.628903
##ZVALUE=275
1.076460
1.073480
1.089573
1.248717
1.233816
1.103878
1.241565
1.386404
1.363754
1.427531
1.450777
1.626611
1.686811
1.708865
1.624823
1.652837
2.247691
2.116561
2.364516
7.565618
26.936531
73.503852
208.367705
396.224856
742.874742
994.550586
1015.713811
1015.713811
1015.713811
1015.713811
1015.713811
954.872370
590.456724
360.382795
170.818567
92.970729
56.697726
59.638619
85.368752
105.534792
132.691860
146.471858
154.708624
152.197480
132.929683
112.573504
84.185600
64.746737
41.366816
29.699802
18.180609
14.043450
12.009740
10.391474
10.924935
10.963678
11.220574
11.190772
11.351705
11.633635
11.826754
11.508465
11.894703
12.208819
12.536645
12.648702
13.532639
13.623834
14.372468
15.797615
17.232895
17.489791
18.667579
19.850731
20.166636
20.339489
21.205544
21.260977
20.151734
19.932985
20.778775
20.862818
20.695925
20.426512
21.220446
20.352602
21.539927
20.541549
21.748543
21.314621
22.244453
21.574497
22.313595
22.012591
22.374988
21.643639
##ZVALUE=280
0.885725
1.196861
1.060963
1.117587
1.038909
1.384616
1.195669
1.280904
1.290441
1.358986
1.311898
1.276731
1.419783
1.309514
1.494884
1.356602
1.655817
1.890659
1.845956
2.074838
2.289414
3.768802
15.852451
54.782629
173.046589
317.057967
594.768524
869.081020
1015.684605
1015.684605
1015.684605
1015.684605
1015.684605
1015.684605
718.485713
472.449660
236.165524
123.742819
57.030916
45.582652
60.257912
78.570843
107.135773
126.936436
147.697926
150.362849
146.337748
132.456422
105.302930
83.578825
59.362650
42.077899
26.893616
19.036531
13.886690
11.584759
10.727644
10.581613
11.185408
11.124611
11.358857
11.648536
11.823773
12.230873
12.315512
12.708902
13.557673
14.112592
14.333725
15.271902
16.315579
17.187595
17.999411
18.774867
18.984675
20.499825
20.297766
20.426512
20.247698
19.170642
19.717813
19.826889
20.148754
19.884706
20.641685
20.343661
20.309687
20.904541
21.204948
20.376444
20.930767
20.889640
20.877719
21.523833
21.009445
20.993948
##ZVALUE=285
0.746846
0.941753
0.923872
1.004934
1.071692
1.082420
1.354814
1.130700
1.056790
1.393557
1.009703
1.338720
1.188517
1.083612
1.178980
1.409650
1.531839
1.399517
1.711845
1.642704
1.785755
1.958609
2.318621
2.462864
7.726550
27.012825
93.800426
200.233459
440.945625
688.095689
945.662856
1015.675664
1015.675664
1015.675664
1015.675664
1015.675664
951.510668
587.068796
367.054939
169.970989
87.962747
41.844845
38.044453
57.118535
74.792504
104.522705
120.366812
138.168931
145.684481
140.756965
130.937696
105.728507
87.082982
60.916543
43.535829
27.718544
19.170642
13.631582
12.215972
10.475516
10.537505
10.945797
11.554956
12.002587
12.114644
12.521744
12.641549
13.566613
14.099479
15.237927
16.001463
16.655922
17.504692
17.923713
18.030405
19.548535
19.039512
19.409657
18.966794
19.192696
18.984675
19.532442
19.667745
19.454956
20.163655
20.041466
19.906759
20.645857
20.268559
20.413995
19.749999
20.430684
19.309521
20.637512
20.212531
20.993948
##ZVALUE=290
0.855923
0.915527
0.909567
1.097918
0.849962
1.089573
1.012683
0.955462
0.987649
0.863671
1.067519
1.061559
1.147985
1.052618
1.145601
1.047850
1.390576
1.415610
1.448989
1.578927
1.718998
1.812577
1.859665
2.021790
2.184510
2.522469
3.119707
13.965964
43.773651
140.471458
275.818706
576.536655
866.745710
1015.684605
1015.684605
1015.684605
1015.684605
1015.684605
1015.684605
778.913498
505.603552
246.856809
127.026439
48.127770
29.709935
35.718679
48.534870
73.621869
93.136430
117.864609
132.595897
141.615868
138.126612
125.400424
107.292533
79.471469
60.741901
40.183663
28.600693
18.679500
15.198588
11.560917
11.288524
11.810660
11.698604
11.903644
12.854934
13.563633
14.354587
14.769435
15.256405
16.735792
17.370582
18.213987
18.439889
18.717647
19.051433
18.618703
18.818974
18.944740
19.764900
19.996762
18.985868
19.822717
19.618869
19.999743
20.072460
19.849539
20.437837
19.884706
20.358562
19.996762
19.967556
19.760728
19.977689
19.952655
##ZVALUE=295
0.711679
0.514984
0.715852
0.732541
0.922680
0.799894
1.011491
0.792742
0.829697
0.854731
0.849962
0.936985
0.930429
0.592470
0.929832
1.001954
0.935793
1.015663
1.252890
1.256466
1.249909
1.377463
1.322627
1.521707
1.580715
1.595616
1.958609
2.076626
2.436638
4.603863
24.907589
71.904659
167.375803
406.980515
672.811866
1015.570760
1015.570760
1015.570760
1015.570760
1015.570760
1015.570760
973.579884
677.911639
356.449485
199.298859
73.990822
34.943819
23.095608
30.365586
47.816634
65.230727
90.926886
108.212829
127.512813
134.806633
132.397413
119.862556
99.132657
82.197785
57.772994
42.372942
27.854443
20.107627
15.061498
13.443828
12.370944
12.326837
13.461709
13.698936
14.008880
15.020967
16.483665
16.755462
17.823577
18.043518
18.260479
18.165708
18.829703
18.410683
19.027591
19.200444
19.742846
19.399524
20.447969
20.537972
20.258427
20.155907
20.422935
20.091534
20.230412
19.944906
20.493865
20.032525
20.150542
20.205975
19.837618
##ZVALUE=300
0.846982
0.845790
0.976920
0.784993
0.854731
1.084805
0.864863
0.692606
0.873804
0.808835
0.917912
0.782609
0.846982
0.904799
0.996590
1.150966
1.194477
1.150966
1.070499
1.114607
0.996590
1.241565
1.312494
1.465678
1.416802
1.503825
1.652837
1.710653
2.113581
2.077818
2.557635
2.963543
11.653900
40.344596
141.693950
276.236534
584.897995
899.102688
1015.684605
1015.684605
1015.684605
1015.684605
1015.684605
1015.684605
818.750858
529.963970
260.785818
138.003826
49.658418
22.667646
19.894838
27.123690
42.941570
58.584809
83.578825
102.109909
120.063424
128.040910
128.022432
118.224621
99.985600
82.518458
59.941411
44.573545
29.675961
21.906495
16.899705
15.182495
14.515519
15.014410
15.272498
16.063452
17.090440
17.983913
17.727613
18.583536
18.639565
18.427968
18.678904
19.134879
19.509792
19.731522
19.842982
20.036697
20.805597
20.554662
20.980835
20.611882
20.661950
20.616651
20.519495
20.277500
20.331740
20.631552
19.660592
19.990802
##ZVALUE=305
0.838637
0.908971
0.666976
0.684857
0.977516
1.024604
0.750422
0.900626
0.729561
0.739694
0.862479
0.865459
0.860691
0.926852
0.806451
0.871420
0.965595
1.005530
1.166463
1.078844
1.127720
1.231432
1.087785
1.214743
1.306534
1.348853
1.354814
1.340508
1.585484
1.655817
1.963973
1.959801
2.292991
2.685785
5.117655
29.779673
83.408952
233.906507
423.606038
790.586472
1015.684605
1015.684605
1015.684605
1015.684605
1015.684605
1015.684605
994.690657
637.546778
396.420956
184.315443
88.168979
29.638410
16.796589
19.149780
25.890470
41.103959
56.646466
80.900788
97.488761
113.754869
122.315884
120.160580
114.436746
95.889568
80.070496
57.593584
43.306947
29.768944
23.341775
18.322468
17.196536
16.750693
16.964674
17.275810
17.716885
18.396974
18.895864
19.596815
19.589663
19.868612
20.114779
20.339489
20.118952
20.766854
20.788908
21.084547
20.971894
20.777583
21.328926
20.915866
20.534992
20.912886
20.733476
20.810962
20.153522
20.278692
##ZVALUE=310
0.768900
0.741482
0.770688
0.711679
0.687838
0.674725
0.968575
0.800490
0.668764
0.623465
0.842810
0.974536
0.882745
0.930429
0.914931
0.817776
0.809431
0.881553
0.914931
0.808835
0.867844
0.825524
0.867844
1.114607
1.200438
1.189709
1.177788
1.338720
1.392961
1.476407
1.496673
1.568794
1.713634
1.822710
2.070665
2.381802
3.009439
12.456775
42.159557
142.124891
282.226801
594.419837
898.264647
1015.684605
1015.684605
1015.684605
1015.684605
1015.684605
1015.684605
849.297643
557.006001
272.797942
142.658949
49.564838
20.716786
13.570786
16.393661
24.712682
35.465956
54.221749
69.376826
92.663765
105.594993
116.056800
117.318630
108.747482
98.421574
78.861713
62.779784
43.906569
33.370852
25.173426
22.234917
18.806458
18.248558
18.161535
18.677711
19.303560
19.427538
19.646883
19.666553
20.019412
20.441413
20.674467
21.090508
21.440983
21.613836
21.616817
20.910501
20.822883
20.934939
20.451546
20.481944
20.379424
20.343661
20.134449
##ZVALUE=315
0.720620
0.722408
0.758767
0.679493
0.648499
0.690818
0.838637
0.687838
0.671744
0.716448
0.780821
0.851750
0.655651
0.684857
0.923872
0.834465
0.955462
0.912547
1.059771
1.048446
0.995994
0.961423
1.002550
0.918508
0.981688
1.319647
1.129508
1.045465
1.368523
1.253486
1.431704
1.450777
1.389980
1.613498
1.894832
1.811981
1.933575
2.280474
2.522469
5.729795
21.912456
95.996857
212.239027
483.824611
794.842839
1015.688777
1015.688777
1015.688777
1015.688777
1015.688777
1015.688777
1004.165411
728.033781
377.906561
202.855468
74.768662
30.600429
12.707710
12.945533
16.729832
22.025704
35.409927
47.514439
67.462921
84.532499
102.038980
110.203624
112.451911
105.553865
91.345906
78.000426
60.101748
47.337413
33.471584
27.247667
21.660924
20.160675
19.310713
19.526482
19.452572
19.956827
19.853711
20.319819
20.991564
20.475984
21.309853
21.222830
21.548867
21.449924
21.572709
20.888448
21.388531
21.076798
20.680428
20.750761
21.148920
##ZVALUE=320
0.700951
0.679493
0.715852
0.923872
0.763535
0.593662
0.813603
0.720620
0.747442
0.806451
0.578761
0.787973
0.575781
0.771880
0.713468
0.823736
0.812411
0.801682
0.830889
0.935793
0.973940
0.885725
0.991821
0.938773
0.904799
0.835657
0.976920
1.024604
1.245737
1.156926
1.166463
1.340508
1.352429
1.354814
1.655817
1.549721
1.612902
1.794696
2.110600
2.245903
2.527833
3.345609
12.760758
46.964884
167.551637
344.198942
706.683993
1007.637978
1015.684605
1015.684605
1015.684605
1015.684605
1015.684605
1015.684605
889.509916
554.870963
248.937011
128.703713
46.395659
19.805431
11.848807
12.055635
15.931726
20.629764
31.769872
44.006705
63.079000
78.815818
97.115636
105.713606
109.215975
103.406906
91.270804
77.789426
59.495568
46.864748
34.251809
28.072000
23.076534
21.095872
20.267963
20.975471
20.066500
20.475984
20.786524
21.049976
20.924807
21.614432
21.166801
21.489859
20.840764
21.231771
20.455718
20.863414
20.765662
20.985603
##ZVALUE=325
0.598431
0.588894
0.461936
0.575781
0.487566
0.639558
0.702739
0.645518
0.663996
0.760555
0.730753
0.776649
0.707507
0.898838
0.654459
0.683665
0.676513
0.781417
0.908971
0.749826
0.865459
0.645518
0.864863
0.757575
0.976920
0.971556
0.979900
1.026988
1.144409
0.853539
1.022816
1.176596
1.198649
1.115799
1.362562
1.290441
1.405478
1.551509
1.548529
1.899600
2.036691
2.117753
2.296567
2.605915
6.699562
25.299788
100.644827
215.501785
497.501493
828.139782
1015.685797
1015.685797
1015.685797
1015.685797
1015.685797
1015.685797
978.192687
678.475499
346.176624
182.621479
66.618919
27.560592
12.528896
11.279583
12.672544
15.608668
21.911860
30.514002
47.202706
62.722564
81.052780
92.999935
102.379918
105.221868
97.112656
87.249875
71.892738
57.570934
42.373538
34.776926
26.053786
23.692846
21.543503
20.644665
21.118522
20.973682
21.367669
20.636916
20.953417
20.477772
21.175742
20.663738
20.501614
20.396709
20.701885
20.219684
##ZVALUE=330
0.527501
0.603795
0.635982
0.624657
0.599623
0.588894
0.530481
0.593662
0.605583
0.501871
0.623465
0.806451
0.603795
0.716448
0.795722
0.554919
0.637770
0.716448
0.714660
0.809431
0.709891
0.704527
0.846982
0.837445
0.785589
0.860691
1.049638
1.085997
1.020432
0.995994
1.033545
1.030564
1.306534
1.098514
1.053810
1.118779
1.120567
1.152754
1.425743
1.334548
1.525879
1.755953
1.786947
1.803637
2.312660
2.308488
3.753901
12.078881
60.707927
147.941709
369.564891
627.007484
1015.684605
1015.684605
1015.684605
1015.684605
1015.684605
1015.684605
1015.684605
854.541659
451.155901
248.207450
96.326470
41.461587
14.911890
11.603832
11.655688
12.457967
16.290545
21.530986
33.103824
44.099689
60.432553
74.448586
89.514852
96.575618
99.082589
94.270706
81.380606
69.997907
53.785443
44.082999
34.038424
28.849840
23.922920
22.341609
20.892620
20.452738
20.317435
20.370483
20.266771
20.560622
20.006895
20.029545
20.197630
19.886494
##ZVALUE=335
0.470877
0.648499
0.651479
0.700951
0.659823
0.699759
0.626445
0.735521
0.592470
0.772476
0.504851
0.703931
0.596642
0.583529
0.645518
0.571609
0.545979
0.580549
0.610948
0.773668
0.747442
0.762939
0.823736
0.729561
0.867844
0.675917
0.955462
0.945926
0.877976
0.699759
0.815988
0.944734
0.990629
1.106858
0.891685
1.088977
1.094937
1.095533
1.064539
1.417994
1.456738
1.396537
1.493692
1.619458
1.752973
1.818538
2.173781
2.322793
2.743602
21.499991
25.142431
96.469522
210.782886
492.952466
819.589496
1015.684605
1015.684605
1015.684605
1015.684605
1015.684605
1015.684605
960.428715
629.070997
311.275721
156.766772
54.105520
23.114681
12.574792
11.622906
12.624860
14.185905
16.783476
21.627545
32.160878
42.770505
58.851838
70.707798
84.269643
91.976523
93.619823
88.835955
77.379942
67.213774
53.038597
43.400526
33.956766
28.822422
23.683906
22.158623
20.459890
19.952655
20.067692
19.369721
19.784570
19.230843
19.564629
##ZVALUE=340
0.521541
0.551939
0.502467
0.538826
0.577569
0.607967
0.647902
0.674725
0.437498
0.562668
0.711679
0.574589
0.575781
0.571609
0.513792
0.606775
0.620484
0.524521
0.667572
0.670552
0.566840
0.659823
0.675917
0.682473
0.568628
0.749826
0.731945
0.660419
0.750422
0.794530
0.884533
0.830889
0.910759
0.818968
0.903606
0.984669
1.026988
0.923872
1.069903
1.037717
1.034737
1.194477
1.152754
1.506805
1.402497
1.481771
1.759529
1.756549
1.850724
2.019405
2.446771
3.412962
17.413497
56.717992
186.120868
377.502441
784.042478
1015.650034
1015.650034
1015.650034
1015.650034
1015.650034
1015.650034
1015.649438
777.627826
469.321012
202.815533
94.136000
27.973652
14.035702
12.272596
12.595654
13.430715
14.457703
17.621517
21.302700
31.037927
40.421486
56.264997
68.008900
81.086755
85.855722
87.811947
84.452629
75.584650
65.746903
52.174926
42.907596
32.817721
27.537942
22.782683
21.292567
19.961596
18.869638
18.587708
18.584728
##ZVALUE=345
0.683665
0.559688
0.436902
0.545979
0.587702
0.574589
0.573993
0.665784
0.700951
0.659823
0.618696
0.483990
0.512600
0.499487
0.599623
0.726581
0.577569
0.639558
0.620484
0.710487
0.513792
0.594854
0.528693
0.852942
0.759959
0.833869
0.740886
0.814795
0.758767
0.877976
0.593662
0.808835
0.672936
0.652671
0.858903
0.777841
0.896454
0.899434
1.015663
1.182556
1.091957
1.192689
1.209974
1.174808
1.415610
1.457930
1.513958
1.591444
1.584888
1.709461
1.901984
2.133846
2.408624
2.615452
5.759597
36.460757
104.662776
288.623571
508.213043
932.480693
1015.688777
1015.688777
1015.688777
1015.688777
1015.688777
1015.688777
1015.688777
627.909899
339.534879
125.408769
52.971840
17.780662
13.341904
12.777448
12.809634
13.175607
13.902783
16.379952
20.562410
29.131770
37.759542
52.068830
62.366724
73.155761
79.284906
82.186460
79.740882
71.348548
63.674450
51.234961
42.356849
32.191873
26.378632
21.767616
19.847751
18.396974
##ZVALUE=350
0.544786
0.545979
0.611544
0.607967
0.493526
0.614524
0.531673
0.520945
0.495911
0.613928
0.572801
0.603795
0.658631
0.498891
0.657439
0.595450
0.679493
0.686646
0.747442
0.682473
0.637770
0.642538
0.808835
0.750422
0.771880
0.646710
0.585914
0.780821
0.785589
0.647902
0.635982
0.804663
0.756979
0.806451
0.842810
0.970960
0.839829
0.969768
0.987649
0.986457
0.975728
1.065731
1.144409
1.191497
1.089573
1.186728
1.242757
1.389980
1.424551
1.526475
1.514554
1.800656
1.993775
2.039671
2.080798
2.500415
3.689528
19.223690
61.711669
192.913413
371.288657
761.001706
1015.684009
1015.684009
1015.684009
1015.684009
1015.684009
1015.684009
1015.684009
755.024552
436.025858
181.788802
77.616572
23.876429
13.560653
12.120605
12.186766
12.197495
12.801886
14.147758
16.312599
20.852685
26.536584
36.028624
43.984652
56.575537
65.113902
73.061585
74.968934
73.320866
68.353415
57.847500
49.558878
39.202571
32.440424
25.951862
##ZVALUE=355
0.588894
0.689626
0.521541
0.579953
0.534654
0.582933
0.597835
0.746846
0.550747
0.528693
0.579953
0.631809
0.752807
0.697970
0.694990
0.549555
0.645518
0.749826
0.606775
0.590682
0.554919
0.613928
0.645518
0.663996
0.669956
0.745654
0.759959
0.745654
0.665784
0.747442
0.941753
0.968575
0.842810
0.878572
0.775456
0.892878
0.794530
1.020432
0.884533
0.894666
1.005530
1.002550
0.955462
1.066923
1.137853
1.138449
1.165867
1.144409
1.371503
1.424551
1.578927
1.457930
1.519918
1.756549
1.989603
2.068877
2.198815
2.583861
3.203750
10.066628
37.650466
144.533515
294.333696
612.807870
957.828760
1015.678644
1015.678644
1015.678644
1015.678644
1015.678644
1015.678644
927.283764
565.307736
229.779482
102.379918
31.766891
15.357733
11.876822
11.978745
11.653900
11.674762
12.133718
13.016462
15.299916
18.292665
24.264455
30.621886
40.948987
49.047470
59.093833
65.148473
68.342686
67.606568
62.506795
55.610538
46.114922
##ZVALUE=360
0.564456
0.588894
0.715852
0.685453
0.684857
0.625849
0.358820
0.566840
0.506639
0.618696
0.718832
0.530481
0.573993
0.697970
0.613928
0.689626
0.676513
0.664592
0.725985
0.617504
0.864863
0.771880
0.665784
0.776649
0.817776
0.666976
0.637770
0.757575
0.803471
0.939965
0.616908
0.844598
0.881553
0.895858
0.829697
0.794530
0.954866
0.983477
0.808835
0.936985
0.931621
0.976920
1.030564
0.978708
1.128912
1.238585
1.183748
1.398921
1.246929
1.338720
1.372695
1.236796
1.723766
1.636744
1.652837
1.812577
1.916885
1.985431
2.246499
2.467632
2.776980
4.713535
15.334487
70.933700
171.595812
416.851640
693.991780
1015.684009
1015.684009
1015.684009
1015.684009
1015.684009
1015.684009
1015.684009
738.167763
339.557528
163.082480
53.894520
21.559000
11.505485
10.878444
10.858774
10.809898
10.872483
11.069775
11.964440
13.027787
15.967488
19.592643
26.195645
32.507777
43.338537
50.339699
58.272481
61.687827
61.434507
##ZVALUE=365
0.437498
0.585914
0.652671
0.503659
0.509620
0.535846
0.641942
0.524521
0.729561
0.489950
0.752807
0.784993
0.645518
0.621676
0.565648
0.660419
0.634789
0.751615
0.631809
0.710487
0.576973
0.740886
0.708699
0.597835
0.713468
0.784993
0.589490
0.656843
0.807643
0.667572
0.697970
0.697970
0.736713
0.675917
0.686646
0.846982
0.930429
0.858903
0.871420
1.002550
0.912547
0.984669
0.948906
1.020432
1.201630
1.076460
1.150966
1.220703
1.227856
1.194477
1.296997
1.298785
1.271963
1.471639
1.427531
1.606941
1.556873
1.562834
1.790524
2.018809
2.400875
2.477765
2.699494
3.433824
6.774664
40.143728
108.095407
285.597444
519.097447
957.267880
1015.684605
1015.684605
1015.684605
1015.684605
1015.684605
1015.684605
940.362811
495.173931
253.760815
82.555413
31.390786
11.858940
10.131598
9.931922
9.896755
9.991527
10.217428
10.046959
10.679960
11.812449
13.232827
17.115474
21.521449
29.566884
36.377907
44.769645
##ZVALUE=370
0.677705
0.725985
0.786781
0.847578
0.608563
0.810623
0.750422
0.760555
0.666976
0.693798
0.745654
0.842810
0.668764
0.828505
0.750422
0.801682
0.822544
0.737906
0.631809
0.646710
0.867844
0.676513
0.901818
0.817776
0.837445
0.713468
0.879765
0.745654
0.958443
0.864863
0.919700
0.839829
0.804663
0.806451
0.905991
1.007915
0.865459
0.988841
1.004934
1.122952
1.066923
1.139641
1.095533
1.105666
1.091957
1.169443
1.225471
1.300573
1.291633
1.171827
1.274943
1.461506
1.292825
1.278520
1.373887
1.543760
1.644492
1.754761
1.805425
1.869798
2.000928
2.062917
2.329946
2.585649
2.813935
3.214478
4.548430
22.491813
75.912476
250.074863
475.824475
904.467702
1015.861630
1015.861630
1015.861630
1015.861630
1015.861630
1015.861630
1015.861630
648.549795
347.892642
123.267770
52.880645
18.396974
11.090636
9.715557
9.508729
9.331703
9.476542
9.455681
9.753704
9.973645
10.518432
12.598634
15.075803
19.819736
##ZVALUE=375
0.803471
0.700951
0.723600
0.860691
0.784993
0.659823
0.803471
0.713468
0.833869
0.717640
0.734925
0.762939
0.823736
0.912547
0.836849
0.716448
0.838637
0.961423
0.862479
0.747442
0.828505
0.851750
0.929832
0.681877
0.825524
0.821948
0.947714
0.854731
0.784993
0.969768
0.894666
0.815988
0.899434
0.846982
1.005530
1.052618
0.965595
0.831485
1.007915
1.048446
1.011491
0.870824
1.106858
0.948906
0.955462
1.155734
1.149774
1.183748
1.176000
1.157522
1.237988
1.215935
1.263618
1.244545
1.265407
1.319647
1.379848
1.385808
1.593828
1.533628
1.736879
1.724958
1.869798
2.015829
2.111793
2.535582
2.635717
2.958775
3.505945
11.413693
37.128925
131.309628
283.794999
662.407875
996.246934
1015.912890
1015.912890
1015.912890
1015.912890
1015.912890
1015.912890
958.623886
595.247746
256.786942
117.805004
32.256842
13.863444
9.636879
9.166598
9.142756
8.885860
8.940697
8.840561
8.881688
9.235740
9.931922
##ZVALUE=380
0.513792
0.507832
0.431538
0.518560
0.429749
0.407696
0.498891
0.482798
0.431538
0.427961
0.423789
0.347495
0.569820
0.580549
0.475645
0.549555
0.513792
0.683665
0.553727
0.502467
0.575781
0.637770
0.530481
0.604987
0.589490
0.540614
0.753999
0.696778
0.541806
0.642538
0.623465
0.542998
0.545979
0.488758
0.715852
0.662804
0.637770
0.623465
0.716448
0.721812
0.738502
0.809431
0.753999
0.983477
0.776649
0.769496
0.757575
0.706911
0.727773
0.674725
0.846982
0.922680
0.886917
0.988841
1.063943
0.929832
1.197457
1.158714
1.112819
1.141429
1.330972
1.223683
1.336932
1.341701
1.390576
1.675487
1.891851
1.947880
2.563596
2.927780
3.216863
6.066561
22.280812
105.246902
240.826607
557.234883
890.609622
1015.684605
1015.684605
1015.684605
1015.684605
1015.684605
1015.684605
1015.684605
777.434111
375.753641
184.631944
59.055686
21.477938
9.405613
8.185506
7.985830
8.077621
7.814765
8.014441
7.860661
##ZVALUE=385
0.526905
0.474453
0.503659
0.543594
0.426769
0.299811
0.331998
0.390410
0.487566
0.582933
0.465512
0.395775
0.285506
0.484586
0.440478
0.450611
0.495911
0.578761
0.544786
0.519753
0.421405
0.357628
0.484586
0.507832
0.428557
0.601411
0.571609
0.569820
0.743866
0.648499
0.506639
0.592470
0.620484
0.594854
0.706911
0.598431
0.529885
0.394583
0.639558
0.735521
0.644922
0.635982
0.728965
0.690818
0.705719
0.583529
0.680685
0.832677
0.737906
0.689626
0.763535
0.686646
0.624657
0.782609
0.891685
0.828505
0.871420
0.912547
0.875592
1.063943
1.036525
1.263618
1.084805
1.304746
1.186728
1.270771
1.444817
1.509786
1.923442
2.177954
2.385974
2.470613
3.029704
3.635883
10.258555
57.927966
149.506927
380.958915
671.944022
1015.684605
1015.684605
1015.684605
1015.684605
1015.684605
1015.684605
1015.684605
994.115472
581.054688
331.928730
127.399564
46.489835
11.256933
7.736683
7.160902
7.293820
7.078648
##ZVALUE=390
0.461936
0.285506
0.269413
0.276566
0.343919
0.404716
0.339746
0.445843
0.540614
0.467896
0.570416
0.457764
0.437498
0.357628
0.535846
0.482798
0.452995
0.464916
0.507832
0.363588
0.376701
0.367761
0.578761
0.462532
0.273585
0.453591
0.490546
0.550747
0.586510
0.551939
0.574589
0.529885
0.616908
0.587702
0.441670
0.528693
0.558496
0.685453
0.572801
0.543594
0.478625
0.588894
0.524521
0.703931
0.675917
0.625849
0.674725
0.716448
0.643730
0.652671
0.658631
0.598431
0.687838
0.707507
0.784993
0.780821
0.964999
0.851750
0.968575
1.067519
0.976920
0.950694
1.001954
1.102686
1.184940
1.164675
1.370907
1.501441
1.657605
2.010465
1.935959
2.221465
2.369881
2.490878
2.588630
3.067851
5.631447
35.095811
109.206438
325.098634
599.160790
1015.653014
1015.653014
1015.653014
1015.653014
1015.653014
1015.653014
1015.653014
1015.653014
785.336494
459.929705
183.918476
77.421665
18.932819
8.811951
7.185936
##ZVALUE=395
0.449419
0.451803
0.521541
0.388622
0.497699
0.523925
0.441670
0.524521
0.483990
0.390410
0.541806
0.460744
0.424981
0.423789
0.641942
0.587702
0.559688
0.457764
0.483990
0.514984
0.500679
0.502467
0.546575
0.579953
0.517964
0.580549
0.670552
0.517964
0.657439
0.657439
0.640750
0.598431
0.621676
0.506639
0.666976
0.642538
0.637770
0.611544
0.710487
0.501871
0.526905
0.796914
0.847578
0.766516
0.725985
0.739694
0.828505
0.848770
0.714660
0.809431
0.903606
0.960827
0.826716
0.772476
0.880957
0.999570
0.788569
0.876784
0.863671
0.937581
0.897646
1.023412
0.879765
1.241565
1.092553
1.243949
1.493692
1.616478
1.859665
1.842976
1.821518
2.006888
2.060533
2.298951
2.079606
2.358556
2.323985
2.784729
3.525615
19.292831
71.860552
241.216421
445.826650
835.477710
1015.751958
1015.751958
1015.751958
1015.751958
1015.751958
1015.751958
1015.751958
858.818889
535.292625
236.690640
111.974478
33.702850
##ZVALUE=400
0.493526
0.325441
0.427961
0.488758
0.540614
0.509620
0.377893
0.489950
0.388622
0.458956
0.411868
0.394583
0.481606
0.713468
0.377893
0.493526
0.559688
0.342727
0.396967
0.499487
0.465512
0.444651
0.375509
0.621676
0.409484
0.487566
0.352859
0.481606
0.415444
0.619888
0.563860
0.696778
0.484586
0.582933
0.497699
0.629425
0.557899
0.613928
0.537634
0.495911
0.698566
0.569820
0.644922
0.522733
0.708699
0.651479
0.643730
0.559688
0.701547
0.607967
0.777841
0.645518
0.747442
0.870824
0.721812
0.620484
0.874996
0.874996
0.855923
0.851750
0.813603
0.939965
1.010895
1.054406
1.051426
1.312494
1.307726
1.527667
1.714826
1.778603
1.987815
1.973510
1.980662
1.867414
1.947880
1.995564
2.226830
2.212524
2.507567
2.648830
3.137589
9.052753
35.907626
149.616599
319.158435
708.027482
1015.678644
1015.678644
1015.678644
1015.678644
1015.678644
1015.678644
1015.678644
1015.678644
806.420445
388.053656
##END
