##TITLE=FQP00652
##FORMAT=SPECTACLE-ASCII V-1.2
##DATA TYPE=ULTRAVIOLET SPECTRUM
##SECOND TYPE=ULTRAVIOLET SPECTRUM
##DATE=03/01/18
##TIME=14:27:27
##SPECTROMETER/DATA SYSTEM=SPECTACLE
##XUNITS=NM EM
##YUNITS=ENERGY
##YFACTOR=1
##FIRSTX=220
##LASTX=410
##NPOINTS=96
##3DDATA=Equidistant
##ZUNITS=NM EX
##FIRSTZ=210
##LASTZ=400
##ZPOINTS=39
##XYDATA=(Y..Y)
##ZVALUE=210
2.381802
2.294779
2.245903
3.314614
2.169609
2.302527
2.263784
2.897978
2.339482
2.369881
2.481937
2.170801
1.965761
2.180934
2.184510
1.936555
2.233982
2.432466
3.054738
2.552867
2.499819
2.589822
2.728701
2.736449
3.451705
3.114939
3.674626
5.562901
4.913807
5.086660
5.205870
6.171465
7.191896
7.299781
7.715821
7.747412
7.628798
7.089972
7.526875
7.615685
7.721782
7.176995
6.278753
6.549954
6.741881
6.449819
6.436706
6.499887
6.256700
5.735755
5.765557
6.604791
5.940795
4.909635
4.389882
5.528927
5.350709
5.588531
5.418658
5.667806
5.118847
4.767776
4.514456
3.895760
4.459620
4.774928
4.496574
5.376935
5.773902
6.641746
6.516576
8.293986
8.619428
10.056496
10.963678
10.360479
11.435747
12.178421
11.142492
10.938644
11.393428
9.373426
9.932518
8.422732
7.164478
5.422831
5.850792
4.695654
4.854798
4.317760
3.618598
5.348921
4.511476
4.790425
5.037785
5.274415
##ZVALUE=215
6.073713
5.448461
5.062819
4.800558
5.096793
5.070567
3.967881
4.971623
5.271435
5.014539
5.187988
4.498959
3.990531
3.560781
3.575683
2.914667
3.076792
2.781749
2.745986
2.968907
2.283454
3.088713
3.184676
3.264546
3.683567
4.322529
5.345941
6.875992
8.289814
10.262728
10.784864
11.638999
11.276603
13.320446
12.641549
12.871623
14.925599
12.464523
13.022423
13.379455
12.737513
12.760758
12.112856
10.785460
10.832548
9.570718
10.252595
10.135770
8.229613
8.678436
7.730722
8.267760
6.895661
6.767511
7.460713
7.571578
5.807877
5.880594
6.425977
6.202459
6.861687
6.072521
6.037951
5.350709
5.911589
5.754828
5.970597
6.996989
6.743670
7.794499
7.404685
9.774566
11.051893
12.086630
11.560917
12.396574
12.601614
13.589859
12.738705
10.992885
11.257529
8.517504
8.711815
8.103848
7.649660
6.843805
6.491542
5.531907
5.840659
4.949570
5.182624
4.368424
5.352497
4.637837
4.787445
5.233884
##ZVALUE=220
21.297932
20.702481
23.790598
22.394657
20.567775
18.902421
15.075803
10.459423
12.017488
9.866953
10.328889
12.563467
11.452436
10.076761
9.548664
7.581711
6.014705
4.553795
3.975630
3.934503
3.912449
3.151894
3.730655
4.298687
4.620552
6.585717
7.653832
10.274649
13.101697
15.376806
16.858578
20.544529
20.322800
22.027493
21.818876
23.430586
22.180676
24.271607
22.265911
19.534826
20.913482
17.834902
18.152595
18.085837
15.635490
14.732480
13.624430
14.415979
14.018416
12.011528
12.521744
10.930896
11.230707
9.733438
9.406805
9.070635
8.311868
8.241534
8.866787
8.173585
7.618666
7.646680
8.269548
7.373691
7.764697
7.096529
7.561445
7.880926
8.254647
8.224845
9.031892
10.500550
11.706948
13.544559
14.139414
13.790727
15.090704
15.290976
16.087890
14.503598
13.263822
12.266636
11.314750
9.377599
7.738471
7.446408
7.334948
6.592870
5.648732
5.616546
6.639957
5.879998
6.244779
6.205440
5.939603
5.963445
##ZVALUE=225
37.628412
40.380955
51.812530
65.773726
70.556998
72.093606
64.136982
52.855611
39.770603
31.475425
22.973418
20.877719
23.671985
24.650693
26.115775
24.537444
19.922853
17.054677
12.332797
9.239912
5.901456
4.575849
5.011559
5.071759
5.439520
7.471442
8.821487
11.350513
13.379455
18.298626
17.547607
23.405552
26.487708
28.217435
28.275847
26.422739
29.601455
26.587844
26.560426
26.250482
24.703741
24.565458
23.096800
21.065474
19.613504
19.630790
18.691421
17.486811
16.431808
15.008450
16.376972
12.746453
13.153553
11.647940
13.267994
11.218786
10.432601
10.596514
9.657741
9.434819
10.284781
10.264516
10.130405
9.504557
8.773804
8.211732
9.456873
8.191466
9.432435
9.349585
10.880828
11.167526
12.402534
12.673736
13.369918
13.380647
13.742447
15.370846
14.090538
14.638901
12.543797
11.757612
10.418892
9.533763
8.613467
9.407997
8.082986
8.453727
7.965565
8.050799
7.394552
6.947517
7.433891
7.672906
6.691813
6.611943
##ZVALUE=230
34.420490
36.788583
68.881512
96.075535
138.114691
157.026649
179.409981
180.494785
158.503652
131.152868
90.028644
69.822669
53.562522
45.339465
45.247674
48.339963
48.637986
48.521757
40.806532
33.230782
27.718544
18.310547
9.828806
8.091927
5.587935
6.062984
7.682443
8.082986
11.262894
13.267994
15.928745
17.439723
19.058585
23.055673
22.723675
24.668574
23.661852
22.476912
22.754669
24.203658
22.087693
21.919608
20.434856
18.426776
18.274784
19.062757
15.987754
15.146732
15.240908
14.506578
13.440847
12.801886
13.311505
13.449788
12.800694
11.597872
11.361837
9.840727
11.982918
11.597872
10.443926
10.823607
10.845661
10.074973
11.064410
10.640621
10.887980
10.293722
11.329651
11.817813
11.677742
13.611913
12.897849
16.827583
16.378760
17.560720
16.627908
19.193888
17.614961
15.229583
15.548468
14.134645
14.167428
13.867617
12.199879
11.724830
11.595488
10.491610
9.892583
10.452867
10.703802
10.372996
9.961724
9.852648
9.309649
9.693503
##ZVALUE=235
12.302995
14.726520
28.968453
72.924495
113.431811
186.200738
240.408778
308.069587
329.909921
336.789489
293.344855
239.204764
162.456632
120.665431
87.391734
73.901415
69.756508
72.840452
82.046986
82.008839
73.652864
61.481595
53.240657
35.389662
24.162531
14.984608
11.869669
8.381605
9.319782
11.106730
11.184812
12.880564
12.844801
15.722513
15.323758
17.829537
16.676784
18.540621
18.431544
17.239451
18.331409
18.130541
16.321540
16.301870
17.873645
15.924573
17.065406
15.586615
14.929771
13.943911
14.068484
14.628768
14.132857
11.829734
12.738705
13.320446
12.808442
11.841655
13.287663
12.824535
13.294816
13.201833
13.064742
12.928843
11.873841
14.289618
12.969971
13.764501
14.732480
15.455484
15.800595
17.092824
18.508434
18.514991
20.130873
19.768476
21.894574
20.854473
20.412803
20.187497
19.284487
19.610524
18.584728
17.438531
17.597675
16.027689
15.880466
15.692711
16.491413
14.996529
14.873743
14.538765
13.217926
14.481544
14.473796
12.664795
##ZVALUE=240
1.946688
1.792908
5.335808
13.170838
42.224526
78.495741
160.895586
245.744586
363.597870
443.836451
502.140522
486.694574
444.907546
351.948738
275.011659
170.860887
126.995444
97.072721
92.624426
99.083781
111.904740
116.699934
115.264654
101.714730
83.770752
68.086982
46.680570
33.372641
19.620657
14.813542
12.845993
9.936690
13.065934
12.391806
12.292862
15.269518
17.048717
15.003681
17.112494
17.492771
17.671585
17.738938
18.290877
18.237829
16.825795
17.320514
18.106699
16.652942
16.074777
15.535951
15.545487
14.797449
15.067458
15.119910
13.465881
15.002489
14.032722
14.120936
13.031960
14.164448
13.723969
13.069510
12.548566
14.075637
13.518929
15.101433
13.830662
15.080571
16.256571
16.461611
17.269850
18.085837
19.917488
21.644831
21.571517
21.018982
22.600889
22.247434
22.817850
22.967458
22.102594
20.442605
22.733808
19.741654
20.113587
20.202994
21.693707
19.329786
20.577908
17.854571
18.521547
17.928481
19.394755
18.516779
19.099712
18.590689
##ZVALUE=245
1.399517
1.393557
1.830459
2.121925
3.786683
9.720922
29.380918
66.469908
145.265460
220.884681
347.975492
432.370901
489.078760
533.261895
509.742498
422.020555
349.952579
240.343809
169.532895
111.329556
92.762709
96.057653
116.073489
121.474862
129.954815
125.023723
111.477971
93.651414
74.280500
57.454705
39.750934
25.474429
19.311905
16.266704
16.729832
15.985966
17.364621
18.510818
19.168854
20.131469
18.643737
20.088553
20.556450
20.292997
20.834804
18.322468
17.837882
16.786456
17.781854
16.889572
16.134977
15.839934
15.525818
14.831424
14.376640
13.990998
13.414621
12.245774
13.325810
12.056828
12.460947
11.434555
12.812614
14.427900
13.300776
13.097525
12.033582
12.707710
13.469458
16.109943
16.471744
16.953945
18.482804
17.685890
18.871427
17.918944
18.785596
18.503666
19.410849
19.696951
21.634698
19.499660
19.125938
19.286871
19.742846
19.315481
17.799735
19.852519
18.063784
18.715858
18.600821
18.368959
19.800663
18.137693
18.851757
18.311739
##ZVALUE=250
1.414418
1.260638
1.362562
1.430511
1.564622
1.837611
1.943707
7.354617
22.212863
64.482689
127.120614
263.593793
382.730961
531.066656
614.601970
662.835836
633.874536
551.615953
463.675857
323.165655
227.998495
161.428452
107.258558
93.900561
104.277730
120.955706
137.358904
140.894651
139.307976
126.764774
107.351542
88.007450
64.526796
50.844550
34.686923
30.234456
25.420785
24.837852
24.503469
25.460720
25.948882
25.354624
25.833845
25.959611
23.968816
24.302602
22.681952
21.399856
20.444989
19.279718
19.397736
17.321706
16.518831
15.774965
15.912652
14.248490
14.979839
14.049411
11.775494
12.758970
12.133718
11.524558
11.981726
13.277531
12.950897
13.094544
13.143420
12.652874
12.778640
13.802648
14.659762
16.077757
16.723871
17.331839
17.778873
16.615987
18.138885
17.444491
17.773509
18.413663
18.050671
19.037724
18.273592
18.849969
16.360879
18.164515
20.086765
18.975735
17.130971
16.960502
17.881989
18.740892
18.186569
18.094778
18.247962
19.517541
##ZVALUE=255
0.976920
1.224875
1.340508
1.189709
1.239777
1.377463
1.384616
1.500845
1.688600
4.406571
13.309717
49.295425
102.115870
226.063728
344.698429
543.596745
665.649772
771.273971
784.730911
683.220029
575.942993
455.927849
278.069973
185.657740
111.719966
94.121695
95.912814
111.866593
137.189627
152.627826
161.389709
160.585642
152.565837
125.803947
105.311871
78.548789
65.834522
46.849847
39.559603
36.175847
34.688711
32.832623
30.772686
30.295849
30.104518
27.741790
25.987625
25.388598
24.442673
21.803975
21.886826
19.136667
18.909574
17.796755
16.073585
15.739799
15.135407
14.027953
13.244748
13.923645
13.395548
12.170672
12.227893
12.328625
11.675954
11.091828
11.845827
12.304783
12.508631
13.712645
12.701750
14.078617
15.291572
16.802549
16.213655
16.439557
16.200542
16.424656
16.529560
16.235709
16.264915
17.097592
16.641617
16.928911
16.403794
16.904473
16.813874
16.096830
17.368793
16.434789
17.807484
16.852617
16.741753
16.573668
17.877817
17.903447
##ZVALUE=260
0.926852
1.064539
1.162887
1.083612
0.922680
0.701547
1.084805
1.107454
1.310706
1.277924
1.317859
1.993775
6.096959
27.062893
60.343742
143.601894
231.060982
374.957919
482.863784
615.747571
681.632757
684.620738
590.612888
493.413806
326.431990
223.083496
137.129426
99.588633
87.156892
98.828673
121.210814
155.016780
174.419880
186.887980
183.694959
166.694522
148.255825
115.996599
97.565651
70.144534
58.444738
46.181679
41.462779
37.589669
34.868717
33.467412
31.645894
28.431416
27.268529
25.419593
23.137927
22.008419
20.529628
18.583536
17.762780
17.106533
15.733838
15.138984
13.795495
13.801455
12.544990
12.118816
11.310577
10.749698
10.713935
11.120439
10.714531
11.129975
11.734962
11.150837
11.639595
11.806488
12.374520
13.083816
13.536811
13.794899
13.732910
13.601780
13.542771
13.881922
14.544725
15.805960
14.471412
14.542937
14.938712
15.253425
16.048551
15.421510
14.936924
15.445948
15.093684
15.523434
16.062856
15.878677
15.879869
15.423894
##ZVALUE=265
0.875592
0.787973
0.852942
0.713468
0.887513
0.944734
0.740886
1.271963
0.946522
1.132488
1.389980
1.369715
1.272559
1.436472
3.280640
17.602444
39.891601
98.056793
172.102451
307.860970
428.505540
554.219484
671.599507
696.042776
642.822981
557.335615
419.691801
304.238796
184.925795
127.277970
100.511909
96.633434
116.314888
154.179931
178.870559
195.973516
202.738643
193.597674
176.700950
150.836706
125.649571
96.049905
75.934529
55.710673
46.788454
38.082600
34.318566
32.009482
29.387474
26.033521
25.399923
22.845864
21.885633
19.416809
18.996000
17.231703
15.847683
15.190840
14.447570
13.501644
12.961626
13.039708
12.069941
11.152625
11.451840
11.399984
11.272430
11.002421
11.413693
12.068748
11.587739
12.093782
12.138486
12.649894
12.405515
13.302565
12.903810
13.814569
13.416409
13.436675
13.750792
14.126897
14.717579
14.645457
13.974905
14.206767
14.885664
14.835596
14.727712
14.533997
15.344620
14.358759
15.748739
15.732646
15.123487
14.908910
##ZVALUE=270
0.678897
0.674725
0.840425
0.714660
0.864863
1.089573
0.815988
0.958443
0.776649
0.526905
0.905991
0.775456
1.101494
0.994802
1.080632
1.437664
1.708865
8.153915
22.619963
69.351792
135.155916
232.445598
394.467711
531.385541
672.549009
723.105669
716.266036
655.673742
522.640944
401.960015
286.306739
172.421932
118.061900
97.216964
103.773475
129.581690
155.306458
181.824565
192.979574
200.417638
197.805762
172.237754
149.913430
115.168691
90.367794
64.272881
51.220655
37.837625
31.937957
28.069615
25.699735
23.201704
21.965504
19.834638
18.357635
16.947985
16.389489
15.453696
14.687777
14.827847
13.695955
13.137460
12.173653
12.140870
11.429787
11.237860
11.022687
10.951757
11.300445
11.515617
12.080669
12.394786
12.962818
12.734532
12.452602
12.933612
12.725592
12.531877
13.291836
12.993813
12.675524
13.877749
12.782812
13.418794
13.289452
13.311505
14.381409
13.023615
13.372898
14.288425
14.360547
14.008880
14.067888
14.062524
14.322996
14.388561
##ZVALUE=275
0.749826
0.612736
0.694990
0.775456
0.812411
0.737906
0.779629
0.913739
0.490546
0.836849
1.062751
0.973940
0.773668
0.932813
0.945926
1.129508
1.076460
1.099706
1.275539
3.423691
13.020635
37.579536
104.829669
193.413496
353.249907
477.531552
621.123910
712.561011
743.912458
712.421536
629.955530
477.736592
349.217653
206.465721
133.513808
86.825490
79.149604
91.475844
111.364722
142.132640
161.773562
178.248882
182.852745
174.424648
156.789422
126.609802
106.617808
75.952411
58.732629
38.706660
29.085875
22.609830
19.432902
17.684698
16.182661
15.210509
14.391541
14.778972
13.907552
13.287663
12.538433
12.618899
12.565851
11.764765
11.698604
11.859536
11.536479
11.882782
12.011528
12.086630
12.014508
12.574792
12.583733
12.610555
12.905598
13.359785
13.548732
13.973713
13.071895
13.081431
12.865663
13.728738
13.845563
14.152527
13.482571
12.724996
13.258457
12.933612
13.270974
13.505816
13.241768
13.340712
12.932420
13.387799
13.237596
13.260841
##ZVALUE=280
0.561476
0.512600
0.541806
0.574589
0.545979
0.549555
0.665784
0.542998
0.722408
0.737906
0.685453
0.684857
0.851750
0.910759
0.877976
0.690818
0.804663
0.848770
0.993609
1.345873
1.050830
1.587868
8.365512
27.783513
83.552003
152.695775
277.047753
398.308635
566.835999
673.604012
735.446811
740.298033
670.325756
520.576835
388.301611
229.388475
142.346621
75.835586
53.207874
54.801702
68.700910
96.181631
117.784739
143.712759
156.356692
162.151456
154.529810
138.668418
118.559003
90.131760
67.210793
44.604540
31.392574
20.619631
15.886426
13.301969
12.633801
12.408495
11.862516
12.369752
12.536645
12.230873
11.870861
11.764765
12.456775
12.331605
12.579560
12.733936
12.697577
12.730956
13.099909
13.653636
13.248920
13.256669
14.010668
13.219714
13.676882
13.814569
13.691783
14.062524
13.468862
13.238788
13.082623
13.864636
13.654828
13.537407
13.023615
14.024973
12.963414
13.057590
13.034940
13.227463
12.943745
13.209581
13.249516
13.231635
##ZVALUE=285
0.634789
0.545979
0.603795
0.675917
0.482798
0.550747
0.562668
0.454783
0.622869
0.698566
0.561476
0.809431
0.979900
0.856519
0.761747
0.924468
1.023412
0.812411
1.165867
1.182556
1.098514
1.418591
1.183748
1.521707
4.410744
14.811754
61.663985
146.434903
330.849886
504.104495
737.810731
879.098773
948.405862
921.855569
777.924657
636.523962
443.281531
302.354693
161.707997
96.281767
47.338605
33.471584
39.238930
53.643584
80.453753
102.430582
130.146742
143.409967
154.225826
149.174929
132.750869
114.646554
85.263848
66.083670
42.991638
30.268431
19.683838
15.426874
12.227893
12.176633
12.477636
12.015700
12.784600
12.348890
12.182593
13.396740
13.859868
14.086962
13.955832
14.788508
14.553666
14.382601
15.154481
14.724731
14.743805
15.561581
15.600920
15.370846
15.300512
15.359521
14.923811
14.657974
15.209913
15.110970
14.333725
14.356971
14.272928
14.103651
13.967752
14.297962
13.718605
13.777614
13.170838
13.069510
13.176799
12.901425
##ZVALUE=290
0.540614
0.587702
0.656843
0.517964
0.622869
0.528693
0.427961
0.463724
0.617504
0.274777
0.660419
0.623465
0.475645
0.660419
0.633597
0.647902
0.908971
0.850558
0.811815
0.864863
1.019835
1.020432
1.037717
1.346469
1.257658
1.753569
2.263784
6.023645
28.173923
76.815486
179.582834
407.807827
623.492002
908.983946
1015.750766
1015.750766
970.613956
762.805939
592.514873
383.383632
252.260566
130.783916
71.004629
33.316612
25.853515
36.697984
51.178932
74.939728
97.000003
122.316480
137.805939
147.533417
147.191882
130.518675
111.618638
86.059570
64.129829
43.279529
30.731559
21.035671
17.176867
15.025735
13.851523
13.666749
14.124513
14.618635
14.416575
14.503598
15.249848
15.822649
15.495420
15.941858
16.548634
16.375780
16.669631
17.257929
16.503930
16.329885
16.519427
15.445948
15.375614
15.610456
16.203523
15.236735
15.067458
14.969707
14.615655
15.089512
14.846921
14.250875
14.081597
13.737679
13.527870
13.672709
13.534427
13.228655
##ZVALUE=295
0.410676
0.341535
0.577569
0.307560
0.484586
0.428557
0.564456
0.544786
0.438690
0.425577
0.434518
0.471473
0.375509
0.371933
0.424981
0.398755
0.629425
0.507832
0.545979
0.608563
0.730753
0.895858
0.861883
0.986457
1.049638
0.883937
1.012683
1.049638
1.404881
2.407432
13.322830
38.355589
88.323951
216.159821
351.370573
556.396842
685.048699
793.872476
799.403787
715.745687
600.517988
425.480604
292.667747
155.241489
88.219643
36.539435
22.208691
21.646619
29.981732
48.387647
66.022873
93.769431
113.174915
132.282972
139.760971
137.986541
128.454566
105.590820
87.254643
61.748624
45.822859
30.811429
23.512840
18.112659
15.181899
14.863610
14.864802
15.927553
15.702844
16.152859
15.743971
16.653538
16.670823
16.727448
16.534925
17.210841
16.899705
16.243458
16.251802
16.726851
16.237497
16.306639
16.268492
15.958548
15.738606
16.217828
15.368462
15.244484
14.737844
14.222860
14.343858
14.292598
13.330579
13.037920
13.484955
13.601780
##ZVALUE=300
0.353456
0.306964
0.323653
0.279546
0.322461
0.302792
0.336766
0.406504
0.452995
0.490546
0.474453
0.470877
0.462532
0.446439
0.483990
0.611544
0.535846
0.487566
0.461936
0.632405
0.598431
0.711679
0.873804
0.789762
0.727773
0.643730
0.769496
0.854731
0.842810
0.885725
1.149774
1.434684
5.289912
18.888712
63.527822
123.625994
252.192020
376.739502
544.629693
643.540025
717.774630
707.235932
613.249540
501.314998
331.457853
216.816664
109.863877
60.376525
25.715828
16.340613
19.988418
27.644634
45.195818
61.572790
87.944865
107.594728
127.728581
134.323835
134.293437
123.909712
105.059743
87.117553
63.902736
48.574805
33.025742
25.095940
18.776655
17.270446
16.376972
16.043782
16.427636
16.666651
16.898513
16.361475
16.895533
16.588569
16.733408
16.662478
17.068982
16.606450
16.813874
16.511679
16.834736
16.017556
16.088486
15.656948
15.606880
15.209913
14.657974
14.282465
14.152527
14.432669
13.817549
13.416409
13.277531
13.205409
##ZVALUE=305
0.378489
0.436902
0.527501
0.468493
0.309944
0.326633
0.312924
0.425577
0.496507
0.600815
0.468493
0.445843
0.428557
0.377893
0.498891
0.513792
0.434518
0.592470
0.433922
0.446439
0.443459
0.576973
0.491738
0.610948
0.400543
0.576973
0.658631
0.715852
0.728965
0.815988
0.907779
1.006722
0.940561
1.141429
2.826452
9.976625
40.150881
89.329481
195.688009
302.406549
465.656519
580.610633
687.336922
709.543824
642.063022
547.901988
390.963554
275.165439
150.367618
82.172751
33.944845
18.404722
14.403462
18.132925
28.650761
41.047931
63.069463
81.494451
103.882551
119.645596
130.004883
127.546787
117.480755
103.386641
81.092715
64.077973
44.281483
33.340454
22.737980
19.327998
16.739964
15.746951
16.069412
15.942454
15.864968
16.368628
16.073585
16.098619
16.554594
16.254783
16.423464
16.247630
16.310811
16.263723
15.792847
15.717745
15.806556
15.393496
15.249848
14.808774
14.588833
13.673902
13.734698
13.795495
13.217926
13.064742
##ZVALUE=310
0.484586
0.386834
0.442863
0.459552
0.407696
0.375509
0.425577
0.418425
0.513792
0.473857
0.424981
0.373721
0.399947
0.570416
0.404716
0.459552
0.457764
0.530481
0.464916
0.437498
0.572801
0.639558
0.537634
0.642538
0.520945
0.659823
0.681877
0.714660
0.707507
0.757575
0.790954
0.842810
1.028776
1.055598
1.004934
1.101494
1.283884
5.186796
17.580986
59.211850
115.088820
236.322880
353.109837
516.907573
619.866848
692.468882
681.434870
590.150952
488.054752
328.115821
218.632817
110.659599
61.190724
25.171638
14.296770
13.275743
16.764998
25.542974
36.488771
55.785775
71.939826
96.923709
111.111999
121.785998
120.823979
113.308430
101.725459
79.522729
63.611865
43.495893
33.371449
23.888946
19.653440
16.292930
15.097857
15.132427
15.319586
14.735460
15.186667
15.248656
15.470982
15.840530
15.567541
15.558600
15.487671
15.413761
15.682578
14.840961
14.602542
14.575720
14.551878
13.960600
13.538599
13.357997
13.090968
13.262630
##ZVALUE=315
0.282526
0.338554
0.204444
0.432730
0.302792
0.199676
0.432730
0.327826
0.525713
0.336766
0.319481
0.433922
0.549555
0.416636
0.491738
0.367761
0.366569
0.220537
0.314713
0.473857
0.406504
0.443459
0.417829
0.564456
0.375509
0.622869
0.467896
0.505447
0.452995
0.636578
0.621676
0.685453
0.723600
0.639558
0.970960
0.946522
0.896454
0.959635
1.059771
2.429485
8.747578
36.327839
81.634521
183.483958
291.102529
454.961658
561.515689
657.549500
681.897998
628.382564
538.484454
388.644934
275.204778
149.654746
84.001422
33.230782
16.720891
11.071563
11.948943
15.683770
22.294521
35.487413
49.355626
69.500804
86.641908
103.898644
113.225579
113.932490
108.046532
92.270970
77.605844
56.822896
42.070746
28.940439
22.487640
17.897487
15.580654
14.621615
14.273524
13.937950
14.143586
14.236569
14.242530
14.514923
14.304519
14.355779
14.194846
14.145970
13.909936
14.089942
13.679862
13.511777
13.551712
13.258457
13.325810
12.889504
##ZVALUE=320
0.325441
0.234842
0.339746
0.333786
0.414848
0.195503
0.477433
0.399947
0.332594
0.187755
0.258684
0.427961
0.356436
0.314713
0.383854
0.283718
0.378489
0.328422
0.356436
0.298619
0.397563
0.370741
0.226498
0.486970
0.524521
0.539422
0.363588
0.442863
0.452995
0.439882
0.607967
0.756979
0.675917
0.651479
0.502467
0.804663
0.803471
0.699759
0.927448
0.828505
0.982881
1.500845
3.961921
21.678805
53.193569
132.844448
219.458938
363.420844
477.481484
606.822968
656.498671
648.720860
584.337711
445.879698
330.902934
184.049606
106.938481
47.223568
23.397803
11.113882
9.299517
10.796785
13.141632
20.352602
29.074550
47.069788
61.133504
80.613494
95.039606
107.787848
109.259486
101.317763
91.042519
71.147680
56.309700
39.498806
29.806495
21.141768
17.324686
14.937520
13.528466
12.948513
13.873577
13.181567
13.224483
13.441443
13.284683
13.461709
13.614893
13.518929
13.467669
13.056993
12.966990
12.558699
12.544990
12.677908
##ZVALUE=325
0.235438
0.372529
0.299811
0.239611
0.309944
0.358820
0.174642
0.122786
0.297427
0.269413
0.160933
0.331998
0.265837
0.236630
0.204444
0.327826
0.342727
0.345707
0.372529
0.357628
0.412464
0.372529
0.420809
0.390410
0.488758
0.410676
0.447631
0.423789
0.409484
0.458956
0.509620
0.397563
0.497699
0.411868
0.584722
0.568628
0.483990
0.537634
0.672936
0.879765
0.905991
0.965595
1.028776
1.047850
2.193451
13.479590
34.251809
91.059804
163.463950
299.698710
412.808657
550.677776
624.114871
648.664832
602.648854
473.664999
359.076858
219.908953
132.977962
59.794784
30.761957
12.803674
8.863807
8.213520
9.806752
12.840629
18.424988
29.830933
42.261481
61.174631
75.975657
92.339516
100.437999
100.856423
95.397830
80.100894
68.062544
50.642490
38.741827
26.746988
21.116734
15.689731
14.645457
13.072491
12.797713
12.737513
12.564659
12.920499
13.114810
12.518764
12.899637
12.801886
12.567639
12.488961
12.563467
12.162924
##ZVALUE=330
0.299811
0.196695
0.095963
0.196695
0.331998
0.196695
0.227690
0.357628
0.347495
0.200868
0.257492
0.209808
0.272989
0.384450
0.347495
0.311732
0.301600
0.345707
0.397563
0.309944
0.277758
0.305772
0.269413
0.384450
0.321865
0.299811
0.392795
0.371933
0.384450
0.437498
0.448823
0.441670
0.456572
0.495911
0.505447
0.421405
0.503659
0.515580
0.516772
0.441670
0.456572
0.678897
0.612736
0.692606
0.752807
0.925660
1.268983
4.342794
22.959709
53.980947
129.721761
214.262605
358.549953
467.284918
584.483743
627.985001
597.092509
527.914762
391.017795
285.732746
159.370899
91.531873
39.131641
19.974709
9.223819
7.829666
8.247495
9.350777
12.843609
18.104911
29.517412
40.521622
57.698488
71.661472
87.330937
93.548894
95.510483
90.546608
76.989532
64.467788
47.556758
37.510991
26.793480
21.338463
16.409755
14.225841
13.022423
12.790561
12.550950
12.334585
12.239814
11.884570
12.061596
12.325644
11.793971
11.837482
##ZVALUE=335
0.272989
0.334978
0.150800
0.268817
0.280738
0.151992
0.132918
0.249743
0.164509
0.359416
0.457764
0.310540
0.395775
0.339746
0.414848
0.279546
0.230670
0.413656
0.220537
0.362992
0.246763
0.219941
0.200868
0.259876
0.398755
0.421405
0.259876
0.400543
0.302792
0.408888
0.481606
0.260472
0.449419
0.420809
0.528693
0.330806
0.459552
0.480413
0.491738
0.434518
0.488758
0.546575
0.565648
0.598431
0.598431
0.827909
0.819564
0.868440
0.961423
2.342463
8.941889
36.706924
77.281594
172.137618
268.967748
419.955850
518.578887
596.051812
602.823496
538.945794
451.392531
307.543874
209.123492
111.301541
59.784651
22.853613
12.108684
7.933974
7.928610
8.684993
9.418726
12.606978
16.949773
27.281642
38.404465
55.061579
67.996979
81.304908
87.805986
89.018941
85.395575
72.477460
61.564445
46.745539
38.074851
27.078986
21.321774
16.146898
14.045835
12.856722
12.561679
12.003779
11.500716
11.923909
11.445880
11.854768
##ZVALUE=340
0.188947
0.183582
0.236630
0.141859
0.295639
0.330806
0.190735
0.357628
0.110865
0.123978
0.157952
0.017881
0.373721
0.387430
0.259876
0.202656
0.371933
0.229478
0.251532
0.199676
0.226498
0.186563
0.131726
0.172853
0.103712
0.317693
0.238419
0.156760
0.500679
0.298619
0.472665
0.425577
0.257492
0.460744
0.338554
0.360608
0.368953
0.403523
0.319481
0.397563
0.355840
0.484586
0.588894
0.524521
0.439882
0.630617
0.594854
0.762939
0.828505
0.771880
0.703931
1.280904
4.357696
21.571517
52.993894
131.461620
219.293833
355.587006
455.412865
555.614829
588.710904
555.296540
479.656458
351.643562
246.460438
131.239891
74.506998
32.160878
15.244484
8.371472
7.677674
7.997751
8.311868
9.911656
12.208819
18.766522
25.639534
38.838983
50.351620
66.142678
76.897740
83.761811
84.673762
78.988671
72.148442
58.481693
47.755837
34.921765
27.459860
20.045638
16.139746
13.000965
11.801720
11.699796
11.638999
11.345744
##ZVALUE=345
0.173450
0.250936
0.178814
0.233650
0.159740
0.118613
0.233650
0.335574
0.141859
0.241995
0.147820
0.271797
0.226498
0.270605
0.186563
0.215769
0.292659
0.073910
0.250936
0.216961
0.279546
0.309944
0.468493
0.269413
0.410676
0.238419
0.209808
0.277758
0.274777
0.324845
0.264645
0.236630
0.254512
0.270605
0.386834
0.325441
0.438690
0.428557
0.423789
0.417829
0.441670
0.495911
0.318885
0.335574
0.372529
0.347495
0.546575
0.465512
0.642538
0.617504
0.648499
0.579953
0.727773
0.725985
1.919866
11.936426
33.394694
88.691711
157.170892
281.057954
381.207466
500.884652
551.607609
558.251739
508.219004
388.124585
289.850831
171.684623
98.675489
41.234493
20.424724
9.887815
7.766485
7.605553
7.968545
8.243918
9.551644
11.874437
16.164780
25.087595
34.383535
48.759580
58.881640
69.660544
75.781941
78.469515
74.909925
66.626668
57.933927
44.825673
36.010742
25.254488
20.040870
15.804768
12.912750
11.724830
##ZVALUE=350
0.241995
0.280738
0.376701
0.244975
0.209808
0.493526
0.477433
0.452995
0.455976
0.432730
0.325441
0.341535
0.304580
0.502467
0.386834
0.437498
0.304580
0.365973
0.369549
0.472665
0.413656
0.499487
0.427961
0.466704
0.500679
0.458956
0.433922
0.533462
0.413656
0.572801
0.740886
0.571609
0.569820
0.366569
0.560880
0.488758
0.423789
0.731945
0.564456
0.526905
0.585914
0.515580
0.538826
0.459552
0.652671
0.655651
0.775456
0.623465
0.533462
0.672936
0.719428
0.868440
0.738502
0.749826
0.859499
0.891685
1.124740
5.875826
18.764734
58.262944
111.779571
221.116543
315.527916
436.484814
508.149862
542.534590
514.978766
424.245000
324.259996
194.919705
120.530725
56.295991
28.374791
11.421442
8.067489
7.371902
7.364750
7.405877
7.959604
9.170771
11.300445
16.365647
22.098422
31.787753
40.353537
53.224564
61.838627
69.562793
72.160959
69.441795
63.183904
52.590966
43.792725
32.932758
25.539994
18.841624
##ZVALUE=355
0.222921
0.203848
0.217557
0.094771
0.036955
0.112653
0.195503
0.110865
0.054836
0.153780
0.266433
0.195503
0.289679
0.236630
0.276566
0.194907
0.213981
0.275970
0.201464
0.320673
0.151992
0.210404
0.298619
0.191927
0.198483
0.224710
0.336766
0.294447
0.410676
0.387430
0.293851
0.381470
0.226498
0.359416
0.361800
0.196695
0.321865
0.210404
0.345707
0.406504
0.349879
0.270605
0.418425
0.371933
0.426769
0.294447
0.378489
0.400543
0.493526
0.515580
0.543594
0.586510
0.522733
0.427961
0.510812
0.590682
0.598431
0.785589
0.865459
2.544522
9.888411
37.889481
78.076720
162.383914
253.785849
385.880470
463.761687
519.367456
516.317487
438.587666
354.094505
235.195756
149.635673
69.189668
34.819841
13.484955
8.038878
7.047653
6.924868
7.219911
7.166862
7.632971
8.457899
9.991527
13.069510
19.542575
25.965571
36.737919
45.263767
55.122972
61.276555
65.360665
64.220428
57.371855
51.128864
40.348768
##ZVALUE=360
0.124574
0.101924
0.224710
0.182986
0.117421
0.110865
0.248551
0.212789
0.183582
0.240803
0.118613
0.320673
0.121593
0.244975
0.408888
0.392795
0.166893
0.224710
0.123978
0.166893
0.232458
0.267625
0.233650
0.289679
0.246763
0.359416
0.334978
0.395775
0.293851
0.256896
0.286698
0.430942
0.384450
0.173450
0.269413
0.225902
0.221729
0.274777
0.311732
0.495911
0.528693
0.402927
0.274777
0.273585
0.181794
0.329614
0.413656
0.287890
0.478625
0.419617
0.487566
0.406504
0.549555
0.607967
0.501871
0.612736
0.413656
0.503659
0.582933
0.729561
0.854731
1.266003
4.237890
19.826889
47.599673
117.167830
193.325877
308.749676
401.960611
488.197803
506.515503
465.683937
392.828584
269.139409
179.281831
89.001656
47.997832
19.639730
9.898543
6.751418
6.606579
6.599426
6.720424
6.989837
6.919503
7.487535
8.779764
11.610985
15.303493
22.011995
29.271841
40.289760
47.109723
54.912567
57.946444
58.023930
##ZVALUE=365
0.164509
0.192523
0.105500
0.081658
0.228882
0.267625
0.176430
0.301600
0.215769
0.267625
0.102520
0.084639
0.077486
0.213981
0.198483
0.310540
0.248551
0.225902
0.272989
0.266433
0.206828
0.351667
0.418425
0.179410
0.240803
0.334978
0.162721
0.204444
0.172853
0.356436
0.173450
0.205636
0.260472
0.253916
0.487566
0.055432
0.290871
0.128746
0.160933
0.139475
0.268817
0.191927
0.396967
0.363588
0.361800
0.336766
0.393987
0.238419
0.355840
0.429749
0.303984
0.488758
0.395775
0.450611
0.490546
0.516772
0.493526
0.532866
0.508428
0.537634
0.562668
0.662804
0.742674
0.954866
1.901984
11.012554
30.110478
78.353882
142.746568
259.217024
347.286463
442.381501
483.078957
467.937589
412.201881
298.465490
212.433934
118.682981
64.865947
26.013851
12.499690
6.532669
6.055832
6.150603
6.306767
6.061792
6.044507
6.410480
6.990433
7.446408
9.443760
13.575554
17.819405
26.238561
33.250451
42.189956
##ZVALUE=370
0.113845
0.045896
0.312924
0.116825
0.284910
0.230670
0.188947
0.217557
0.088811
0.081658
0.170469
0.146627
0.326633
0.245571
0.199676
0.199676
0.301600
0.197887
0.143647
0.160933
0.253916
0.295639
0.232458
0.251532
0.111461
0.287890
0.262856
0.253916
0.279546
0.102520
0.163913
0.245571
0.245571
0.309944
0.319481
0.353456
0.354648
0.314713
0.248551
0.350475
0.282526
0.210404
0.169873
0.182986
0.299811
0.320673
0.491738
0.277758
0.279546
0.255704
0.235438
0.276566
0.366569
0.379682
0.332594
0.381470
0.277758
0.437498
0.438690
0.408888
0.439882
0.582933
0.372529
0.565648
0.783801
0.875592
1.122952
5.489588
18.491745
59.340596
110.265613
206.034780
294.075608
407.609940
461.012721
469.516516
430.037975
337.725878
249.782801
140.644908
79.632998
33.363700
16.959906
8.022785
6.000996
5.476475
5.578995
5.651712
5.571842
5.372763
5.602837
6.046891
6.390810
8.411407
11.201501
16.239882
##ZVALUE=375
0.330806
0.216961
0.179410
0.146627
0.227690
0.384450
0.159740
0.316501
0.346899
0.277758
0.442863
0.366569
0.277758
0.392795
0.267625
0.335574
0.099540
0.307560
0.149608
0.277758
0.141859
0.234842
0.244975
0.354648
0.252724
0.271797
0.335574
0.223517
0.325441
0.336766
0.280738
0.296831
0.276566
0.373721
0.223517
0.445843
0.326633
0.308752
0.351667
0.290871
0.303984
0.302792
0.341535
0.192523
0.343919
0.328422
0.298619
0.392795
0.371933
0.478625
0.444651
0.403523
0.458956
0.540614
0.398755
0.467896
0.625849
0.566840
0.314713
0.451803
0.524521
0.585914
0.414848
0.502467
0.447631
0.644922
0.570416
0.821948
0.889897
2.676845
10.082722
36.546588
78.338981
166.754723
247.333646
354.075432
424.695015
467.039943
449.523926
371.533632
287.334919
175.774693
111.926794
56.359768
29.512644
11.471510
6.399751
5.100965
5.321503
5.103946
5.280972
5.015731
5.126595
5.380511
5.543828
6.300807
##ZVALUE=380
0.179410
0.200868
0.175834
0.212789
0.162721
0.045896
0.329614
0.343919
0.178814
0.229478
0.375509
0.232458
0.193715
0.214577
0.379682
0.305772
0.410676
0.290871
0.311732
0.239611
0.305772
0.191927
0.153780
0.237823
0.366569
0.380874
0.327826
0.239611
0.347495
0.348687
0.412464
0.182986
0.253916
0.108480
0.350475
0.077486
0.277758
0.084639
0.138879
0.311732
0.401735
0.435710
0.437498
0.400543
0.438690
0.455976
0.505447
0.447631
0.421405
0.272989
0.263453
0.358820
0.285506
0.371933
0.352859
0.468493
0.251532
0.436902
0.327826
0.472665
0.473857
0.524521
0.440478
0.400543
0.666976
0.602603
0.509620
0.660419
0.706911
0.820756
0.878572
1.340508
5.000830
24.125576
55.929422
127.468705
202.796459
311.910510
390.771627
453.769565
454.342961
391.860604
323.797464
225.437880
151.669979
76.627731
40.317774
15.593767
8.121729
5.270839
4.890561
4.675984
4.836917
4.793406
5.043745
4.854798
##ZVALUE=385
0.168681
0.211596
0.133514
0.233650
0.174642
0.236630
0.162721
0.292659
0.246763
0.304580
0.264645
0.127554
0.352859
0.255704
0.239611
0.109673
0.115633
0.170469
0.199676
0.078678
0.233650
0.346899
0.299811
0.264645
0.377893
0.218749
0.308752
0.257492
0.282526
0.320673
0.095963
0.425577
0.377893
0.282526
0.379682
0.401735
0.433922
0.365973
0.407696
0.304580
0.475645
0.424981
0.221729
0.268817
0.207424
0.329614
0.324845
0.497699
0.312924
0.278950
0.385642
0.394583
0.298619
0.338554
0.251532
0.337958
0.329614
0.446439
0.345707
0.509620
0.448823
0.359416
0.375509
0.435710
0.520945
0.386834
0.463724
0.515580
0.496507
0.651479
0.511408
0.749826
0.795722
0.939965
2.418756
13.795495
34.792423
87.223649
151.531696
264.815688
347.540975
427.701473
447.204709
424.342752
371.536016
273.059607
194.247961
106.592774
61.522722
26.667714
11.984706
5.321503
4.390478
4.303455
4.291534
4.214644
##ZVALUE=390
0.189543
0.230670
0.304580
0.206828
0.365973
0.356436
0.220537
0.279546
0.435710
0.318885
0.282526
0.361800
0.335574
0.371933
0.380874
0.260472
0.378489
0.270605
0.382662
0.351667
0.263453
0.483990
0.425577
0.346899
0.352859
0.351667
0.458956
0.352859
0.403523
0.432730
0.395775
0.431538
0.545979
0.575781
0.458956
0.370741
0.531673
0.498891
0.464916
0.411868
0.426769
0.360608
0.467896
0.434518
0.442863
0.529885
0.380874
0.406504
0.387430
0.372529
0.485778
0.367761
0.373721
0.192523
0.497699
0.455976
0.508428
0.458956
0.439882
0.412464
0.443459
0.570416
0.304580
0.535846
0.537634
0.536442
0.578761
0.636578
0.609756
0.783801
0.811815
0.610948
0.829697
0.782609
0.923872
0.770688
1.433492
7.081628
21.723509
66.039562
124.017000
225.863457
304.463506
390.740633
435.754657
447.412729
410.060883
322.712660
245.855451
151.027441
88.172555
37.051439
17.733574
6.758571
4.538894
4.281998
##ZVALUE=395
0.265837
0.257492
0.222921
0.218749
0.332594
0.202656
0.372529
0.379682
0.257492
0.258684
0.269413
0.392795
0.135899
0.285506
0.378489
0.202656
0.362992
0.132918
0.261664
0.273585
0.197887
0.326633
0.331998
0.247955
0.354648
0.265837
0.369549
0.315905
0.426769
0.300407
0.465512
0.399947
0.575781
0.526905
0.404716
0.521541
0.443459
0.417829
0.333786
0.486970
0.348687
0.457764
0.536442
0.475645
0.464916
0.463724
0.505447
0.498891
0.494719
0.441670
0.355840
0.381470
0.471473
0.469685
0.418425
0.367761
0.563860
0.353456
0.471473
0.413656
0.494719
0.363588
0.376701
0.490546
0.509620
0.362992
0.435710
0.479817
0.548959
0.676513
0.621676
0.639558
0.583529
0.713468
0.666976
0.529885
0.645518
0.748634
0.841618
3.907681
13.954639
47.680736
90.228915
169.925690
247.612000
354.684591
418.040752
455.441475
440.558791
370.934606
292.595625
180.953741
112.792850
51.022768
24.901628
9.462833
##ZVALUE=400
0.017881
0.011921
0.014901
0.085831
0.126958
0.048876
0.158548
-0.041723
0.040531
-0.019670
0.095963
-0.006557
0.101924
0.128746
0.037551
0.058413
0.160933
0.114441
0.214577
-0.035763
0.035763
0.227690
-0.054836
0.050664
0.019670
0.033975
0.088811
0.177622
0.213981
0.172853
0.249743
0.212789
0.311732
0.136495
0.265837
0.213981
0.248551
0.293851
0.272989
0.171661
0.340939
0.337958
0.399947
0.142455
0.201464
0.216961
0.294447
0.253916
0.169873
0.171661
0.218749
0.272989
0.218749
0.132918
0.172853
0.205636
0.177622
0.250936
0.152588
0.059605
0.241995
0.182986
0.205636
0.134706
0.198483
0.179410
0.433922
0.298619
0.302792
0.344515
0.270605
0.365973
0.490546
0.188947
0.415444
0.535846
0.513792
0.364780
0.330806
0.533462
0.713468
2.006888
7.197857
26.323795
57.007670
127.911568
202.123523
309.089422
377.559662
437.119603
439.911485
385.504961
316.910744
209.916830
139.843822
71.665645
##END
