##TITLE=AAI0552
##FORMAT=SPECTACLE-ASCII V-1.2
##DATA TYPE=ULTRAVIOLET SPECTRUM
##SECOND TYPE=ULTRAVIOLET SPECTRUM
##DATE=01/24/18
##TIME=19:22:11
##SPECTROMETER/DATA SYSTEM=SPECTACLE
##XUNITS=NM EM
##YUNITS=ENERGY
##YFACTOR=1
##FIRSTX=220
##LASTX=410
##NPOINTS=96
##3DDATA=Equidistant
##ZUNITS=NM EX
##FIRSTZ=210
##LASTZ=400
##ZPOINTS=39
##XYDATA=(Y..Y)
##ZVALUE=210
3.276467
3.739595
3.633499
3.104806
3.036857
3.077984
3.433824
3.514886
2.926588
3.166795
2.302527
2.268553
1.931787
1.832843
2.565980
2.141595
2.651811
2.330542
3.212690
2.408624
2.477765
3.564954
2.805591
3.053546
2.992749
3.170967
3.533959
3.695488
4.016757
4.016757
4.115701
4.190803
4.237890
4.309416
4.626513
4.683733
4.903674
4.184842
4.997849
4.715919
4.975796
5.141497
5.332828
4.633665
4.407763
5.226731
5.258918
5.302429
5.300641
5.117655
6.001592
5.708933
6.009936
6.129742
4.735589
5.906820
5.333424
6.692410
5.544424
6.041527
6.537437
5.975962
6.338954
7.341504
7.037520
6.488562
7.830858
9.340644
10.375977
10.210872
12.424588
12.802482
17.227530
18.823743
20.326972
22.498965
21.266937
19.683838
20.114779
19.292831
17.924905
15.381575
12.984872
11.486411
9.305477
8.892417
6.910563
6.038547
6.155968
6.311536
6.344914
6.615520
6.247759
7.240772
7.670522
6.837845
##ZVALUE=215
11.085868
11.591911
9.490848
7.975698
6.136894
6.282926
6.325841
6.439686
7.728934
7.201433
5.593896
5.086660
4.669428
3.507733
3.457665
2.961755
2.302527
2.634525
2.604723
2.923608
3.981590
3.706813
3.428459
3.576875
4.217625
3.194809
3.607869
3.799796
4.703999
4.199743
3.773570
4.577637
4.932880
4.230738
3.980994
5.049706
5.529523
4.480481
4.775524
4.902482
5.253553
5.460978
5.246997
5.726814
5.910993
4.897714
5.237460
5.617738
5.656481
6.881952
5.658865
6.264448
6.780624
5.990863
7.203817
6.310940
5.825758
5.439520
6.624460
5.628467
5.900860
6.364584
6.641746
6.470680
5.759597
6.465912
7.502437
6.914735
7.959604
10.712743
12.693405
13.829470
16.868711
17.635822
18.601418
18.421412
18.999577
19.694567
17.023683
17.031431
15.792847
13.097525
13.940930
11.245608
11.098981
8.848906
7.626414
6.760955
6.469488
5.539656
5.932450
6.032586
6.787777
5.935431
6.618500
6.567836
##ZVALUE=220
32.215714
33.057928
33.333898
32.140613
29.979944
25.076866
19.213557
13.788939
14.480948
13.853908
14.268756
14.566779
14.065504
12.240410
9.727478
8.187890
5.811453
4.007816
3.457665
3.072619
3.032684
3.384948
3.616810
3.302693
3.379583
3.303885
4.457831
4.503727
4.270673
4.389882
3.969669
4.283786
4.926920
5.710721
5.677938
6.117821
5.993843
6.210804
4.576445
5.545616
5.602837
5.933642
5.700588
5.852580
5.800724
6.473660
6.280541
5.513430
5.484819
6.163716
6.194711
6.566644
6.555915
6.729960
6.362796
6.657839
6.374717
6.775856
6.258488
7.542968
7.129908
6.387830
6.414652
6.379485
7.092953
7.070899
7.540584
8.576512
8.155704
10.201931
10.314584
12.455583
14.445782
16.053915
18.168688
16.638637
18.299818
16.466975
16.914606
14.340878
15.053749
13.967752
11.795759
11.506677
9.586811
8.348823
8.504987
7.503629
7.319450
6.044507
6.609559
5.979538
5.604625
5.755424
6.340742
6.052852
##ZVALUE=225
51.594973
58.339834
68.765879
84.082484
87.110996
86.046457
76.704621
60.363412
45.887828
38.030744
29.330850
24.624467
28.701425
29.658675
27.610660
26.274920
21.965504
18.465519
13.818741
8.192658
6.891489
5.242825
3.600717
4.424453
3.794432
4.496574
4.296899
4.595518
4.442930
4.803538
5.204678
5.025864
5.710721
5.993843
5.801916
5.928874
6.463528
5.878806
5.940795
5.858541
6.565452
5.872846
5.438924
7.501841
5.968809
6.397963
6.551743
6.376505
6.964803
7.056594
6.702542
6.913543
6.657839
6.807446
7.075667
6.942749
6.897449
7.350445
6.374717
7.509589
7.588863
7.291436
7.856488
7.049441
8.031726
7.645488
9.187460
9.218454
8.692741
11.329651
11.958480
13.911724
15.368462
15.330911
15.795827
17.855763
16.702414
15.486479
15.129447
15.841722
12.082458
12.107491
11.852980
10.406971
8.864999
9.321570
8.354783
7.454753
6.572604
7.309914
7.069707
6.202459
6.311536
6.928444
6.317496
6.710887
##ZVALUE=230
43.020844
50.450563
73.026419
120.269656
151.744485
180.867910
198.660493
195.647478
171.083808
144.316554
101.398826
76.165795
55.130720
49.244761
48.594475
52.228570
53.424835
49.568415
44.718981
35.438538
27.848482
17.865896
12.317896
8.342862
5.804896
5.455613
5.061626
5.897880
5.349517
5.223751
6.055832
5.965829
5.632639
6.523728
6.387830
5.815625
5.742908
6.651878
6.103516
6.309748
6.864667
7.003546
6.746650
7.370710
6.706715
7.197857
7.045865
6.250739
7.123947
7.469654
6.699562
8.473992
7.301569
7.840991
7.304549
7.359982
8.524656
7.418990
7.333755
7.966757
8.319616
7.461905
8.627772
8.877516
8.684993
8.608699
9.476542
10.989904
10.773540
13.474822
14.848709
15.867949
16.474724
17.699599
17.168522
18.305779
18.126965
18.536448
17.176867
16.394854
13.762712
11.604428
13.379455
11.160970
10.930896
10.502934
9.291768
9.816885
8.424520
9.347796
8.955598
8.009672
8.834600
9.532571
7.900596
7.871985
##ZVALUE=235
14.599562
15.705824
34.935474
79.973936
130.035877
201.105475
310.357809
344.040990
377.166867
371.671915
327.701569
269.238949
211.184621
141.840577
101.710558
78.225732
75.634718
84.111691
84.621906
77.549815
77.968836
53.158998
51.239729
34.141541
25.294423
10.882616
10.482669
8.474588
7.148981
7.762909
7.654428
8.438826
7.859468
7.950664
6.708503
7.187724
8.378625
7.800460
7.569790
7.120967
7.437468
7.093549
6.876588
7.707477
7.700920
7.026792
7.335544
7.262826
7.146597
6.746650
7.578731
7.798672
7.034540
7.986426
8.523464
8.595586
8.204579
8.430481
9.512901
9.519458
8.711815
8.238554
8.815527
9.058714
9.641647
9.841919
10.190606
10.444522
11.731982
13.743639
15.152693
16.882420
18.637776
21.435618
20.710826
22.354722
19.380450
18.483996
19.054413
18.497705
15.788674
14.506578
14.368892
13.096929
12.650490
11.911988
10.787845
12.088418
11.068583
10.650754
9.073615
10.547638
10.420680
10.858774
9.314418
9.568930
##ZVALUE=240
2.313852
2.595782
6.432533
16.741753
47.073960
90.788603
185.448527
276.881456
417.082906
519.138575
586.550832
575.731993
525.301695
419.178009
321.371555
210.199952
149.806738
115.633607
98.956823
103.228688
113.458633
116.007924
113.831758
102.910995
83.559752
69.413781
49.048662
35.654902
22.541881
18.189549
13.727546
11.298656
10.305643
10.686517
9.670854
10.034442
8.957982
9.741783
9.019971
8.466840
9.069443
8.778572
9.034872
8.799434
8.265972
8.641481
10.076761
9.698868
8.711815
8.941889
8.428693
8.298755
8.738637
9.237528
8.701682
9.376407
9.336472
9.229779
10.499954
9.342432
9.393692
9.319782
9.081960
9.298921
10.480881
10.120869
11.144876
12.338758
13.129711
14.357567
14.950633
17.897487
18.021464
20.165443
20.562410
21.206737
20.075440
19.942522
20.913482
18.813610
17.903447
16.271472
14.648438
14.567971
14.071465
13.595819
13.170838
12.054443
11.522770
12.528896
11.414886
11.948943
11.346936
10.278821
11.400580
11.698604
##ZVALUE=245
1.624823
1.301765
1.673698
1.583695
3.714561
14.883876
34.371614
91.256499
162.129998
264.137983
419.971943
534.924865
662.152767
679.894686
642.415881
562.845469
413.929820
299.882889
214.881897
131.830573
105.902553
100.201964
114.725828
134.685636
134.287477
126.485825
118.039846
95.784664
79.410672
56.325793
39.712787
26.457906
18.715858
13.529658
11.328459
11.119843
9.661913
9.340644
9.163618
7.730722
7.885695
8.569956
8.345842
6.794930
6.884933
7.172823
7.522702
6.720424
6.758571
6.902814
7.129908
6.966591
7.105470
7.749796
7.119775
6.996989
6.605983
6.352663
7.001758
7.085800
7.569790
7.878542
7.413626
8.168817
8.652806
8.266568
8.984804
9.234548
10.235906
11.930466
14.198422
13.747811
15.658736
16.774535
17.584562
17.435551
16.692877
15.725493
15.873909
15.158653
13.893843
12.982488
13.673902
11.874437
11.726618
10.161996
10.909438
10.834932
11.102557
11.073947
10.448694
9.601712
9.638667
9.711981
9.699464
9.220839
##ZVALUE=250
1.228452
1.067519
1.137853
1.223683
1.431704
1.333952
2.272725
7.098913
28.584599
62.163472
154.314637
253.996849
367.972851
538.337827
646.605492
739.884973
733.542442
654.918551
556.237698
379.858017
262.613893
179.349780
111.175776
97.272992
110.148787
122.143626
142.008662
141.966939
137.957931
126.523972
107.409954
82.594752
63.117743
40.574670
28.529763
16.660690
13.071895
10.173917
8.631945
8.579493
8.195639
7.083416
7.186532
6.915927
6.012917
6.188750
6.249547
6.141663
6.291866
5.463958
6.082654
6.311536
5.977750
5.623698
5.906820
6.286502
6.033778
6.071925
5.933642
6.150603
5.793571
6.276965
6.754994
5.710721
7.025599
6.519556
7.512569
7.702708
8.152723
9.229779
9.865761
10.978580
12.391806
13.366938
14.070868
14.413595
14.372468
14.387965
12.194514
12.291670
11.770725
11.160970
10.711551
10.351539
9.011626
9.808540
9.073615
8.922815
8.537769
8.401871
8.161664
8.119941
7.903576
8.862615
8.251667
8.192658
##ZVALUE=255
1.130700
1.190901
1.102686
1.005530
1.323819
1.459718
1.157522
1.237988
1.947880
4.313588
18.024445
48.719645
99.956989
214.246511
334.127545
517.778993
651.960969
781.719685
818.516016
778.352022
680.232644
539.577007
342.071652
220.075846
123.882890
96.833706
90.492964
104.488730
127.375722
144.505501
146.798491
146.911740
130.627751
104.292631
82.721710
54.935813
37.000775
22.380948
14.611483
9.646416
6.825924
6.425977
6.307960
5.824566
6.426573
5.487800
6.025434
5.515814
5.702972
5.172491
5.479455
5.067587
5.667806
5.438924
4.871488
5.057454
4.835725
5.570650
5.568862
5.264878
5.277991
5.072951
5.535483
5.260706
6.020665
5.865693
5.994439
6.189942
6.692410
8.288622
8.015633
8.394718
9.748936
10.386705
11.347532
11.563897
11.466742
10.726452
10.137558
9.570718
9.506941
8.792877
8.281469
7.799864
7.887483
7.851720
7.189512
7.023811
7.181764
6.731749
7.435679
7.161498
7.175803
7.100701
7.054806
7.373691
##ZVALUE=260
0.901818
0.978708
0.885725
0.992417
1.096725
0.966787
1.243949
1.161695
1.304746
1.495481
1.300573
2.287626
8.113980
33.946633
71.999431
168.092847
276.555419
459.386706
619.017482
799.050927
888.614655
907.167792
805.676579
662.673712
445.197821
307.758451
179.460645
113.350749
81.035495
85.063577
106.750727
124.722719
141.879916
153.687000
147.353411
129.072666
109.512806
79.379678
59.365630
35.357475
23.413897
12.078881
8.561611
5.701780
5.562901
5.243421
5.685687
5.168915
5.337000
5.349517
5.189776
5.261898
4.501939
4.608631
4.620552
4.322529
4.934669
4.432797
4.421473
4.624724
4.393458
4.718900
4.286766
5.017519
4.920959
5.186796
4.987717
5.599856
5.421638
6.447434
7.375479
8.134842
8.005500
8.535981
8.702874
8.860826
8.427501
8.283854
7.902980
7.064939
6.979704
7.117987
6.424785
6.807446
5.964637
6.817579
6.027818
6.177425
6.042719
5.544424
6.916523
6.250739
6.688833
5.899668
5.212426
6.209612
##ZVALUE=265
0.918508
0.701547
0.857711
0.793934
0.701547
0.920892
1.059771
0.971556
1.078844
1.070499
1.572967
1.294613
1.746416
1.685619
3.972650
20.334721
52.138567
128.801465
231.471658
432.440639
610.917807
791.314840
961.152911
999.608636
913.586020
789.510608
593.289733
411.337614
227.006674
142.168999
80.491900
70.820451
81.169605
109.926462
128.263831
147.504807
153.322816
145.284534
131.114721
103.350878
80.899000
52.847862
35.597682
19.350648
11.474490
7.476807
6.183982
4.641414
4.140735
4.565716
4.710555
4.617572
4.508495
4.442930
4.084706
4.022717
4.522800
4.617572
4.166961
4.280806
4.003644
3.716946
3.684759
4.031658
4.559755
4.562736
4.645586
4.701614
4.846454
5.037785
5.676746
6.675720
6.534457
7.345676
7.366538
7.854700
7.643700
6.970763
6.548762
6.257892
5.769730
6.144643
5.734563
5.296469
5.483627
5.834699
5.316734
5.230904
4.928708
5.408525
5.123615
5.124807
5.012751
4.859567
5.388856
5.416870
##ZVALUE=270
0.817776
0.689626
0.627637
0.756979
0.770688
0.798702
0.736713
0.943542
0.789762
0.962615
1.068711
1.127720
1.062751
1.292825
1.191497
1.578927
2.200603
9.325743
28.102994
94.258785
188.424587
334.562659
580.126643
783.241987
993.669033
1015.592813
1015.592813
953.395963
736.520886
554.186702
388.194919
203.722715
115.341544
63.129663
61.077476
82.358718
106.092691
132.055879
145.946741
154.944658
146.473646
128.385425
108.228922
76.970458
55.743456
32.821894
21.210909
12.623668
8.486509
5.067587
4.713535
4.469752
4.228950
4.051924
4.061460
4.067421
3.920794
4.424453
4.035830
4.274845
3.852844
4.225969
4.225969
4.000664
4.216433
4.130602
4.280806
4.445910
4.942417
5.348921
5.755424
6.160736
6.548762
7.115602
7.194877
7.059574
6.429553
6.559491
6.321669
5.922914
5.530715
5.539656
5.008578
4.879832
5.007982
4.577637
4.773736
4.353523
5.005598
4.616976
4.718900
4.574656
4.447699
4.825592
4.207492
4.760623
##ZVALUE=275
0.762939
0.744462
0.525713
0.652671
0.686646
0.685453
0.751615
0.733733
0.793934
0.907779
0.972748
1.040697
0.985861
0.975728
1.158714
1.097918
1.252890
1.577735
1.524687
5.310774
20.688772
55.374503
156.287551
291.291475
530.766845
720.098019
940.290689
1015.557647
1015.557647
1015.557647
962.253809
709.294677
505.931973
266.248584
155.522823
71.461797
50.254464
56.643486
77.290535
106.517673
126.761794
144.662857
151.296854
143.859982
129.580498
101.949573
79.525709
56.231618
38.594604
21.226406
13.517737
7.353425
5.117655
4.399419
4.108548
4.025698
3.875494
3.867745
3.930926
3.889799
3.761649
4.017949
3.721714
3.886819
3.504753
4.012585
3.959537
3.897548
4.458427
4.753470
5.415678
5.323887
6.171465
5.826950
6.141663
6.551743
6.522536
6.350875
6.067753
5.348921
5.020499
4.781485
5.014539
4.750490
4.279613
4.330873
4.271865
4.182458
4.138947
4.293919
4.088879
3.826618
4.291534
4.092455
4.022717
4.430413
##ZVALUE=280
0.712872
0.655651
0.556707
0.696778
0.639558
0.676513
0.633597
0.654459
0.821948
0.715852
0.844598
0.822544
0.836849
0.928640
0.814795
1.227856
0.928640
1.154542
1.230836
1.209974
1.591444
2.085567
12.663603
41.020513
128.192902
234.678984
428.872705
624.875426
887.271762
1015.584469
1015.584469
1015.584469
1015.584469
820.207000
607.048869
343.840718
204.521418
92.338920
51.150918
40.757656
53.897500
79.633594
101.141930
127.108693
141.858459
147.084594
139.882565
125.466585
104.629993
76.497793
56.752563
33.589602
22.058487
11.751652
7.243752
4.870892
4.181862
3.929734
3.869534
3.564954
3.547668
3.822446
3.650784
3.666878
3.450513
3.760457
3.940463
4.130602
4.151464
4.574656
5.070567
5.151629
5.682707
5.587935
5.400777
5.982518
5.666614
5.343556
5.518794
4.889965
4.590750
4.311800
4.180670
3.952980
4.104972
4.028678
3.942847
4.123449
3.871918
3.951788
3.720522
3.729463
3.824830
3.721714
3.668666
3.512502
##ZVALUE=285
0.540614
0.597835
0.628829
0.513792
0.509620
0.517964
0.351667
0.683665
0.566840
0.752807
0.794530
0.674725
0.817776
0.762939
0.890493
0.913739
0.960827
1.081824
0.951886
0.998974
1.124740
1.332760
1.449585
1.752973
5.655885
18.739700
69.109797
147.187710
323.064923
504.371524
775.000453
985.638499
1015.584469
1015.584469
1015.584469
965.949893
763.678551
480.826497
303.083658
143.019557
73.912740
34.974813
34.429431
53.748488
71.630478
100.705624
120.791793
137.145519
143.830776
138.391852
126.359463
102.489591
81.313848
56.313872
37.671924
20.620823
13.173819
6.985664
5.128980
4.024506
3.895760
3.912449
3.289580
3.851652
4.060864
4.013777
3.776550
3.820658
3.985763
4.411936
4.475713
4.797578
5.310774
5.322695
5.459785
5.704761
5.456805
5.292892
5.049706
4.731417
4.286766
4.332662
3.810525
3.843904
3.941655
3.864765
3.755689
3.722906
3.693700
3.859997
3.661513
3.575683
3.664494
3.417730
3.702641
3.748536
##ZVALUE=290
0.601411
0.507832
0.450611
0.480413
0.503659
0.529885
0.561476
0.538826
0.569820
0.623465
0.511408
0.601411
0.689626
0.642538
0.413656
0.611544
0.750422
0.796914
0.776649
1.050830
0.887513
1.024604
1.260638
1.329780
1.627803
1.625419
2.340674
8.283854
38.750768
90.844631
155.738592
389.079452
611.548424
927.324891
1015.584469
1015.584469
1015.584469
1015.584469
901.059508
606.400967
399.807692
198.093653
98.982453
37.749410
25.834441
33.431649
47.297478
70.994496
89.233518
115.208626
130.464435
138.477683
136.120915
121.553540
102.002621
76.188445
56.052804
34.287572
22.802949
12.585521
8.015633
5.021691
4.019737
3.752708
3.560781
3.588796
3.410578
4.031658
3.675818
4.225969
4.487634
4.572868
4.840493
4.997849
5.167723
5.072951
5.000830
4.455447
4.517436
4.085898
4.075766
3.937483
3.983974
3.845692
3.955960
3.825426
3.656745
3.564954
3.602505
3.731847
3.423691
3.449917
3.380775
3.495812
3.544688
3.225803
##ZVALUE=295
0.402927
0.426769
0.584722
0.586510
0.461936
0.528693
0.450611
0.627637
0.612736
0.591874
0.561476
0.498891
0.527501
0.566840
0.544786
0.711679
0.795722
0.710487
0.956655
0.967979
1.015663
0.782609
0.974536
1.429915
1.128912
1.395941
1.560450
1.384616
1.810789
3.201962
12.890697
57.391524
133.994818
322.760940
529.053807
848.155618
1015.584469
1015.584469
1015.584469
1015.584469
1011.352539
745.041966
515.860915
273.138881
145.720840
52.044988
26.065707
21.385550
28.360486
46.174526
63.390732
88.474751
107.380748
123.953819
131.150484
128.804445
117.015839
95.285773
76.293945
51.996708
36.556721
21.399856
13.376474
7.796884
5.173683
4.044771
3.757477
3.634691
3.742576
4.088879
4.547834
4.526973
4.986525
5.100965
5.003810
4.977584
4.670620
4.557967
4.381537
4.151464
3.895760
3.825426
3.700852
3.781915
3.544688
3.516674
3.541708
3.278852
3.484488
3.597736
3.619790
3.372431
3.424883
3.072619
3.143549
3.210902
##ZVALUE=300
0.494719
0.507832
0.563860
0.524521
0.489950
0.481606
0.530481
0.423789
0.651479
0.350475
0.482798
0.449419
0.663996
0.573993
0.773668
0.655651
0.726581
0.707507
0.622869
0.846982
0.801682
0.781417
0.939965
0.939965
0.955462
0.913739
1.041889
1.063943
1.258850
1.537800
1.656413
2.025962
6.039739
36.629438
92.444420
236.500502
407.420993
715.915561
963.250995
1015.584469
1015.584469
1015.584469
1015.584469
911.828876
670.097470
382.339954
224.166512
97.721815
44.687986
17.967820
17.396808
26.112795
38.475990
59.787631
78.151822
103.524923
118.105412
126.133561
124.904513
111.505985
97.410679
74.059963
56.238770
35.391450
23.663640
13.307929
8.276701
5.564690
4.430413
4.130602
4.282594
4.776716
4.610419
4.642606
4.539490
4.570484
4.703999
4.287958
4.316568
4.030466
3.914833
3.679991
3.640652
3.783703
3.386736
3.621578
3.269911
3.490448
3.215671
3.339648
3.303885
3.295541
3.325939
3.060699
3.177524
3.184676
##ZVALUE=305
0.473857
0.336766
0.365973
0.507832
0.385642
0.461936
0.427961
0.428557
0.464916
0.461936
0.458956
0.431538
0.590682
0.672936
0.389814
0.493526
0.512600
0.482798
0.540614
0.701547
0.701547
0.601411
0.590682
0.856519
0.890493
0.879765
0.881553
0.904799
1.112819
1.224875
1.406670
1.569986
1.355410
1.645684
3.513694
22.453666
63.114762
183.359981
333.190560
630.292892
888.664722
1015.585661
1015.585661
1015.585661
1015.585661
1015.585661
819.440484
524.272919
328.094959
148.229599
71.724653
23.892522
13.706684
17.019510
23.547411
39.274693
54.801702
77.109933
93.602538
111.708641
118.141770
116.994977
107.518435
91.226697
73.568821
51.169991
36.158562
21.381974
13.728738
7.942915
5.997419
5.132556
5.168915
4.907846
4.756451
4.891753
4.352927
4.136562
3.927946
4.018545
3.919601
3.769994
3.849864
3.465414
3.799796
3.490448
3.329515
3.460646
3.650784
3.369451
3.059506
3.212690
3.246665
2.942681
3.074408
3.066659
##ZVALUE=310
0.316501
0.322461
0.522733
0.437498
0.343919
0.367761
0.456572
0.516772
0.435710
0.532866
0.442863
0.555515
0.507832
0.591874
0.541806
0.532866
0.405908
0.442863
0.466704
0.690818
0.524521
0.615716
0.720620
0.594854
0.652671
0.798702
0.779629
1.050830
0.963807
1.029968
1.072884
1.149774
1.395941
1.476407
1.693964
1.859665
2.047420
9.432435
34.996867
121.034384
238.036513
487.056971
750.986934
1015.584469
1015.584469
1015.584469
1015.584469
1015.584469
1015.584469
744.083524
484.867692
236.696005
123.688579
43.311715
17.796755
11.403561
14.348626
22.640824
32.527447
50.907731
65.849423
88.730454
101.096630
111.597776
112.442970
102.193952
90.758801
70.038438
53.353906
33.786893
23.646951
14.229417
9.868741
6.550550
5.346537
4.713535
4.694462
3.915429
3.945827
3.886819
3.885627
3.637671
3.499985
3.602505
3.645420
3.540516
3.580451
3.380775
3.336668
3.424883
3.383756
3.165603
3.201962
3.209710
3.086925
3.022552
##ZVALUE=315
0.448823
0.310540
0.340939
0.459552
0.412464
0.326633
0.346899
0.413656
0.443459
0.420809
0.541806
0.411868
0.484586
0.481606
0.452995
0.377893
0.431538
0.569820
0.616908
0.485778
0.596642
0.582933
0.460744
0.399947
0.715852
0.754595
0.694990
0.811815
0.743866
0.957847
0.879765
1.073480
1.162887
1.134872
1.274943
1.374483
1.579523
1.868606
1.975894
4.399419
18.469691
78.813434
171.253681
380.046964
613.875985
974.891782
1015.608907
1015.608907
1015.608907
1015.608907
1015.608907
896.382928
633.469820
329.570770
177.158713
64.371824
26.428699
10.380745
10.014772
13.211966
19.418597
31.695962
44.651628
63.951612
80.001950
98.173618
105.385780
105.734468
99.607706
81.734657
68.389773
49.165487
35.095811
20.861626
14.020801
8.179545
5.915761
4.708767
4.180670
4.028678
3.594756
3.458858
3.643632
3.402829
3.417730
3.330708
3.492832
3.433824
3.303885
3.331900
3.215671
3.356934
3.081560
3.019571
3.132820
3.079772
##ZVALUE=320
0.392795
0.582933
0.620484
0.449419
0.429749
0.304580
0.391603
0.365973
0.284910
0.469685
0.510812
0.430942
0.454783
0.490546
0.444651
0.390410
0.438690
0.317693
0.462532
0.468493
0.381470
0.440478
0.420809
0.562668
0.599623
0.710487
0.704527
0.758767
0.772476
0.748634
0.727773
0.782609
0.795722
1.009703
0.988841
1.106858
1.242757
1.104474
1.255870
1.617670
1.828671
2.245903
7.937551
49.085617
122.583508
310.350657
515.739918
854.454637
1015.585661
1015.585661
1015.585661
1015.585661
1015.585661
1015.585661
805.971026
443.908572
244.606733
94.478726
40.723681
13.414621
8.637905
8.984804
11.341572
17.629862
25.736690
42.479634
56.285858
75.081587
88.537931
100.015998
100.482702
93.349814
82.035661
61.911941
46.926737
31.712651
21.644831
12.876987
8.274913
5.564690
4.237890
3.738999
3.686547
3.559589
3.602505
3.454685
3.229976
3.356934
3.326535
3.259778
3.362894
3.148913
3.203750
2.927780
3.349781
3.195405
##ZVALUE=325
0.437498
0.434518
0.478625
0.285506
0.371933
0.274777
0.282526
0.390410
0.449419
0.490546
0.420809
0.333786
0.560880
0.533462
0.353456
0.395775
0.544786
0.546575
0.459552
0.527501
0.589490
0.634789
0.464916
0.675917
0.568628
0.646710
0.609756
0.570416
0.529885
0.664592
0.746846
0.693798
0.666976
0.812411
0.887513
0.914931
0.858903
1.123548
0.951886
1.213551
1.199841
1.521707
1.824498
1.880527
4.274845
27.832985
78.145862
214.856863
383.844972
694.904923
967.728496
1015.584469
1015.584469
1015.584469
1015.584469
1015.584469
905.995965
556.434393
341.414809
145.257711
63.540936
17.355680
8.999705
7.781982
7.892847
11.408925
16.366839
27.335882
38.857460
56.525469
69.890618
85.374713
92.582703
94.120502
87.737441
72.478652
59.014559
41.912794
30.768514
18.317699
11.854768
7.162690
5.280972
3.988743
3.612638
3.511906
3.815889
3.351569
3.250837
3.180504
3.175735
3.036857
2.877712
2.980828
3.074408
3.067851
##ZVALUE=330
0.331998
0.329614
0.252724
0.285506
0.460744
0.444651
0.336766
0.398755
0.456572
0.378489
0.336766
0.371933
0.235438
0.260472
0.181794
0.280738
0.417829
0.496507
0.440478
0.456572
0.543594
0.755787
0.584722
0.376701
0.425577
0.361800
0.424981
0.544786
0.382662
0.607967
0.663996
0.520945
0.662804
0.611544
0.783801
0.657439
0.695586
0.958443
0.851750
0.906587
0.920892
1.222491
1.210570
1.395941
1.506805
1.718998
2.520680
11.849999
41.495562
139.390826
271.397829
535.136461
790.672898
1015.584469
1015.584469
1015.584469
1015.584469
1015.584469
989.786386
660.436749
427.489877
197.061896
95.451474
31.434894
12.679696
6.761551
6.952882
7.725954
9.941459
16.652942
23.849607
38.129687
50.374866
67.983866
79.378486
88.310838
86.936951
79.973936
70.543885
53.460002
40.757656
25.947690
18.530488
11.443496
7.800460
5.383492
4.080534
3.652573
3.333688
3.226995
3.198981
2.850890
3.115535
2.936721
2.817512
2.806783
##ZVALUE=335
0.327826
0.286698
0.270605
0.387430
0.343919
0.292659
0.308752
0.211596
0.365973
0.220537
0.387430
0.364780
0.396967
0.477433
0.463724
0.450611
0.476837
0.318885
0.429749
0.434518
0.381470
0.405908
0.464916
0.456572
0.380874
0.408888
0.452995
0.567436
0.556707
0.463724
0.322461
0.699759
0.553727
0.474453
0.565648
0.588894
0.621676
0.778437
0.818968
0.799894
0.842810
0.928640
0.924468
1.168847
0.956655
1.221895
1.497865
1.590848
1.960993
5.310774
23.182631
95.426440
203.366876
445.342660
696.517825
1015.569568
1015.569568
1015.569568
1015.569568
1015.569568
1015.569568
762.806535
517.272949
273.694396
143.956542
48.171878
18.396974
7.729530
6.669760
6.445646
7.294416
10.373592
14.753938
24.349689
34.394860
49.882531
61.767697
73.972940
80.116987
80.956817
75.263977
63.003898
51.917434
38.521886
30.037761
18.353462
12.370944
7.684827
5.569458
3.981590
3.565550
3.148913
3.160834
3.046989
2.775788
2.964735
##ZVALUE=340
0.185966
0.103712
0.205636
0.147820
0.187755
0.190735
0.148416
0.143647
0.274777
0.212789
0.102520
0.157952
0.062585
0.303984
0.226498
0.285506
0.403523
0.135899
0.137687
0.026822
0.179410
0.201464
0.430942
0.268817
0.404716
0.313520
0.281930
0.380874
0.416636
0.355840
0.419617
0.406504
0.401735
0.401735
0.513792
0.497699
0.361800
0.637770
0.515580
0.564456
0.699759
0.706911
0.716448
0.794530
0.875592
0.939965
0.944734
1.127720
1.195669
1.403689
1.616478
2.739429
9.013414
52.515864
135.487914
345.835090
592.033863
966.364741
1015.474796
1015.474796
1015.474796
1015.474796
1015.474796
913.097858
633.051991
331.439972
182.983875
73.030591
28.694868
9.028912
7.116795
6.354451
6.306767
7.278919
9.320974
14.757514
21.566749
33.545494
44.963956
60.243607
69.482923
76.711774
76.234937
70.941448
62.825680
50.434470
39.306879
26.971698
19.074678
11.733770
7.803440
4.985929
3.914833
3.256798
3.122687
2.993941
##ZVALUE=345
0.175834
0.142455
0.049472
0.044703
0.191927
0.062585
0.142455
0.148416
0.094771
0.092983
0.243783
0.114441
0.150800
0.258684
0.136495
0.165701
0.253916
0.269413
0.134706
0.247955
0.233650
0.453591
0.103712
-0.017881
0.250936
0.169873
0.083447
0.202656
0.289679
0.363588
0.384450
0.199676
0.274777
0.340939
0.441670
0.254512
0.455976
0.269413
0.257492
0.386834
0.363588
0.561476
0.491738
0.628829
0.581741
0.749826
0.689626
0.809431
1.063943
1.056790
1.235604
1.230836
1.317859
1.809001
5.638599
23.180842
101.630688
213.324428
450.127721
706.449747
1015.381813
1015.381813
1015.381813
1015.381813
1015.381813
1015.381813
818.093419
523.035526
231.321454
106.932521
31.881928
12.854934
7.310510
6.665587
6.085634
6.101727
6.317496
8.060932
12.805462
18.889904
30.664802
40.717721
53.263903
61.414838
69.011450
70.125461
66.579580
60.538650
48.219562
38.503408
26.342869
18.933415
11.555552
7.786751
5.107522
3.543496
##ZVALUE=350
0.500679
0.343919
0.540614
0.407696
0.293851
0.367761
0.406504
0.454783
0.413656
0.448823
0.352859
0.452995
0.410676
0.476837
0.507832
0.641942
0.501871
0.546575
0.487566
0.456572
0.581741
0.448823
0.404716
0.521541
0.651479
0.495911
0.519753
0.598431
0.551939
0.491738
0.517964
0.542998
0.540614
0.571609
0.713468
0.572801
0.619888
0.796914
0.610948
0.836849
0.724792
0.737906
0.856519
0.809431
0.794530
0.796914
0.995994
1.061559
1.105666
0.940561
1.008511
1.392961
1.332760
1.440644
1.634955
1.924634
2.658963
14.642477
50.073862
163.608789
310.463905
613.991618
882.020593
1015.705466
1015.705466
1015.705466
1015.705466
1015.705466
969.298482
565.873981
333.950520
140.381455
61.138868
16.671419
8.108616
6.152987
5.956888
5.399585
5.185604
6.280541
7.973909
12.390614
17.361641
26.459694
34.851432
46.718717
55.196881
63.050985
64.312816
61.200857
56.923628
45.967698
36.261678
25.476813
18.378496
12.086630
##ZVALUE=355
0.461936
0.622869
0.509620
0.451803
0.447631
0.521541
0.630617
0.581741
0.535846
0.568628
0.528693
0.335574
0.667572
0.559688
0.574589
0.529885
0.591874
0.563860
0.626445
0.418425
0.505447
0.561476
0.547767
0.547767
0.708699
0.512600
0.520945
0.525713
0.646710
0.683665
0.586510
0.666976
0.755787
0.672936
0.781417
0.727773
0.658631
0.746846
0.691414
0.812411
0.680685
0.777841
0.731945
0.794530
0.782609
0.875592
0.837445
0.873804
1.034737
1.173615
1.088977
1.105666
1.357794
1.184940
1.429915
1.581907
1.392961
1.747608
2.135634
6.260872
24.480820
100.487471
209.269524
440.869927
686.905980
1007.040739
1015.764475
1015.764475
1015.764475
1015.764475
995.605588
681.204796
421.447754
178.287625
80.036521
22.878647
9.397864
5.906820
5.912781
5.312562
4.796982
5.166531
5.666614
7.092953
9.691715
15.491843
22.024512
32.035708
39.954782
49.608946
55.607557
58.133602
56.744814
51.020980
43.975711
33.766627
##ZVALUE=360
0.082850
0.296831
0.254512
0.218749
0.243783
0.403523
0.209808
0.264645
0.305772
0.227690
0.361800
0.291467
0.403523
0.315905
0.302792
0.251532
0.362992
0.339746
0.478625
0.326633
0.290871
0.346899
0.214577
0.210404
0.248551
0.429749
0.378489
0.435710
0.384450
0.341535
0.279546
0.374913
0.512600
0.391603
0.363588
0.456572
0.370741
0.517964
0.549555
0.535846
0.688434
0.345707
0.632405
0.627637
0.584722
0.756979
0.720620
0.665784
0.585914
0.783801
0.830889
0.875592
0.936985
1.013875
0.938773
1.043677
1.051426
1.257658
1.307726
1.593828
1.854897
3.036857
10.766983
49.228668
118.220448
297.552943
504.895449
834.961534
1015.584469
1015.584469
1015.584469
1015.584469
992.401838
681.099892
445.447564
213.353634
108.452439
37.252903
13.936758
6.093979
5.393624
4.811883
4.559755
4.511476
4.322529
4.483461
5.365610
7.945895
11.322498
18.195510
25.530457
34.809709
42.346716
48.887730
52.211881
51.678419
##ZVALUE=365
0.386834
0.265837
0.300407
0.127554
0.309944
0.377893
0.201464
0.269413
0.230670
0.308752
0.228882
0.216961
0.276566
0.301600
0.230670
0.420809
0.397563
0.308752
0.337958
0.225902
0.393987
0.408888
0.457764
0.320673
0.358820
0.362992
0.508428
0.539422
0.323653
0.440478
0.556707
0.439882
0.377893
0.460744
0.443459
0.636578
0.486970
0.456572
0.521541
0.433922
0.588894
0.473857
0.458956
0.644922
0.674725
0.602603
0.737906
0.641942
0.773668
0.699759
0.664592
0.634789
0.676513
0.748634
0.809431
1.043677
1.120567
1.160502
1.171827
1.345873
1.334548
1.648664
1.811981
2.191663
4.869699
29.787421
79.942942
211.150646
383.688807
689.492822
914.773941
1015.584469
1015.584469
1015.584469
1015.584469
792.635679
568.947792
323.394537
177.449584
63.011646
23.361444
6.733537
5.199909
4.768968
4.575849
3.995895
4.018545
3.734827
3.942847
4.912615
6.316900
9.957552
14.297962
22.586584
29.244423
37.388802
##ZVALUE=370
0.250936
0.366569
0.282526
0.303984
0.200868
0.253916
0.274777
0.318885
0.434518
0.325441
0.266433
0.391603
0.254512
0.246763
0.318885
0.284910
0.220537
0.259876
0.255704
0.199676
0.314713
0.333786
0.287890
0.371933
0.469685
0.523925
0.413656
0.442863
0.369549
0.367761
0.427961
0.523925
0.399947
0.584722
0.475645
0.469685
0.381470
0.436902
0.424981
0.531673
0.582933
0.439882
0.543594
0.717640
0.389814
0.540614
0.584722
0.545979
0.599623
0.689626
0.668764
0.647902
0.743866
0.820756
0.859499
0.758767
0.817776
0.904799
0.974536
1.163483
1.117587
1.269579
1.302958
1.398921
1.735687
1.827478
2.815723
17.004609
56.383610
172.997713
324.206948
608.267784
874.446630
1015.584469
1015.584469
1015.584469
1015.584469
1003.445983
756.002665
412.676930
230.963826
88.510513
38.255453
10.616779
5.497932
4.759431
4.337430
4.098415
3.735423
3.763437
3.417730
3.502965
3.997684
5.517602
7.893443
12.803674
##ZVALUE=375
0.215769
0.346899
0.256896
0.329614
0.198483
0.274777
0.324845
0.371933
0.302792
0.268817
0.236630
0.350475
0.121593
0.467896
0.334978
0.392795
0.207424
0.282526
0.300407
0.409484
0.485778
0.287890
0.614524
0.327826
0.345707
0.301600
0.309944
0.185966
0.220537
0.424981
0.244975
0.340939
0.393987
0.381470
0.291467
0.461936
0.355840
0.478625
0.470877
0.495911
0.466704
0.459552
0.489950
0.361800
0.579953
0.542998
0.585914
0.487566
0.492930
0.624657
0.495911
0.544786
0.466704
0.656843
0.719428
0.818968
0.671744
0.731945
0.806451
0.888705
0.856519
1.040697
0.901818
1.221895
1.425743
1.413822
1.462698
1.751781
2.150536
8.127689
30.638576
118.244886
253.890753
543.485880
803.570747
1015.584469
1015.584469
1015.584469
1015.584469
1015.584469
925.715566
554.476976
339.130759
160.314441
76.241493
23.442507
8.816719
4.805923
4.378557
3.797412
3.488660
3.530979
3.249645
3.127456
3.077984
3.620982
##ZVALUE=380
0.211596
0.258684
0.251532
0.296831
0.222921
0.207424
0.174642
0.136495
0.163913
0.132918
0.283718
0.150800
0.255704
0.219941
0.317693
0.371933
0.348687
0.409484
0.139475
0.409484
0.205636
0.283718
0.289679
0.272989
0.233650
0.258684
0.404716
0.338554
0.222921
0.261664
0.334978
0.226498
0.269413
0.434518
0.336766
0.429749
0.463724
0.399947
0.406504
0.214577
0.440478
0.401735
0.519753
0.417829
0.458956
0.588894
0.411868
0.540614
0.545979
0.519753
0.668764
0.372529
0.521541
0.662804
0.628829
0.547767
0.650883
0.622869
0.661612
0.593662
0.844598
0.787973
0.832677
0.827909
0.788569
1.082420
1.130700
1.297593
1.498461
1.751781
2.002716
4.199743
14.992952
70.335865
167.706609
402.052999
646.566749
986.457467
1015.584469
1015.584469
1015.584469
1015.584469
987.282991
690.949559
450.048447
212.382674
104.084611
32.995939
12.420416
5.175471
4.320741
3.830791
3.465414
3.291965
3.310442
2.980828
##ZVALUE=385
0.170469
0.208616
0.194907
0.305772
0.205636
0.050664
0.132918
0.260472
0.192523
0.140667
0.170469
0.261664
0.208616
0.226498
0.296831
0.285506
0.282526
0.181794
0.240803
0.304580
0.193715
0.227690
0.208616
0.403523
0.256896
0.321865
0.244975
0.249743
0.177622
0.396967
0.027418
0.469685
0.356436
0.383854
0.352859
0.350475
0.268817
0.397563
0.533462
0.435710
0.342727
0.219941
0.287890
0.330806
0.399947
0.262856
0.433922
0.430942
0.533462
0.472665
0.384450
0.325441
0.541806
0.568628
0.463724
0.540614
0.550747
0.615716
0.543594
0.592470
0.585914
0.738502
0.666976
0.889897
0.756979
0.897646
1.025796
1.156926
1.292825
1.645684
1.622438
1.874566
2.260804
2.647638
9.306669
50.890446
129.400492
324.921608
560.504794
953.503847
1015.584469
1015.584469
1015.584469
1015.584469
1015.585065
804.429650
555.227995
296.918750
166.978836
65.958500
25.064945
6.425977
4.149675
3.591776
3.361702
3.278852
##ZVALUE=390
0.207424
0.148416
0.192523
0.288486
0.181794
0.121593
0.189543
0.161529
0.248551
0.143647
0.177622
0.097752
0.287890
0.166893
0.343919
0.202656
0.245571
0.335574
0.172853
0.174642
0.202656
0.156760
0.386834
0.202656
0.273585
0.311732
0.287890
0.294447
0.264645
0.318885
0.367761
0.332594
0.477433
0.461936
0.185966
0.491738
0.255704
0.226498
0.259876
0.322461
0.282526
0.412464
0.314713
0.397563
0.324845
0.336766
0.304580
0.400543
0.345707
0.342727
0.450611
0.355840
0.345707
0.446439
0.386834
0.588894
0.438690
0.687838
0.573993
0.586510
0.669956
0.611544
0.682473
0.746846
0.823736
0.697970
0.892878
1.049638
1.252890
1.359582
1.540780
1.657605
1.751781
1.783967
1.837611
2.142787
4.815459
33.739805
98.235607
278.446078
509.897470
920.865536
1015.584469
1015.584469
1015.584469
1015.584469
1015.584469
999.642611
764.093995
452.741981
259.692669
103.897452
44.543743
10.864735
4.896522
3.964901
##ZVALUE=395
0.114441
0.083447
0.278950
0.072718
0.248551
0.393987
0.223517
0.036955
0.080466
0.332594
0.259876
0.142455
0.263453
0.308752
0.239611
0.317693
0.235438
0.222921
0.386834
0.283718
0.162721
0.145435
0.187755
0.138879
0.275970
0.189543
0.199676
0.223517
0.166893
0.411868
0.400543
0.379682
0.444651
0.310540
0.452995
0.416636
0.477433
0.243783
0.252724
0.477433
0.304580
0.369549
0.461936
0.390410
0.449419
0.596642
0.382662
0.421405
0.420809
0.504851
0.366569
0.474453
0.470877
0.493526
0.549555
0.595450
0.526905
0.722408
0.558496
0.534654
0.535846
0.600815
0.673532
0.654459
0.726581
0.783801
0.922680
1.074672
1.210570
1.578927
1.455545
1.511574
1.570582
1.756549
1.807809
1.728535
1.731515
2.027750
2.995729
17.811656
70.580840
241.788626
457.963943
868.567824
1015.584469
1015.584469
1015.584469
1015.584469
1015.584469
1015.584469
986.273885
584.547520
358.420014
160.651803
73.819757
21.526814
##ZVALUE=400
0.119805
0.171661
0.210404
0.310540
0.337958
0.315905
0.220537
0.216961
0.125766
0.208616
0.362992
0.275970
0.305772
0.299811
0.179410
0.333786
0.246763
0.350475
0.373721
0.191927
0.302792
0.317693
0.258684
0.221729
0.212789
0.078678
0.213981
0.401735
0.254512
0.406504
0.325441
0.340939
0.402927
0.319481
0.388622
0.461936
0.351667
0.233650
0.296831
0.445843
0.335574
0.435710
0.419617
0.329614
0.287890
0.330806
0.318885
0.483990
0.431538
0.325441
0.503659
0.582933
0.487566
0.478625
0.504851
0.561476
0.504851
0.536442
0.600815
0.438690
0.593662
0.676513
0.752807
0.732541
0.723600
0.926852
0.771880
0.938773
1.015663
1.337528
1.307726
1.425743
1.416802
1.330972
1.396537
1.472831
1.504421
1.603961
1.583695
2.039671
2.482533
7.095933
30.207634
122.161508
274.064541
624.409914
971.391797
1015.584469
1015.584469
1015.584469
1015.584469
1015.584469
1015.584469
761.653781
461.554527
209.692717
##END
