##TITLE=AAI0551
##FORMAT=SPECTACLE-ASCII V-1.2
##DATA TYPE=ULTRAVIOLET SPECTRUM
##SECOND TYPE=ULTRAVIOLET SPECTRUM
##DATE=01/24/18
##TIME=19:17:51
##SPECTROMETER/DATA SYSTEM=SPECTACLE
##XUNITS=NM EM
##YUNITS=ENERGY
##YFACTOR=1
##FIRSTX=220
##LASTX=410
##NPOINTS=96
##3DDATA=Equidistant
##ZUNITS=NM EX
##FIRSTZ=210
##LASTZ=400
##ZPOINTS=39
##XYDATA=(Y..Y)
##ZVALUE=210
2.718568
3.237724
3.373623
2.688766
2.995729
2.478957
4.107952
3.198981
3.109574
3.234744
3.573895
2.083778
2.148747
1.743436
1.809597
1.822710
2.244711
2.494454
1.936555
2.321601
2.469420
2.747774
2.069473
2.428889
2.510548
2.836585
3.175735
3.337860
3.372431
3.054738
3.892779
3.193617
2.799630
3.952980
3.954768
4.046559
3.634691
4.035830
4.608631
3.461838
3.961921
3.334880
4.255772
3.421903
4.490614
3.708601
4.619956
4.153848
4.398823
4.640818
4.713535
3.575683
4.992485
4.174709
3.805757
4.163980
4.262924
5.333424
4.678965
4.439950
4.732609
4.651546
4.696846
4.710555
4.661679
4.834533
5.559921
6.492734
6.260872
8.132458
9.296536
10.373592
11.768937
12.907982
13.418794
14.942884
13.687611
15.466809
14.969707
13.711452
13.115406
11.503696
10.230541
7.965565
7.018447
6.262660
5.089641
4.753470
5.132556
4.524589
4.975796
4.327893
4.824996
5.119443
5.835891
6.910563
##ZVALUE=215
9.458661
8.839965
7.560849
6.673932
6.451607
5.867481
6.651878
5.930662
6.073713
5.577803
6.158948
5.126595
4.549623
3.577471
2.851486
2.448559
2.599955
2.032518
2.779961
2.821684
2.911687
3.031492
2.660751
3.864765
3.385544
3.447533
2.944469
3.407598
4.124641
3.644824
4.169941
4.420877
3.833771
3.992915
4.045963
4.041791
3.776550
4.470944
4.441738
3.758669
3.500581
4.300475
4.616976
4.734993
4.671812
4.932880
4.126430
5.027652
4.431605
4.427433
4.448891
4.379749
4.956722
4.714727
4.423857
4.943609
4.667640
5.542636
5.103946
5.099773
4.288554
4.871488
4.228950
5.371571
4.816651
4.907846
5.046725
6.315708
7.228851
8.029938
9.118915
9.013414
9.564757
12.355447
13.815761
13.511777
14.213920
14.461875
13.330579
11.728406
12.131929
10.413527
9.428859
8.856654
6.274581
5.922914
5.681515
5.121827
4.453659
4.705787
4.170537
4.499555
4.264712
5.116463
4.039407
4.876852
##ZVALUE=220
27.787685
29.729605
27.907491
31.271577
26.718974
21.764636
18.912554
14.163852
14.624000
14.287829
14.121532
14.037490
13.533831
12.677908
10.682940
7.163882
5.454421
4.458427
3.667474
3.112555
2.790689
3.026724
3.200769
3.163815
3.397465
2.958775
4.102588
3.491640
3.120899
3.503561
4.664660
3.636479
4.446507
4.295707
4.057884
5.030632
4.546642
4.350543
4.756451
4.810691
4.845858
4.354715
5.027652
4.832745
5.047917
5.968809
4.257560
4.632473
5.328655
4.759431
5.166531
5.602837
5.516410
5.886555
5.306602
5.541444
4.903674
5.020499
5.060434
5.523562
5.860925
5.405545
5.047917
5.850792
5.921721
5.645752
6.010532
6.598830
6.919503
8.079410
9.337664
10.846853
11.738539
13.077855
14.612675
16.226768
16.316772
15.006661
14.151931
13.905764
13.467669
11.611581
10.781884
8.446574
7.542968
7.529855
7.096529
4.776716
5.215406
5.321503
5.542636
4.674792
4.686713
4.693866
4.809499
5.066991
##ZVALUE=225
45.615435
50.248504
59.238672
73.977709
77.419877
76.356530
69.023967
54.146647
43.044686
32.700896
28.290749
26.610494
26.393533
30.216575
29.299855
27.502775
19.912720
16.225576
12.197495
8.856654
5.953908
4.607439
4.053712
3.743768
3.704429
3.933907
4.380941
4.718900
4.822612
4.168749
3.913641
5.131960
4.386902
5.007982
4.901886
4.525781
5.048513
4.500747
4.678965
5.686879
5.872846
5.479455
5.364418
5.569458
5.726814
5.662441
5.989671
5.059838
5.532503
5.667806
5.817413
6.170869
5.805492
5.375743
5.929470
5.863905
6.127954
6.664991
6.029606
5.944967
6.142855
6.499887
6.422997
5.431771
6.168485
6.861687
8.091927
6.910563
7.433891
7.822514
10.062456
11.308789
12.063980
12.755990
14.852881
12.984872
14.535785
13.130903
12.846589
12.403727
11.151433
10.117888
9.926558
8.594990
8.149743
6.959438
7.063746
6.368756
6.090999
6.553531
5.604625
6.996989
5.472898
5.187988
5.997419
5.820990
##ZVALUE=230
37.095547
40.916800
64.038634
99.008679
131.805539
161.475539
172.435641
176.253915
156.347752
136.300921
92.454553
70.647001
52.842498
49.889684
50.175786
49.965978
51.676631
51.053762
44.845939
37.075877
27.346611
16.942620
11.867881
7.702708
4.211664
4.432797
4.699826
5.080700
4.575849
4.564524
4.935861
5.364418
5.822778
5.739927
5.135536
5.365610
5.713701
4.790425
5.622506
5.683899
5.394816
5.828738
6.227493
5.472898
6.648898
5.881786
5.768538
6.118417
5.422831
6.045699
6.369948
6.099939
6.442666
5.698800
6.716847
6.607771
6.379485
6.668568
6.240606
6.714463
6.994605
7.324815
6.909966
7.165670
8.468628
7.704496
7.029772
7.910728
8.775592
10.467768
11.559725
11.622906
13.002753
16.810894
16.667843
15.468597
16.397834
15.139580
15.717745
15.044808
13.499856
12.296438
11.406541
10.082722
9.816885
8.692741
8.406639
8.041859
7.269979
7.253885
7.585883
6.882548
6.872416
7.633567
8.047819
6.721616
##ZVALUE=235
12.814999
13.181567
35.025477
67.870617
109.999776
175.963640
232.033730
297.480822
321.890712
325.305462
293.642879
228.312612
175.256729
111.241937
88.370442
72.937608
73.201656
79.880953
82.893968
83.221793
80.411434
70.554614
49.995780
37.502646
25.535822
16.890764
9.398460
8.542538
6.694794
6.655455
6.101727
6.384850
5.891919
6.672740
6.624460
6.436706
6.062984
6.355643
6.387830
5.603433
7.177591
6.137490
5.453825
5.781651
5.687475
6.150603
5.901456
6.330609
5.803704
6.184578
6.849766
6.528497
6.237626
6.212592
6.683469
6.762743
7.268786
6.520748
7.056594
7.247925
7.919669
8.437634
7.381439
8.975863
8.358955
8.243918
8.005500
9.324551
8.489490
11.428595
11.527538
12.992620
14.542937
15.816689
17.053485
16.900897
16.083717
16.940832
14.644861
15.492439
13.572574
12.405515
11.633635
10.757446
9.920597
10.393858
9.594560
8.344650
8.616447
9.126663
7.821918
8.384585
8.431673
8.820891
8.228421
8.755922
##ZVALUE=240
1.682639
1.957417
5.774498
16.214848
43.756962
78.929663
155.959725
237.190723
351.734757
423.660874
484.542847
484.026670
458.327532
361.875892
282.025933
187.487602
130.786896
106.964707
93.975663
97.651482
113.891959
114.376545
110.301971
101.789832
80.833435
69.473982
48.343539
34.080744
21.721721
15.688539
12.030602
10.022521
8.887649
9.307861
9.925961
8.452535
8.035898
8.318424
7.777810
8.018613
6.989837
6.965995
6.537437
6.972551
6.443858
6.788969
6.414652
7.491708
7.041693
6.805658
7.719994
7.797480
7.896423
7.821918
6.739497
7.068515
6.705523
6.504655
6.768703
7.607937
8.836985
7.467866
8.262992
9.208918
7.802844
9.320974
8.060932
9.663701
10.684729
11.565685
12.342930
12.857914
15.651584
16.902685
16.890764
17.536879
18.647909
17.370582
18.277764
14.960766
15.905499
13.939738
12.983680
11.597872
11.418462
12.379885
9.877682
10.783672
10.541677
10.417700
9.356737
9.789467
10.585785
9.584427
9.190440
9.945631
##ZVALUE=245
1.243949
1.643896
1.555681
1.515746
3.659725
11.316538
35.814643
75.432658
160.576701
249.771476
387.372971
488.557816
565.977693
595.852733
570.101738
477.218628
387.882590
268.321633
191.847682
122.244954
101.997852
99.816918
116.878748
129.475594
132.829547
125.907660
115.305781
100.487471
74.575543
59.309602
42.886734
27.010441
19.142628
14.078617
10.674000
9.954572
9.392500
8.830428
8.256435
8.715987
8.069873
6.568432
6.509423
7.461905
6.424785
6.408691
6.842613
5.825758
6.552935
6.774664
6.209612
6.018877
6.138682
6.573796
6.464720
5.728602
6.479621
7.740855
6.739497
6.923676
6.511807
6.642938
6.973743
7.790923
7.655621
7.234812
7.767677
8.332729
9.339452
10.376573
11.056662
12.506843
13.308525
15.442967
15.605688
15.087724
15.837550
15.478730
15.350580
14.609694
12.885928
13.065934
12.307763
11.768937
10.985732
10.047555
10.388494
9.648800
8.854866
9.961724
10.025501
9.689927
9.017587
9.024739
9.354949
8.892417
##ZVALUE=250
1.047850
0.971556
1.352429
1.262426
1.338720
1.375675
2.243519
6.676912
25.610924
57.756901
143.844485
238.980651
348.704457
505.250692
610.019565
680.754781
681.640506
605.090857
518.352985
355.558991
245.828629
165.987611
106.573701
94.374418
106.344819
121.859908
136.173964
141.403675
136.423707
120.801926
111.561418
82.541704
60.491562
39.185882
27.390718
17.068982
12.410879
9.206533
8.499622
8.372664
7.562637
7.199645
6.638765
6.497502
6.290674
6.543994
6.251931
5.766749
5.085468
5.389452
5.353689
5.629659
5.484819
6.141663
6.027818
5.930662
5.503893
5.111694
5.777478
6.301999
6.408691
6.026626
6.463528
6.226897
6.245971
6.579757
7.646680
7.780790
8.569956
8.740425
10.109544
11.166930
11.422634
12.827516
13.218522
12.537837
13.554692
11.899471
13.018847
11.518598
11.132956
9.824634
9.559989
10.024905
9.518862
8.889437
8.737445
8.877516
8.461475
9.005666
7.493496
8.152723
8.474588
8.157492
7.838607
7.994771
##ZVALUE=255
1.000762
1.194477
0.894666
1.250505
1.092553
1.226664
1.054406
1.414418
1.552701
4.009604
17.623901
45.723915
93.050003
206.921697
321.584940
499.150753
627.690554
744.485855
790.457726
751.353502
650.371909
519.106984
333.717465
214.896798
120.286942
93.893409
92.033744
104.592443
126.483440
138.999820
149.835944
142.658949
129.633546
105.371475
85.002780
54.502487
38.657784
23.186803
13.909936
9.592772
7.755756
6.379485
6.661415
5.809665
5.793571
5.554557
5.965829
5.646944
5.700588
5.161762
5.629659
4.817843
5.243421
5.183816
5.247593
5.493760
5.042553
5.145669
5.252957
5.104542
4.707575
4.899502
4.810691
5.035996
5.701780
5.736947
6.219745
6.535649
6.864667
7.863641
8.776784
9.184480
9.989738
10.717511
11.563897
11.289716
11.074543
10.394454
10.713935
9.867549
9.200573
9.068847
8.580685
8.049607
8.239746
7.804632
7.122755
6.715655
6.917715
7.017851
7.243752
6.610751
6.863475
6.733537
7.081628
6.970763
##ZVALUE=260
1.017451
1.035929
0.696778
0.796914
0.826716
0.935793
0.951886
1.307726
1.199841
1.522899
1.648664
2.342463
6.982684
29.401779
64.991713
159.606934
267.158747
451.710820
598.757863
785.267949
875.978470
891.961455
795.477033
655.004978
438.060760
299.239755
177.568793
112.262964
78.820586
82.911849
99.452734
124.521852
142.843723
151.145458
149.892569
129.263997
111.510754
79.895854
57.184696
36.122799
23.985505
13.250709
8.751750
6.436706
5.561709
5.290508
5.041957
4.818439
5.091429
4.973412
5.010962
4.714727
5.159974
5.418658
4.619956
4.485846
4.720688
4.267693
4.403591
4.990697
4.495978
4.279613
4.576445
5.335808
4.599690
4.914999
5.010962
5.258918
6.089807
6.673932
7.134676
7.797480
8.642673
8.326769
8.543730
8.582473
9.529591
8.637905
7.984638
8.048415
8.138418
7.190704
6.961823
6.435513
6.795526
6.293654
6.544590
6.465912
6.492734
6.041527
6.053448
6.097555
6.432533
6.296635
5.678535
6.040931
##ZVALUE=265
0.669956
0.797510
0.794530
0.697970
0.895858
1.039505
0.857711
1.067519
1.234412
1.037717
1.113415
1.110435
1.353621
1.611710
3.430843
18.973947
76.821446
122.590661
250.767469
408.619642
575.945973
760.368705
940.317512
992.844701
928.362608
806.656480
604.737997
441.503525
246.892571
151.767731
86.694956
73.318481
84.014535
105.426908
132.768750
147.779584
149.927735
147.768855
127.352476
107.268691
78.554749
56.774616
34.467578
21.164417
10.908842
7.440448
5.390644
4.823804
4.769564
4.594922
4.517436
4.591942
4.480481
4.636645
4.106760
4.124641
3.669858
4.496574
4.499555
4.125834
4.005432
4.441738
4.470944
4.023910
4.018545
4.446507
4.494786
4.548430
5.127788
5.496740
6.360412
6.375909
6.759763
7.068515
7.727742
7.411838
6.971955
7.038713
6.528497
6.734729
5.878806
5.840659
5.892515
5.601645
5.270839
5.370975
5.182624
5.386472
5.480647
5.322695
5.515814
5.076528
5.021691
5.079508
5.017519
4.984736
##ZVALUE=270
0.870824
0.863671
0.680685
0.933409
0.703931
0.602603
0.736713
0.864863
0.868440
1.087785
0.883937
0.956655
0.921488
1.156926
1.249909
1.696944
1.844764
9.143949
26.407838
84.476471
169.075727
295.270681
523.445606
710.067749
921.492577
1004.138589
1005.553007
929.203033
745.901465
574.380755
409.426689
224.686861
133.453608
70.699453
64.031482
84.029436
104.344487
131.748915
147.223473
153.436661
148.834586
126.889944
108.869672
75.512528
54.849982
33.070445
21.367669
11.384487
7.623434
5.166531
4.670620
4.453659
4.442930
4.208684
3.891587
3.968477
3.783703
4.073977
3.651977
3.876686
3.728867
3.810525
4.095435
3.693700
3.770590
3.952980
3.851652
3.899932
4.243851
4.260540
5.257726
5.622506
5.982518
6.341934
5.918741
6.120801
5.824566
5.771518
5.995631
5.432963
4.894733
4.902482
5.186796
4.275441
4.716516
4.130602
4.240870
4.517436
4.640818
4.361868
4.332662
4.368424
4.440546
4.432797
4.292727
4.580617
##ZVALUE=275
0.573993
0.565648
0.541806
0.661612
0.628829
0.773668
0.828505
0.816584
0.810623
0.765920
0.820756
0.868440
0.985861
1.019835
1.038909
0.947714
1.055598
1.272559
1.605749
4.457831
15.311837
57.763457
126.205683
281.534791
439.309478
680.432916
840.413570
972.329974
1015.584469
1014.685631
881.950855
724.541545
483.644009
308.377743
150.076747
82.058907
51.157475
55.346489
81.460476
102.683902
130.084753
143.291950
150.793791
146.420002
128.509998
108.967423
78.662634
58.347583
34.797788
22.355914
12.383461
7.900000
4.723668
3.967881
4.061460
3.713965
3.764629
3.327727
3.407598
3.545880
3.759861
3.496408
3.434420
3.339648
3.651977
3.832579
3.208518
3.824830
4.167557
4.123449
4.498959
5.051494
5.423427
4.978776
5.279779
5.485415
5.614758
4.911423
4.956722
4.302859
4.494786
4.279613
4.040599
4.534721
4.183650
3.694892
3.988743
4.198551
3.922582
4.056692
4.035830
3.737807
4.016757
3.991723
3.810525
3.892779
##ZVALUE=280
0.716448
0.581741
0.817776
0.569820
0.562668
0.713468
0.525713
0.649691
0.698566
0.532866
0.566840
0.934601
0.876784
0.950694
0.975728
0.906587
0.973940
1.100898
1.298785
1.139641
1.568794
1.760721
9.944439
33.695698
105.724931
195.061564
368.154645
546.134710
793.795586
938.310027
1015.584469
1015.584469
962.867737
745.010972
559.036732
324.284434
193.158984
86.639524
49.688816
40.473938
52.149892
79.058409
100.108981
127.198696
142.906904
145.179629
141.904950
124.122500
106.575489
75.882673
55.848956
33.559799
21.652579
11.744499
6.916523
3.996491
3.681779
3.483891
3.384948
3.398657
3.068447
3.652573
3.518462
3.290772
3.258586
3.454685
3.641844
3.865957
3.765821
4.071593
3.952980
4.378557
4.514456
4.943609
4.914999
4.755855
4.995465
4.334450
4.670620
4.295707
4.315972
3.919601
3.703833
3.923774
3.742576
4.331470
3.629923
3.727674
3.889799
3.740788
3.211498
3.212690
3.301501
3.576875
3.581643
3.445745
##ZVALUE=285
0.472665
0.669956
0.492930
0.693798
0.658631
0.678897
0.631809
0.708699
0.491738
0.781417
0.744462
0.564456
0.884533
0.933409
0.907779
0.703931
0.808835
0.900626
0.959635
1.002550
1.003742
1.356602
1.228452
1.448989
4.268885
16.459823
57.971478
123.464465
275.972486
432.632565
672.322512
855.710506
1003.880501
1015.584469
1015.584469
854.057670
674.691796
423.305631
269.098878
129.143000
68.780780
33.159852
33.448935
52.511692
72.485805
100.783706
116.912723
136.794448
140.601993
138.094425
127.834678
101.932883
83.342791
56.170821
37.446618
21.259785
12.482405
7.048845
4.849434
3.814697
3.414750
3.709793
3.507733
3.676414
3.195405
3.645420
3.458858
3.625751
3.817677
3.943443
4.109740
4.241467
4.595518
4.700422
4.328489
4.547834
4.575849
4.204512
4.308820
4.223585
3.711581
3.774762
3.852844
3.562570
3.474951
3.563762
3.266931
3.583431
3.304482
3.702641
3.720522
3.495812
3.196597
3.235936
3.040433
3.372431
##ZVALUE=290
0.426769
0.430942
0.497699
0.337958
0.424981
0.300407
0.621676
0.568628
0.596642
0.576973
0.489950
0.462532
0.736713
0.798702
0.625849
0.779629
0.719428
0.773668
0.773668
0.988841
0.905991
0.847578
1.116991
1.280904
1.350641
1.308918
2.110600
6.645918
31.470656
79.572797
161.435604
345.203876
537.974834
818.485022
988.682508
1015.584469
1015.584469
963.624716
783.377886
526.067615
348.226428
172.525644
89.994669
36.252737
25.027990
32.545924
46.631694
70.334673
89.174509
116.159916
130.054951
138.445497
135.794878
121.731758
103.495717
74.874759
55.792928
35.490990
23.672581
12.397766
7.676482
4.642606
3.649592
3.429651
3.606677
3.340840
3.908873
3.351569
3.896952
3.993511
3.966689
4.264712
4.446507
4.377961
4.692674
4.368424
4.352927
4.002452
3.723502
3.742576
3.706813
3.613830
3.392696
3.365874
3.505945
3.054738
3.320575
3.324747
3.513694
3.243685
3.272891
2.961755
3.078580
3.013611
3.066659
3.101826
##ZVALUE=295
0.414848
0.390410
0.422597
0.359416
0.608563
0.542998
0.415444
0.510812
0.508428
0.436902
0.606775
0.575781
0.552535
0.526905
0.557899
0.717640
0.603795
0.709891
0.769496
0.861883
0.830889
0.912547
0.872612
0.943542
1.174808
1.171827
1.407862
1.534820
1.622438
3.279448
13.059974
55.317879
121.975541
281.973481
458.478928
740.399957
932.179689
1015.577912
1015.577912
1015.577912
914.563537
651.303530
453.714728
239.701867
130.648613
48.489571
24.502873
19.885898
26.944876
44.549704
62.663555
88.708997
106.411576
124.790668
132.376552
128.997564
118.025541
96.599460
77.463984
51.785707
36.798716
20.796657
12.854934
7.658601
4.983544
4.095435
3.668666
3.323555
3.599524
3.696680
4.027486
4.429817
4.334450
4.440546
4.217625
4.120469
4.262924
3.891587
3.873706
3.850460
3.603697
3.287792
3.517866
3.431439
3.378987
3.397465
3.382564
3.375411
3.327727
3.067851
3.026724
3.234744
2.951622
2.995729
2.901554
2.836585
##ZVALUE=300
0.412464
0.362992
0.488758
0.402927
0.339746
0.425577
0.552535
0.414848
0.439882
0.545979
0.374913
0.606775
0.578761
0.348687
0.480413
0.437498
0.565648
0.711679
0.524521
0.729561
0.747442
0.830889
0.904799
0.911951
0.856519
1.089573
0.826716
1.065731
1.298785
1.167655
1.309514
1.735687
6.961823
25.823712
90.706944
180.369020
383.451581
589.119792
877.536535
1015.584469
1015.584469
1015.584469
1009.764671
849.561691
563.255548
365.549922
183.442831
97.095966
35.809875
18.585920
17.419457
24.515986
40.304661
55.458546
80.321431
100.066662
117.603540
124.132633
123.323798
115.093589
96.010566
78.073740
53.384900
38.029552
21.915436
14.315844
8.001924
5.119443
4.129410
4.140735
4.093647
4.130602
4.150867
4.120469
4.486442
4.231930
4.452467
3.960729
3.783703
3.742576
3.635883
3.627539
3.253818
3.516674
3.241897
3.461838
3.156662
3.281832
2.945662
2.978444
2.828836
2.908707
2.933741
3.290772
2.887845
3.054738
##ZVALUE=305
0.418425
0.378489
0.341535
0.377893
0.329614
0.396967
0.525713
0.436902
0.357628
0.485778
0.561476
0.461936
0.473857
0.499487
0.385642
0.514984
0.518560
0.513792
0.610948
0.604987
0.503659
0.842810
0.595450
0.704527
0.826716
0.833869
0.887513
1.012683
1.053810
1.046658
1.247525
1.254678
1.380444
1.641512
2.626777
17.436743
52.904487
148.659945
274.175406
523.878932
750.168562
1005.905867
1015.584469
1015.584469
1015.584469
923.092961
710.631609
448.963642
274.372697
121.222734
59.757829
20.725727
12.717843
16.353726
23.298860
38.892627
55.464506
77.043772
93.752742
111.607909
118.621588
117.459893
109.092593
91.820955
72.259903
49.003959
35.082698
21.522641
13.391972
7.847548
5.533695
4.541874
4.115701
4.148483
4.018545
4.158616
3.810525
3.768802
3.475547
3.475547
3.454685
3.488660
3.240705
3.395677
3.274679
3.502965
3.022552
3.455877
3.234744
3.296733
2.967715
2.816916
2.952814
2.791882
2.708435
2.996922
##ZVALUE=310
0.323653
0.494719
0.375509
0.390410
0.313520
0.427961
0.373721
0.344515
0.388622
0.421405
0.428557
0.482798
0.493526
0.569820
0.471473
0.342727
0.489950
0.483990
0.536442
0.609756
0.625849
0.671744
0.643730
0.801682
0.868440
0.731945
0.741482
0.819564
0.823736
0.766516
0.978708
0.945926
1.055598
1.086593
1.384616
1.645684
1.832843
7.280707
25.405884
88.111758
178.314447
377.605557
586.481690
882.925987
1015.584469
1015.584469
1015.584469
1015.584469
882.182717
596.624613
396.922827
198.265910
102.928877
35.625696
15.322566
10.550618
13.265610
22.130609
32.329559
49.967766
65.426826
87.285638
100.622773
111.074448
111.374855
102.453828
90.037584
70.418715
53.085685
33.482909
22.697449
13.684630
8.969903
5.580783
4.914999
4.053712
3.886819
3.477931
3.359914
3.164411
3.161430
3.226995
3.174543
3.212690
3.213882
3.274679
3.488660
3.031492
2.982616
3.086925
2.977848
3.029704
2.948642
2.863407
2.914667
2.883673
##ZVALUE=315
0.303984
0.424981
0.392795
0.382662
0.473857
0.271797
0.324845
0.459552
0.426769
0.498891
0.262856
0.447631
0.458956
0.447631
0.401735
0.353456
0.433922
0.370741
0.433922
0.496507
0.573993
0.406504
0.587702
0.594854
0.629425
0.748634
0.550747
0.528693
0.561476
0.675917
0.797510
0.763535
0.771880
0.885725
0.951886
0.934601
1.259446
1.384616
1.491904
3.303885
13.239980
57.742000
128.883719
294.360518
478.977561
774.871707
961.818695
1015.584469
1015.584469
1015.584469
965.426564
694.735646
492.035747
261.569619
143.672824
52.580833
21.927953
9.407997
8.851886
12.997985
18.632412
30.851960
44.107437
63.653588
80.456734
97.001791
104.458928
105.419755
97.738504
81.464648
68.538785
48.133731
34.935474
20.615458
13.327599
7.737875
5.885959
4.323721
3.597736
3.268719
3.308654
3.145933
3.112555
3.039837
3.121495
3.113747
3.035665
3.327727
3.035665
3.165603
3.205538
3.172755
3.195405
2.936721
2.950430
2.772808
##ZVALUE=320
0.368953
0.339746
0.295639
0.185966
0.289679
0.192523
0.215769
0.336766
0.493526
0.279546
0.428557
0.471473
0.422597
0.397563
0.411868
0.422597
0.381470
0.530481
0.382662
0.554919
0.597835
0.539422
0.451803
0.337958
0.557899
0.561476
0.613928
0.597835
0.754595
0.574589
0.693798
0.700951
0.903606
0.748634
0.894666
0.915527
1.077652
1.111627
1.120567
1.320839
1.336932
1.930594
5.987883
32.034516
83.823800
219.112635
360.916853
610.844493
822.711587
1015.606523
1015.606523
1015.606523
1015.606523
836.094618
610.093474
334.651470
189.976692
81.157684
36.241412
11.656880
7.748604
8.659959
10.814667
17.581582
25.964975
42.209625
55.865645
74.743629
86.959004
98.959804
100.668669
93.195438
81.457496
63.334703
48.781633
30.641556
21.483898
12.312531
7.940531
4.884601
4.329681
3.548861
3.254414
3.071427
3.094673
3.023744
2.930760
2.948642
3.020763
2.993941
2.995729
2.948642
2.992749
2.908707
3.030896
2.702475
##ZVALUE=325
0.213981
0.351667
0.282526
0.411868
0.351667
0.274777
0.424981
0.345707
0.382662
0.378489
0.198483
0.277758
0.458956
0.331998
0.325441
0.259876
0.385642
0.220537
0.254512
0.284910
0.435710
0.428557
0.500679
0.474453
0.365973
0.466704
0.531673
0.425577
0.466704
0.556707
0.465512
0.719428
0.530481
0.634789
0.606775
0.773668
0.607967
0.876784
0.878572
0.989437
0.867844
1.127720
1.300573
1.623631
3.416538
22.196770
58.830976
153.256655
277.256966
526.240468
744.336843
1001.161933
1015.547514
1015.547514
1015.547514
902.840495
686.209798
415.225625
246.106982
105.208755
49.101710
14.588833
7.799864
6.762743
7.422566
10.792613
15.714765
25.877953
37.935972
56.947470
70.741773
84.375739
92.447996
92.905760
86.803436
72.380900
58.910847
42.134523
29.719472
17.329454
11.164546
6.661415
5.030632
3.915429
3.544688
3.387928
2.925992
2.994537
2.731681
3.082752
2.838969
2.795458
2.926588
2.808571
2.574921
2.763867
##ZVALUE=330
0.207424
0.392795
0.240803
0.115633
0.314713
0.257492
0.305772
0.204444
0.294447
0.393987
0.350475
0.492930
0.471473
0.448823
0.324845
0.372529
0.507832
0.414848
0.524521
0.281930
0.388622
0.512600
0.437498
0.557899
0.499487
0.422597
0.344515
0.431538
0.541806
0.474453
0.526905
0.576973
0.577569
0.608563
0.593662
0.704527
0.542998
0.800490
0.902414
0.837445
0.868440
1.117587
1.111627
1.147985
1.194477
1.626611
1.914501
9.139776
30.860901
105.521679
203.639865
406.640768
598.011613
868.062973
1014.944911
1015.592813
1015.592813
949.631929
765.375495
493.525863
321.303606
149.618983
74.462891
25.501847
10.516644
6.379485
6.111860
7.185936
9.467602
15.780926
23.847818
37.118793
49.336553
66.707730
78.342557
86.582899
86.687803
79.825521
69.566965
53.034425
40.159822
25.711656
18.003583
11.381507
7.695556
5.074739
4.164577
3.406405
3.262758
2.955794
2.719760
2.766848
2.670884
2.865791
2.744794
2.846718
##ZVALUE=335
0.302792
0.211596
0.460744
0.351667
0.267625
0.362992
0.151992
0.118613
0.315905
0.367761
0.230670
0.210404
0.356436
0.125766
0.195503
0.180602
0.353456
0.280738
0.456572
0.354648
0.374913
0.420809
0.384450
0.375509
0.421405
0.367761
0.485778
0.389814
0.471473
0.564456
0.583529
0.465512
0.561476
0.632405
0.540614
0.599623
0.763535
0.691414
0.618696
0.699759
0.827909
0.817776
0.628829
0.842810
0.960827
1.090765
1.244545
1.149774
1.456738
4.045963
16.041994
66.408515
140.833855
311.863422
501.180887
781.226754
964.920521
1015.580893
1015.580893
1003.088951
852.803588
592.054725
402.413607
209.272504
109.096766
36.223531
14.754534
6.817579
6.041527
6.139874
6.825924
9.656549
13.522506
23.582578
34.172535
48.657656
61.325431
73.355436
79.729557
81.509948
75.402856
62.899590
52.158833
38.677454
29.167533
18.129945
12.332797
6.977916
5.169511
3.739595
3.491640
3.029704
2.854466
2.848506
2.673864
2.542734
##ZVALUE=340
0.200868
0.237823
0.214577
0.289679
0.160933
0.297427
0.301600
0.411868
0.285506
0.294447
0.313520
0.295639
0.218749
0.240803
0.375509
0.251532
0.158548
0.089407
0.321865
0.106692
0.430942
0.264645
0.589490
0.424981
0.446439
0.568628
0.465512
0.342727
0.422597
0.501871
0.417829
0.486970
0.471473
0.518560
0.504851
0.472665
0.418425
0.616908
0.596642
0.560880
0.606775
0.562668
0.820756
0.638962
0.874996
0.862479
0.824928
1.172423
0.955462
1.148582
1.361966
1.881719
9.722710
32.192469
106.965899
214.267969
439.344049
632.453561
903.272033
1015.584469
1015.584469
1015.584469
995.694995
796.376467
491.027832
299.885869
133.461952
63.760877
17.760992
7.886887
6.157756
5.780458
6.032586
6.464720
9.316802
13.022423
21.483898
31.299591
45.847893
57.671666
70.810914
74.763894
75.397491
70.954561
61.851740
50.945878
37.596822
28.128624
17.190576
12.086630
7.510781
5.268455
3.637671
3.157854
2.788901
2.657771
##ZVALUE=345
0.270605
0.233650
0.152588
0.151992
0.245571
0.270605
0.248551
0.219941
0.138879
0.253916
0.270605
0.256896
0.283718
0.217557
0.388622
0.330806
0.279546
0.298619
0.336766
0.358820
0.400543
0.331998
0.346899
0.357628
0.365973
0.367761
0.212789
0.263453
0.227690
0.329614
0.463724
0.340939
0.417829
0.241995
0.371933
0.619888
0.485778
0.449419
0.532866
0.621676
0.581741
0.536442
0.627637
0.669956
0.742674
0.578761
0.736713
0.894666
0.706911
0.927448
0.997782
0.979900
1.328588
1.572967
4.004836
16.101003
69.306493
145.225525
313.984752
493.919849
762.438774
949.381590
1015.584469
1015.584469
939.060450
768.713951
514.454842
337.371826
157.494545
78.323483
25.819540
11.024475
6.644726
5.897880
5.325675
5.357862
5.799532
7.776618
12.430549
18.922687
30.608773
40.226579
52.759647
60.948730
68.291426
70.587993
66.031814
59.865713
47.688484
38.549900
26.610494
18.851757
11.477470
7.397532
4.806519
3.667474
##ZVALUE=350
0.234842
0.190735
0.356436
0.437498
0.333786
0.214577
0.277758
0.294447
0.390410
0.131726
0.096560
0.286698
0.234842
0.223517
0.193715
0.269413
0.378489
0.327826
0.321865
0.328422
0.374913
0.322461
0.257492
0.207424
0.278950
0.291467
0.436902
0.402927
0.407696
0.364780
0.388622
0.570416
0.449419
0.447631
0.387430
0.296831
0.467896
0.472665
0.374913
0.439882
0.412464
0.479817
0.403523
0.699759
0.654459
0.594854
0.691414
0.850558
0.878572
0.890493
0.884533
0.803471
1.036525
1.064539
1.159906
1.473427
2.204776
7.939935
37.645698
90.469718
224.133730
376.601815
625.304580
807.154775
992.625952
1015.584469
965.861678
821.664929
577.426553
390.498638
197.762847
109.109879
41.318536
16.561747
6.731749
5.525947
4.956722
4.745722
4.627705
5.134940
7.586479
10.677576
17.301440
23.822784
44.821501
46.136975
55.845976
61.566830
64.312816
61.478615
54.973960
46.700835
35.051703
26.345849
16.976595
12.019873
##ZVALUE=355
0.256896
0.298619
0.134706
0.251532
0.302792
0.332594
0.350475
0.200868
0.200868
0.380874
0.256896
0.222921
0.344515
0.270605
0.275970
0.188947
0.296831
0.266433
0.347495
0.322461
0.358820
0.249743
0.426769
0.345707
0.340939
0.293851
0.297427
0.285506
0.317693
0.450611
0.410676
0.370741
0.427961
0.321865
0.377893
0.466704
0.452995
0.382662
0.396967
0.414848
0.471473
0.458956
0.437498
0.506639
0.517964
0.449419
0.546575
0.681877
0.578761
0.717640
0.724792
0.863671
0.827909
1.045465
0.741482
1.095533
1.176000
1.289845
1.607537
3.505945
21.118522
58.791637
160.935521
289.303660
529.338717
726.055503
941.302776
1015.584469
1015.584469
943.274498
745.379925
570.544004
339.475870
195.688009
72.499514
27.638674
8.158684
5.570650
4.773736
4.647970
4.357696
4.189610
4.970431
6.171465
9.640455
14.085770
22.482872
29.906631
41.492581
48.290491
55.558681
58.099627
56.679845
51.708817
42.610765
34.567714
##ZVALUE=360
0.248551
0.369549
0.064969
0.308752
0.147820
0.315905
0.334978
0.373721
0.206828
0.282526
0.294447
0.355840
0.332594
0.202656
0.279546
0.217557
0.378489
0.307560
0.238419
0.329614
0.298619
0.321865
0.322461
0.332594
0.352859
0.257492
0.306964
0.315905
0.343919
0.471473
0.444651
0.364780
0.506639
0.391603
0.379682
0.371933
0.302792
0.449419
0.445843
0.469685
0.537634
0.529885
0.471473
0.401735
0.523925
0.662804
0.553727
0.523925
0.567436
0.575781
0.712872
0.725985
0.819564
0.688434
0.873804
0.942945
0.950694
0.948906
1.304746
1.113415
1.334548
2.380610
8.097887
37.175417
89.475513
226.093531
376.289487
619.304776
812.456012
982.789993
1015.584469
925.221443
775.384903
521.378517
345.641971
170.219541
89.893937
33.126473
12.623668
5.436540
4.730821
4.548430
4.264712
3.902912
3.945827
4.464984
5.206466
7.858872
10.904670
17.306805
25.010705
34.659505
42.051673
49.558878
51.773787
52.490830
##ZVALUE=365
0.103712
0.118613
0.121593
0.212789
0.115633
0.250936
0.348687
0.110865
0.239611
0.366569
0.358820
0.200868
0.293851
0.387430
0.310540
0.267625
0.228882
0.443459
0.326633
0.368953
0.320673
0.261664
0.268817
0.329614
0.300407
0.278950
0.285506
0.180602
0.302792
0.321865
0.243783
0.305772
0.329614
0.426769
0.449419
0.373721
0.361800
0.376701
0.323653
0.473857
0.382662
0.516772
0.548959
0.524521
0.506639
0.436902
0.555515
0.625849
0.533462
0.508428
0.505447
0.596642
0.652671
0.764728
0.777841
0.783801
0.787973
0.860691
1.037717
1.046658
1.017451
1.216531
1.431704
1.589656
3.584623
20.734668
56.214929
151.076913
281.060934
522.563457
716.795921
940.599442
1015.585661
976.316929
848.040581
619.938970
431.834459
223.703980
121.204853
43.785572
17.301440
6.134510
4.724860
4.241467
4.247427
3.742576
3.587604
3.392696
3.636479
4.466772
6.102920
9.864569
14.402866
21.962523
28.629899
37.133694
##ZVALUE=370
0.265837
0.224710
0.260472
0.268817
0.264645
0.184774
0.200868
0.181794
0.258684
0.145435
0.234842
0.228882
0.252724
0.303984
0.330806
0.335574
0.337958
0.129938
0.240803
0.320673
0.240803
0.459552
0.351667
0.332594
0.356436
0.324845
0.283718
0.379682
0.281930
0.265837
0.412464
0.347495
0.359416
0.502467
0.443459
0.307560
0.479817
0.485778
0.372529
0.524521
0.383854
0.405908
0.567436
0.455976
0.430942
0.320673
0.557899
0.457764
0.596642
0.479817
0.459552
0.703931
0.599623
0.783801
0.658631
0.658631
0.532866
0.678897
0.791550
0.878572
0.842810
0.975728
1.046658
1.144409
1.191497
1.493692
2.016425
11.189580
37.780404
122.481585
227.818489
429.232717
620.770454
871.409774
998.144746
1015.584469
936.183929
721.832514
521.447659
279.037952
149.438977
56.708455
25.609732
8.954406
5.180836
4.196763
3.854632
3.679991
3.330708
3.049970
3.096461
3.276467
3.612638
5.212426
8.130670
12.798905
##ZVALUE=375
0.197887
0.175834
0.194907
0.269413
0.288486
0.349879
0.145435
0.215769
0.202656
0.180602
0.270605
0.211596
0.196695
0.335574
0.246763
0.252724
0.301600
0.215769
0.257492
0.314713
0.173450
0.250936
0.108480
0.135899
0.301600
0.354648
0.182986
0.154972
0.454783
0.190735
0.298619
0.211596
0.504851
0.262856
0.303984
0.394583
0.361800
0.450611
0.439882
0.359416
0.336766
0.342727
0.339746
0.466704
0.470877
0.399947
0.392795
0.372529
0.398755
0.367761
0.498891
0.411868
0.553727
0.555515
0.552535
0.524521
0.557899
0.636578
0.627637
0.650883
0.707507
0.749826
0.775456
0.839829
0.893474
0.972748
1.047850
1.202822
1.610518
5.541444
20.449758
73.789954
158.510804
351.107717
538.305640
804.469585
961.100459
1015.584469
1008.296013
829.560757
631.835461
375.745893
231.442451
111.857653
54.096580
15.953779
6.612539
4.179478
3.833771
3.483891
3.156662
3.069639
3.004670
2.678633
2.721548
3.268719
##ZVALUE=380
0.237823
0.304580
0.341535
0.096560
0.193715
-0.006557
0.174642
0.219941
0.187755
0.214577
0.135899
0.184774
0.217557
0.208616
0.232458
0.197887
0.264645
0.391603
0.217557
0.261664
0.252724
0.047684
0.127554
0.394583
0.286698
0.196695
0.416636
0.247955
0.425577
0.234842
0.363588
0.310540
0.309944
0.123978
0.151992
0.403523
0.255704
0.225902
0.184774
0.267625
0.353456
0.270605
0.355840
0.402927
0.374913
0.316501
0.462532
0.495911
0.448823
0.474453
0.436902
0.499487
0.406504
0.335574
0.408888
0.386834
0.493526
0.430942
0.538826
0.484586
0.673532
0.706911
0.559688
0.650883
0.823736
0.766516
0.761747
1.010895
1.101494
1.273751
1.579523
2.718568
14.246702
46.366453
140.825510
254.541636
475.394726
671.343803
899.981856
1009.449959
1014.747620
934.739709
740.296841
557.512641
324.030519
186.363459
75.423717
33.706427
8.953810
4.642606
3.525615
3.280640
3.140569
2.842546
2.719760
2.650619
##ZVALUE=385
0.103712
0.005960
0.301600
0.137687
0.122786
0.222921
0.106692
0.260472
0.284910
0.157952
0.254512
0.237823
0.213981
0.266433
0.233650
0.086427
0.076890
0.177622
0.209808
0.201464
0.144839
0.087619
0.176430
0.191927
0.312924
0.170469
0.226498
0.357628
0.423789
0.325441
0.350475
0.113845
0.306964
0.357628
0.275970
0.289679
0.312924
0.223517
0.254512
0.196695
0.410676
0.135899
0.302792
0.191927
0.420809
0.364780
0.247955
0.256896
0.387430
0.307560
0.405908
0.459552
0.264645
0.354648
0.295639
0.488758
0.297427
0.371933
0.472665
0.401735
0.490546
0.477433
0.639558
0.620484
0.719428
0.606775
0.751615
0.771880
0.732541
1.132488
1.103878
1.122952
1.295805
1.617670
4.960895
30.494928
83.501935
210.399628
357.096791
603.937507
782.683492
943.434834
982.427597
904.809833
784.654021
573.703647
405.369997
220.101476
124.023557
50.578713
19.715428
5.631447
3.820658
2.842546
2.850890
2.905726
##ZVALUE=390
0.227690
0.305772
0.234842
0.337958
0.338554
0.189543
0.249743
0.305772
0.390410
0.272989
0.187755
0.134706
0.327826
0.222921
0.202656
0.327826
0.179410
0.231862
0.305772
0.149608
0.265837
0.290871
0.247955
0.371933
0.301600
0.404716
0.267625
0.182986
0.426769
0.298619
0.289679
0.345707
0.285506
0.465512
0.286698
0.328422
0.433922
0.321865
0.331998
0.347495
0.388622
0.310540
0.314713
0.262856
0.387430
0.483990
0.522733
0.422597
0.510812
0.336766
0.359416
0.444651
0.332594
0.356436
0.466704
0.442863
0.520945
0.452995
0.554919
0.641942
0.453591
0.571609
0.608563
0.492930
0.703931
0.665784
0.781417
0.822544
0.826716
0.955462
1.208782
1.290441
1.237988
1.147985
1.421571
1.498461
3.009439
16.831756
52.285790
166.792870
312.848687
572.484732
753.901601
944.477916
1015.656590
1015.656590
937.877893
729.167461
558.793545
337.134600
194.422603
78.751445
34.723878
8.898973
4.389882
3.260970
##ZVALUE=395
0.186563
0.111461
0.193715
0.211596
0.051856
0.251532
0.055432
0.116825
0.193715
0.126958
0.098944
0.318885
0.221729
0.323653
0.121593
0.278950
0.209808
0.077486
0.213981
0.175834
0.274777
0.146627
0.290871
0.274777
0.183582
0.258684
0.230670
0.375509
0.338554
0.263453
0.214577
0.212789
0.277758
0.226498
0.325441
0.290871
0.389814
0.420809
0.356436
0.254512
0.365973
0.350475
0.299811
0.348687
0.330806
0.362992
0.302792
0.398755
0.176430
0.301600
0.267625
0.204444
0.268817
0.439882
0.418425
0.421405
0.428557
0.477433
0.424981
0.394583
0.489950
0.624657
0.535846
0.595450
0.384450
0.734925
0.571609
0.572801
0.792742
0.871420
1.107454
0.915527
1.159906
1.126528
0.865459
1.120567
1.189709
1.282692
1.588464
9.004474
32.043457
110.587478
217.634439
429.203510
641.102791
935.009718
1015.587449
1015.587449
1015.587449
883.718729
681.941509
412.456989
254.743695
113.031864
54.175854
16.559958
##ZVALUE=400
0.205636
0.102520
0.033975
0.193715
0.139475
0.089407
-0.024438
0.106692
0.031590
0.251532
0.128746
0.023842
0.235438
0.215769
0.199676
0.223517
0.048876
-0.020862
0.205636
0.061989
0.209808
0.178814
0.188947
0.074506
0.160933
0.089407
0.110865
0.185966
0.244975
0.156760
0.204444
0.309944
0.333786
0.175834
0.056624
0.041723
0.161529
0.262856
0.327826
0.071526
0.232458
0.193715
0.088811
0.254512
0.272989
0.272989
0.174642
0.313520
0.321865
0.316501
0.368953
0.432730
0.232458
0.330806
0.392795
0.348687
0.310540
0.338554
0.381470
0.356436
0.323653
0.356436
0.391603
0.478625
0.397563
0.503659
0.528693
0.692606
0.638962
0.627637
0.818968
0.855923
0.966787
0.841618
0.877976
1.063943
0.989437
1.003742
0.885725
1.309514
1.480579
4.649758
18.375516
69.112778
152.942538
351.999998
565.237999
869.588852
1015.518904
1015.518904
1015.518904
966.367722
761.665702
487.940907
316.772461
159.808993
##END
