##TITLE=FQP00651
##FORMAT=SPECTACLE-ASCII V-1.2
##DATA TYPE=ULTRAVIOLET SPECTRUM
##SECOND TYPE=ULTRAVIOLET SPECTRUM
##DATE=02/28/18
##TIME=18:10:13
##SPECTROMETER/DATA SYSTEM=SPECTACLE
##XUNITS=NM EM
##YUNITS=ENERGY
##YFACTOR=1
##FIRSTX=220
##LASTX=410
##NPOINTS=96
##3DDATA=Equidistant
##ZUNITS=NM EX
##FIRSTZ=210
##LASTZ=400
##ZPOINTS=39
##XYDATA=(Y..Y)
##ZVALUE=210
2.829432
2.992749
3.022552
3.493428
2.321601
2.806783
2.323985
3.151894
3.264546
3.629923
3.648996
2.720952
3.483891
3.309846
3.569722
3.337860
4.182458
3.947616
3.841519
4.719496
5.050898
4.746914
4.630685
5.332828
6.015897
5.935431
6.954670
6.932616
7.336736
9.373426
6.923676
7.850528
9.069443
8.830428
8.799434
9.277463
10.063648
9.805560
7.760525
8.866787
9.426475
9.844899
9.553432
9.801984
9.970665
9.222627
10.474920
9.967685
10.511875
9.550452
10.374784
10.165572
9.674430
10.803938
10.151863
10.659695
10.074973
11.143684
10.595918
11.240840
11.355877
11.650920
12.091994
12.853742
12.765527
13.105869
14.003515
14.469624
17.505884
20.419955
23.417473
27.724504
33.031702
35.859942
40.977001
43.986440
49.336553
50.823689
50.620437
53.167939
51.862001
47.136545
43.324828
38.344860
30.524731
25.884509
20.503998
17.361641
14.673471
12.143850
11.911988
11.829734
11.856556
11.676550
12.062788
11.263490
##ZVALUE=215
11.846423
10.801554
9.560585
7.333755
7.191896
5.321503
4.952550
5.817413
5.715489
6.649494
6.676912
5.809665
5.434752
4.959702
4.095435
4.037619
3.932714
4.557967
4.832745
4.718900
5.507469
5.277991
6.650686
6.807446
6.007552
7.305741
7.870793
9.287596
9.446740
9.706616
10.455847
11.592507
10.501742
10.956526
11.799932
11.494756
11.402965
11.568666
10.265708
11.035800
11.433959
11.787415
12.654662
11.228919
11.559725
11.529922
11.631846
11.465549
11.056662
13.693571
11.042953
12.215972
12.128949
11.982918
12.063980
11.513829
13.225675
13.166666
12.889504
13.009906
11.745691
13.982654
11.543632
14.047623
12.958646
13.678670
14.026761
16.439557
18.841624
21.879673
25.672913
29.253960
32.821894
39.357543
39.729476
42.123795
44.909716
46.454668
46.312809
43.393970
44.309497
39.190650
34.863949
31.659603
28.621554
23.060441
18.926859
15.975833
12.923479
12.441874
12.546778
11.959672
11.607409
11.028647
10.758638
10.871887
##ZVALUE=220
35.484433
38.554668
41.124821
41.769743
37.984848
33.467412
23.813844
19.592643
12.551546
11.670589
12.007952
12.774467
12.849569
11.450648
10.885000
7.609725
6.632805
5.244613
5.248785
5.239844
5.944967
5.403757
6.014705
6.662607
8.177757
7.650852
7.540584
9.267926
10.527968
10.085702
11.565685
13.492703
12.463927
14.333725
13.160706
14.976859
14.451742
14.719963
15.817881
14.379621
13.361573
14.184713
14.276505
13.356805
12.536645
12.998581
12.040734
12.201667
12.097955
12.297630
12.410879
12.574792
13.056993
11.774898
12.007952
12.462735
12.044907
11.410713
12.094975
11.399984
11.561513
11.793971
13.508797
13.133883
13.008714
13.148785
14.030933
14.110804
16.547441
16.774535
21.404624
23.065805
27.119517
33.944845
36.261678
37.967563
42.390823
40.725470
40.591955
43.541789
40.382743
38.243532
34.611821
33.023953
30.629635
25.391579
19.875765
17.159581
15.797615
12.537837
13.053417
11.788607
11.609793
11.621714
11.987686
12.037754
##ZVALUE=225
55.779815
60.236454
81.762671
111.104846
123.283863
130.775571
123.024583
101.176500
77.890754
57.147741
36.695600
26.215911
27.972460
25.958419
28.950572
26.980639
20.920634
18.823743
14.715791
11.968613
8.674860
7.737875
6.932616
8.175969
9.094477
9.184480
10.662675
11.042953
12.436509
12.671947
15.570521
16.406775
16.808510
17.844439
18.083453
18.088818
17.695427
18.670559
17.742515
19.835830
17.589927
16.015768
17.403960
17.956495
17.432570
15.746951
16.568899
17.731786
15.209913
17.052889
15.663505
14.010668
14.998913
15.490651
13.710856
16.499758
16.253591
15.090704
14.808774
15.730858
15.662909
14.936924
15.058517
16.690493
15.000701
14.470816
16.651750
16.918778
18.673539
19.865632
23.162961
25.658607
28.602481
33.308864
38.852692
40.912628
41.190982
44.877529
39.720535
39.044619
34.927726
34.376979
34.233928
29.193759
26.193857
22.607446
21.124482
17.996430
16.240478
15.837550
15.472770
15.425682
14.342666
13.191700
14.208555
13.394952
##ZVALUE=230
42.444468
48.389435
79.324841
144.832730
202.375650
261.110663
296.454430
312.571526
294.907689
261.052847
181.399584
121.647716
75.386763
54.738522
49.385428
51.647425
51.817894
47.823787
47.770739
37.713647
31.561852
19.216537
15.139580
11.625886
9.831786
9.836555
9.181499
11.911988
11.288524
13.104677
13.982654
14.305711
16.071796
16.360879
17.411709
18.160939
17.609000
17.882586
16.259551
18.216968
16.394854
17.172694
16.148686
16.648769
14.655590
16.509891
16.138554
14.352798
13.223886
13.913512
14.546514
13.956428
13.846755
12.797713
13.660789
14.517903
14.103651
13.333559
14.099479
14.920831
13.862848
14.837980
14.855862
14.041662
13.705492
15.065670
16.552806
15.065670
16.876459
19.686818
21.169782
25.047660
27.018785
30.167699
31.077862
34.260750
34.011602
32.845736
31.129718
29.729605
30.496716
26.553869
26.232600
23.966432
21.381974
16.811490
16.661882
15.606880
14.669895
14.405847
14.332533
14.980435
11.771917
13.511777
13.372898
13.021827
##ZVALUE=235
13.225675
13.969541
27.541518
76.889992
131.217837
214.456916
282.023549
374.971628
412.321687
407.129526
356.924534
285.505652
187.845826
133.653879
94.770789
77.475905
74.517727
78.182817
82.787871
81.518888
77.137947
65.139532
52.638650
37.743449
26.625991
16.707778
13.051629
8.807778
9.345412
9.593964
10.705590
10.921955
11.469722
11.966825
12.270808
13.036728
12.720823
12.957454
12.340546
11.974573
13.230443
10.728836
10.919571
12.452602
12.949705
11.962652
10.278821
10.292530
11.398792
10.700822
11.012554
11.564493
11.556745
11.396408
10.384917
10.590553
9.510517
10.547638
10.343790
10.945797
10.591745
11.654496
9.989738
10.963678
11.532903
11.219978
10.399818
10.778904
12.964606
13.583899
13.594627
15.317798
16.426444
14.181733
16.686916
15.995502
15.693903
17.835498
16.847849
15.560985
16.061664
15.542507
13.462901
14.593601
13.694763
13.575554
14.071465
12.881756
13.161898
12.376904
12.767911
12.457967
11.732578
12.521744
13.989806
12.575984
##ZVALUE=240
1.498461
1.881719
6.846786
19.959807
56.780577
102.258921
203.976631
297.570825
449.560881
554.086566
650.095940
654.104948
616.551638
500.949621
395.581722
263.733864
195.197463
128.735900
106.163621
104.119778
112.735629
119.697452
117.081404
106.511712
86.490512
69.763660
52.865744
35.491586
22.387505
16.693473
11.491776
11.466742
10.894537
9.669662
11.426806
11.279583
11.734962
12.287498
11.034608
11.578798
10.719895
11.949539
12.791753
12.182593
11.967421
11.085868
10.824800
10.166764
10.672808
11.872649
10.873675
10.554790
11.807680
10.768771
11.026859
10.751486
11.156797
11.099577
9.701848
11.617541
10.544658
12.141466
10.999441
11.897683
12.667775
13.040900
14.330745
14.351606
15.208721
16.163588
18.830895
19.900799
20.606518
22.078753
24.379492
26.415586
24.453998
24.129748
23.784637
22.110939
22.479892
19.686818
20.957589
18.481612
18.215775
17.398596
19.203424
19.220710
17.730594
18.054843
17.507672
18.119812
18.079877
16.719699
16.199946
17.252564
##ZVALUE=245
1.990795
1.787543
1.759529
2.347827
6.980896
20.099878
63.591599
117.970705
237.807631
351.346731
542.531013
674.122572
783.806443
862.428546
847.824812
732.047558
595.694780
414.069891
292.506814
168.435574
117.327571
108.072758
119.102597
133.013725
141.247511
136.147738
118.506551
101.454854
75.881481
57.893991
42.984486
26.622415
19.746423
13.957620
12.830496
12.284517
11.293888
13.694763
12.703538
11.331439
12.747645
12.198687
12.035966
12.162924
12.849569
11.305809
11.768937
11.098981
11.175871
10.621548
10.127425
10.810494
10.368824
10.959506
10.729432
9.835958
10.218620
9.829998
9.537935
9.929538
9.843707
9.424686
11.323690
9.987950
11.256933
11.729598
12.965798
12.638569
13.768673
14.192462
14.765859
16.577840
16.723871
17.361641
18.428564
20.240545
20.126700
19.057989
19.480586
18.346906
17.687678
18.517971
19.803643
18.128753
15.947819
17.704964
16.783476
17.639995
16.973615
16.947985
16.137958
16.629696
15.986562
16.897917
16.575456
16.460419
##ZVALUE=250
1.691580
1.294613
1.576543
1.869798
1.525879
2.289414
2.829432
8.214712
33.610463
77.890754
182.763934
295.904875
423.527956
578.508973
675.720572
721.275806
708.236694
609.534979
511.618853
349.432826
237.280726
155.803561
104.082823
96.765757
110.013485
126.067996
143.447518
144.952536
138.654709
129.720569
104.808807
86.172819
62.919855
40.656924
27.372837
18.490553
14.818907
12.302995
12.050867
11.709929
11.569858
12.230873
12.586713
11.880994
11.078715
11.145473
11.662841
10.756850
10.659695
10.243654
10.059476
9.123683
8.543730
9.243488
8.972883
8.666515
8.931756
8.673668
8.440614
8.459687
8.719563
7.915497
7.858872
8.914471
9.515882
10.312796
8.878708
9.878874
10.658503
10.340810
12.621880
13.485551
14.266968
13.610721
14.948845
16.229749
16.029477
15.605688
15.783906
15.230775
15.776753
16.129613
16.636848
15.535951
14.991760
15.499592
15.558600
15.722513
14.972687
14.835000
15.039444
16.981959
16.464591
15.867949
15.404820
14.600754
##ZVALUE=255
1.432896
1.425743
1.362562
1.262426
1.315475
1.745820
1.644492
1.384616
1.849532
3.985763
20.204782
45.902729
92.499852
197.196603
300.323963
446.189642
545.500517
624.120831
647.554994
593.609810
512.197018
408.173800
260.079503
172.791481
104.524493
89.739561
92.348456
109.705925
131.706595
145.962834
153.239965
151.403546
140.138865
108.769536
89.723468
63.249469
45.908689
28.492808
21.065474
15.622973
13.555884
12.860894
12.881756
13.449788
12.325644
11.643767
11.949539
11.043549
10.713935
10.787845
9.552836
9.598732
9.322762
8.482933
8.782744
8.386970
8.360744
8.141994
7.770658
7.609725
8.180737
7.126927
7.713437
7.855892
7.587671
8.331537
8.188486
8.581877
8.655787
9.915829
10.108948
10.197759
11.415482
11.091828
11.653900
11.943579
13.867617
12.544990
14.222860
13.172626
13.393760
13.810992
12.967587
13.040900
13.520718
14.634728
14.514923
15.179515
14.030933
14.192462
13.684630
15.057921
14.152527
15.246868
15.001893
14.604926
##ZVALUE=260
1.323819
1.242757
1.225471
0.861883
1.070499
1.051426
1.174808
1.218915
1.370907
1.354814
1.376867
2.086759
6.102920
25.545955
57.824850
135.547519
220.006704
359.923840
474.987626
604.975820
668.298006
671.509504
597.946644
483.706594
324.565768
225.995779
135.805607
94.358921
78.958869
89.227557
108.971596
138.359666
152.984858
164.324641
160.024762
141.782761
120.470524
92.881918
71.203709
46.136975
33.542514
21.166801
17.451644
14.289618
14.154911
12.989640
12.820959
12.186766
12.235641
11.667609
10.779500
10.319948
10.393858
9.405613
8.467436
8.787513
8.135438
7.886887
7.702708
7.640719
6.507635
7.026792
7.522702
7.216930
7.631779
7.759929
7.575750
8.348823
8.628964
8.625984
8.217692
9.656549
9.774566
11.038780
10.715723
10.831952
11.642575
11.688471
11.837482
12.031794
12.972951
12.500882
12.572408
12.179613
12.892485
12.378693
13.370514
13.396740
13.257861
14.078617
12.313724
14.318824
13.618469
13.493896
13.805628
14.120936
##ZVALUE=265
0.850558
0.888705
1.035929
1.107454
0.922680
1.017451
1.220703
1.191497
1.327991
1.230836
1.177788
1.332760
1.510978
1.519918
3.866553
17.940998
42.694807
106.162429
181.826949
329.705477
462.901592
589.189529
699.676871
731.292963
663.811564
566.620827
418.715477
300.417542
175.900459
112.602711
82.945824
74.854493
92.509985
123.913884
143.925548
167.970657
168.930888
160.886645
147.335529
119.486451
92.051625
65.417886
47.642589
30.549765
21.537542
15.857816
13.851523
13.182759
12.328625
11.762977
10.835528
11.246800
11.122823
9.609461
9.161830
8.863807
8.410811
7.988811
7.929802
7.346869
7.459521
6.847978
7.343888
7.725954
7.527471
7.325411
7.646680
7.872581
8.465648
8.276701
8.416772
9.491444
9.638667
10.229945
10.184646
10.356903
9.991527
10.512471
11.343956
10.617971
10.915995
10.962486
11.624694
11.641979
11.888742
12.155771
12.238622
11.794567
12.234449
12.450814
12.433529
12.695789
12.575984
12.747645
12.833476
12.948513
##ZVALUE=270
0.905991
0.954866
0.836849
0.909567
0.813603
1.032948
1.003742
1.163483
0.945926
1.249909
1.195669
1.243949
1.288652
1.441836
1.426935
1.606941
1.874566
8.004904
23.870468
72.757602
144.445896
247.465968
423.339605
565.712452
706.324577
757.744908
734.285712
662.042499
516.788960
388.515592
268.852711
145.164728
94.664693
66.682696
70.442557
93.764663
119.169950
148.610473
163.445473
170.521736
168.270469
146.242976
122.739673
91.389418
67.020655
41.723847
30.888915
20.038486
16.058683
12.474656
11.757612
10.541677
10.625720
9.608865
9.157658
9.122491
8.559823
8.412600
8.103848
7.357597
7.816553
7.573962
7.592440
7.906556
7.376671
7.372499
7.679462
7.631779
7.823706
8.111596
8.087754
8.561611
9.486675
9.732842
9.445548
10.092854
9.696484
10.639429
10.973811
10.885000
10.761619
10.352731
10.978580
11.054873
11.219978
11.557937
11.137724
10.933876
11.335611
11.933446
11.691451
11.788607
10.996461
12.666583
12.069941
12.530684
##ZVALUE=275
0.780821
0.618696
1.061559
0.906587
1.047850
1.228452
0.798702
0.770688
1.067519
1.074672
0.978708
1.235604
0.878572
1.195669
1.046658
1.109838
1.205802
1.277924
1.516938
4.169941
13.878942
50.627589
108.989477
202.099681
373.013616
502.585769
660.731792
743.901730
779.354572
738.379955
620.955825
488.554835
309.878588
200.706720
101.715922
65.086484
53.704977
63.796639
93.377829
111.305714
142.186880
159.513950
166.377425
160.557628
139.970779
117.646456
88.189840
65.682530
41.729808
29.344559
17.686486
13.148785
9.687543
9.105802
8.530617
8.329749
7.719994
7.606745
7.633567
8.390546
7.957816
7.716417
7.629991
7.684827
7.535815
7.309914
7.842779
8.074641
7.860661
8.231997
8.484721
8.788705
8.922815
9.291768
9.329915
9.871721
10.524988
10.531545
10.224581
10.793805
10.406971
10.719895
10.608435
10.940433
10.865927
10.722876
10.632873
11.152625
11.127591
10.841489
11.203885
11.440516
11.031628
10.992885
11.008978
11.493564
##ZVALUE=280
0.611544
0.711679
0.800490
0.681877
0.764728
0.852942
0.767708
0.683665
0.761747
0.797510
0.873804
1.036525
1.053810
0.870824
1.143813
0.936985
1.161695
1.093745
1.291633
1.437664
1.572967
2.147555
7.647872
33.599734
79.196692
178.433657
286.084414
454.408526
586.779714
720.343590
779.626966
761.178732
689.805746
524.067879
391.368866
229.810476
136.168599
65.211654
43.805838
45.289993
61.124563
86.791515
109.945536
136.993527
150.073767
154.998899
150.419474
132.027864
113.030672
83.767772
63.427687
39.838552
26.731491
16.475916
11.414886
9.153485
8.071661
7.379651
7.310510
7.172823
7.251501
7.430911
7.812977
7.583499
7.637739
7.765889
7.783771
8.037686
7.724762
8.588433
8.977652
9.061694
9.071827
10.293722
9.422898
9.963512
10.224581
10.344982
10.180473
10.397434
10.289550
10.443926
10.476708
10.685921
10.523796
10.967851
10.964870
11.127591
10.198951
10.751486
11.005998
11.191964
10.663867
10.948777
11.034608
10.891557
##ZVALUE=285
0.701547
0.740886
0.787973
0.781417
0.609756
0.800490
0.613928
0.948906
0.620484
0.713468
0.748634
0.844598
0.991821
0.761747
0.735521
0.904799
0.946522
1.046658
1.089573
1.193881
1.194477
0.929832
1.363754
1.610518
4.424453
14.211535
47.832727
102.573633
216.311812
336.666703
509.527922
638.456941
742.262006
789.445639
743.018985
606.766939
474.842787
295.535922
186.120868
89.251995
48.979521
30.594468
36.678910
55.836439
77.222586
105.155706
125.125647
143.277645
149.812698
143.656731
134.101510
108.966827
87.634921
60.358644
43.046474
25.205612
16.773939
10.722876
8.741617
7.650852
7.373691
7.218719
7.538795
7.900596
7.540584
7.926822
8.245707
8.552670
8.794665
8.921623
8.817911
9.498000
9.299517
10.344982
10.468960
10.263920
10.611415
10.399818
10.636449
10.346770
10.760427
11.176467
10.803938
10.945797
10.873675
10.235906
10.622740
10.889769
10.459423
11.001825
10.795593
10.808706
10.577440
10.665655
10.163784
11.015534
##ZVALUE=290
0.788569
0.651479
0.619888
0.724792
0.614524
0.722408
0.738502
0.761747
0.576973
0.632405
0.778437
0.768900
0.799894
0.812411
0.758767
0.687838
0.834465
1.055598
0.829697
0.877976
0.953674
1.149774
1.171827
1.239777
1.481771
1.383424
1.883507
5.809665
27.384758
62.432885
122.758746
253.978968
391.269922
586.736798
701.221824
786.846876
771.559477
665.733814
545.379519
364.947915
239.792466
121.357441
66.116452
30.470490
24.531484
35.831928
48.715472
73.444843
93.640685
119.566917
136.713982
144.558549
142.485499
127.562881
110.880733
81.186891
60.908794
39.805770
27.161837
16.107559
11.659861
8.995533
8.214712
8.210540
8.022785
7.938743
8.074641
8.522868
9.290576
9.450912
9.749532
9.638667
9.862781
10.422468
10.348558
10.808706
10.578632
10.946989
11.029840
11.172891
11.129975
11.073947
11.073947
10.927916
10.753870
11.607409
11.283755
10.804534
10.489821
10.781884
11.321902
10.986924
10.550618
10.552406
10.692477
10.705590
##ZVALUE=295
0.534654
0.539422
0.623465
0.531673
0.568628
0.598431
0.739694
0.615716
0.697970
0.703931
0.776649
0.715852
0.685453
0.828505
0.807643
0.630617
0.798702
0.658631
0.790954
0.849962
0.816584
0.894666
0.939965
1.058578
0.967979
1.157522
1.313686
1.255870
1.464486
2.696514
13.125539
38.977861
86.964965
203.127861
329.504609
516.448021
646.077991
766.063929
789.308548
726.083517
618.719459
443.793535
304.914713
157.245994
89.383721
36.699772
21.029711
21.531582
29.960871
48.247576
65.627694
93.022585
112.108588
130.813718
138.636827
136.934519
124.865770
99.692941
82.582831
56.852698
41.905642
25.225878
17.713904
12.171865
9.883642
8.307695
8.577704
8.769631
8.879900
9.405613
9.439588
9.691715
10.357499
10.469556
10.928512
11.023879
11.211634
11.347532
10.675788
11.223555
11.636615
11.026859
11.224747
11.284947
11.213422
11.279583
11.247993
11.573434
11.271834
11.366606
11.113882
11.138916
10.797977
11.276603
11.173487
10.912418
##ZVALUE=300
0.669956
0.632405
0.546575
0.598431
0.773668
0.679493
0.518560
0.677705
0.633597
0.689626
0.749826
0.614524
0.626445
0.693798
0.746846
0.765920
0.638962
0.694990
0.795722
0.658631
0.744462
0.844598
0.821948
0.988841
0.833869
0.850558
1.176596
1.095533
1.157522
1.324415
1.450777
1.572967
5.356669
19.377470
67.875981
132.310987
269.204974
403.698683
593.144894
697.665811
778.891444
770.040751
667.064786
547.016859
362.075567
235.921741
119.466782
63.702464
25.534630
16.081929
18.443465
26.256442
43.197870
60.291886
84.430575
103.885531
124.574900
131.472945
129.572749
122.338533
101.425648
83.798766
57.476759
41.876435
26.991963
19.301772
12.859702
10.455847
9.453893
9.696484
9.456873
10.106564
10.051727
10.453463
10.794997
10.667443
11.039972
11.164546
11.413693
11.374950
11.686683
11.704564
11.693835
11.794567
11.446476
11.602640
11.830926
11.766553
11.485815
11.041760
10.998845
11.190772
10.734797
11.216998
10.358691
10.787845
##ZVALUE=305
0.586510
0.464916
0.521541
0.589490
0.601411
0.669956
0.624657
0.546575
0.533462
0.681877
0.402927
0.524521
0.489950
0.464916
0.593662
0.536442
0.676513
0.714660
0.826716
0.908971
0.637770
0.861883
0.645518
0.810623
0.828505
0.905991
0.920892
0.967979
0.958443
1.143813
1.238585
1.105666
1.193881
1.502633
2.407432
13.344884
37.904978
106.547475
192.285776
351.870656
489.452481
656.320453
742.482543
773.013830
718.870759
570.901632
442.484617
283.576846
178.187490
82.227588
41.336417
16.317964
12.762547
17.081499
24.444461
41.533709
57.819486
81.977844
100.431442
118.325949
125.695467
123.967528
114.532709
96.881986
79.127550
57.254434
41.663647
25.826693
18.615723
13.829470
11.358857
10.215640
10.375977
10.279417
10.270476
10.885000
11.132956
11.002421
10.956526
11.155605
11.463761
11.637807
11.625886
11.955500
11.454821
11.894703
12.131929
11.354685
11.486411
11.255741
11.125803
11.280775
10.556579
10.908842
10.698438
11.166930
##ZVALUE=310
0.619888
0.416636
0.421405
0.604987
0.529885
0.356436
0.692606
0.380874
0.653863
0.584722
0.615716
0.537634
0.433922
0.607967
0.478625
0.671744
0.583529
0.627637
0.623465
0.598431
0.616908
0.713468
0.621676
0.779629
0.793934
0.759959
0.702739
0.755787
0.935793
0.826716
0.849962
1.069903
1.026988
1.257658
1.196861
1.294613
1.421571
5.727410
19.428730
62.835813
128.051639
259.041786
396.402478
577.610731
687.283874
760.709643
749.915838
650.174022
535.436869
359.226465
237.908959
120.681524
65.192580
24.290681
13.131499
11.390448
14.861822
24.233460
34.962893
53.700805
70.387721
94.326735
106.935501
118.006468
118.479729
109.486580
96.303821
76.114535
59.662461
39.704442
28.629899
18.951893
15.144944
11.784434
11.171699
10.678768
10.333657
10.716915
10.635853
10.695457
11.090636
11.581779
11.322498
11.852980
11.885762
11.699796
11.719465
11.637807
11.368990
11.284947
11.262894
10.861754
10.674596
10.826588
10.937452
11.014938
##ZVALUE=315
0.520945
0.559688
0.416636
0.386834
0.551939
0.474453
0.461936
0.565648
0.522733
0.501871
0.542998
0.478625
0.639558
0.522733
0.439882
0.635982
0.673532
0.548959
0.509620
0.534654
0.645518
0.732541
0.782609
0.833869
0.813603
0.707507
0.751615
0.718832
0.751615
0.980496
1.015663
1.004934
0.755787
0.690818
1.128912
1.167655
1.063943
1.144409
1.352429
2.759695
9.667873
39.507747
87.789893
197.322965
316.684842
503.034592
621.052980
725.122690
753.613710
693.584681
595.048666
426.113605
297.760963
158.207417
85.992813
33.449531
15.906692
9.876490
10.481477
14.174581
20.784736
33.811927
47.075748
68.088770
85.252523
104.299784
111.719966
112.887621
106.412768
89.083910
74.116588
55.126548
41.725636
26.435852
19.584894
14.281869
12.250543
10.911822
10.982752
10.899901
11.081696
11.051893
11.141896
11.477470
11.397600
11.119843
11.195540
11.267662
11.180639
11.308789
10.912418
11.286736
11.073947
10.968447
10.660887
10.918975
##ZVALUE=320
0.490546
0.507832
0.442863
0.381470
0.585914
0.679493
0.394583
0.463724
0.331998
0.520945
0.568628
0.578761
0.512600
0.508428
0.430942
0.615716
0.573993
0.513792
0.701547
0.563860
0.554919
0.667572
0.409484
0.632405
0.580549
0.643730
0.536442
0.738502
0.692606
0.830889
0.645518
0.794530
0.777841
0.792742
0.615716
0.862479
1.051426
1.115799
1.045465
1.028776
1.321435
1.307726
5.412698
17.963648
63.027740
125.142932
253.087878
377.295613
556.107759
665.185452
743.287802
736.767650
635.254979
517.735481
343.831778
220.140815
103.199482
54.712892
21.762848
11.476874
8.437634
9.440780
12.590885
18.200874
29.935837
42.333603
62.220693
78.306794
96.532702
104.827881
105.960965
101.267695
87.506771
72.795749
53.774714
40.579438
27.244687
19.774437
14.612675
12.196898
11.450648
10.745525
11.024475
11.067986
10.800958
10.922551
11.247993
10.666847
10.921955
10.782480
10.782480
11.209846
10.945797
11.044741
10.599494
10.988712
##ZVALUE=325
0.420809
0.395775
0.513792
0.678897
0.459552
0.522733
0.585914
0.620484
0.500679
0.644922
0.446439
0.383854
0.301600
0.492930
0.546575
0.490546
0.436902
0.505447
0.567436
0.590682
0.581741
0.568628
0.494719
0.492930
0.513792
0.512600
0.650883
0.530481
0.750422
0.712872
0.729561
0.657439
0.725985
0.756979
0.745654
0.707507
0.678897
0.981688
0.768900
0.990629
0.973940
1.041889
0.950694
1.284480
2.522469
14.448762
37.260652
99.205971
178.289413
326.918960
454.509854
613.777637
690.704584
719.637871
667.946935
528.701544
402.255654
242.662430
147.184730
65.923929
33.476949
13.000965
8.823872
8.162856
9.219646
12.976527
18.151999
29.037595
41.365623
60.953498
74.447989
90.759993
98.406672
100.168586
94.396472
79.062581
66.857934
49.580932
37.380457
24.985671
18.774867
14.046431
12.496710
11.693835
10.981560
10.845661
10.817647
10.888577
10.615587
10.968447
10.663867
10.682940
10.566711
10.628700
10.716915
10.506511
##ZVALUE=330
0.576973
0.419617
0.471473
0.591874
0.457764
0.467896
0.415444
0.488758
0.466704
0.548959
0.463724
0.484586
0.547767
0.500679
0.484586
0.612736
0.567436
0.678897
0.531673
0.487566
0.636578
0.370741
0.550747
0.622869
0.826716
0.539422
0.709891
0.726581
0.635982
0.652671
0.795722
0.663996
0.662804
0.760555
0.842810
0.704527
0.785589
0.869632
0.855923
0.844598
0.871420
1.126528
0.960827
1.011491
1.183748
1.284480
1.677871
6.551743
20.555854
66.445470
125.879645
252.176523
368.518829
527.511835
632.194877
696.570873
675.462484
576.193929
460.268855
301.134586
193.586946
91.365576
48.361421
19.186735
10.075569
7.772446
7.716417
9.436607
11.939406
18.854737
26.487708
41.129589
55.092573
73.672533
85.493922
93.815923
94.426870
88.289976
78.653693
62.041879
47.865510
33.552647
25.911927
18.971562
14.709830
12.191534
11.663437
11.140704
10.850430
10.559559
10.771751
10.674596
10.241866
10.328889
10.379553
10.429621
##ZVALUE=335
0.254512
0.362992
0.403523
0.351667
0.543594
0.461936
0.404716
0.581741
0.428557
0.449419
0.409484
0.444651
0.409484
0.264645
0.378489
0.610948
0.371933
0.406504
0.361800
0.395775
0.433922
0.632405
0.543594
0.486970
0.413656
0.500679
0.651479
0.591874
0.724792
0.501871
0.557899
0.651479
0.561476
0.634789
0.543594
0.721812
0.610948
0.660419
0.809431
0.788569
0.736713
0.708699
0.709891
0.727773
0.753999
1.192689
1.099706
1.217723
1.159906
3.153682
10.756850
40.494800
85.272789
188.694000
299.513936
461.645722
565.445423
655.601025
668.419600
597.198009
504.328609
348.516703
238.685608
127.675533
69.690943
26.656985
12.818575
8.152723
7.615685
8.039474
8.930564
11.857748
16.776919
26.792884
37.357807
54.538846
67.069530
80.823898
87.796450
88.393688
82.855821
72.027445
60.842633
46.670437
36.780834
26.252866
19.830465
14.465451
12.553930
11.382699
10.406971
10.168552
9.918809
10.164976
10.096431
10.051727
##ZVALUE=340
0.344515
0.332594
0.375509
0.444651
0.358820
0.459552
0.444651
0.465512
0.559688
0.562668
0.446439
0.412464
0.492930
0.562668
0.443459
0.549555
0.407696
0.479817
0.449419
0.626445
0.371933
0.484586
0.410676
0.424981
0.515580
0.537634
0.391603
0.496507
0.567436
0.612736
0.594854
0.482798
0.581741
0.496507
0.529885
0.600815
0.605583
0.582933
0.766516
0.618696
0.582933
0.713468
0.636578
0.702739
0.771880
0.834465
0.884533
0.849962
0.928640
1.194477
0.979900
1.712441
5.593896
26.482940
61.832666
147.804618
242.304802
386.644602
494.735837
604.112744
639.248490
604.725480
527.496934
390.291810
275.055766
144.696832
81.909895
34.428835
16.073585
8.234978
7.730722
7.585883
7.688999
9.232759
11.643767
17.729998
24.757981
37.670732
49.788952
65.250993
75.094700
81.688762
83.020926
78.642964
70.355535
57.204962
46.950579
33.996701
26.281476
18.663406
14.670491
11.720657
10.534525
10.504723
9.767413
9.654760
##ZVALUE=345
0.421405
0.367761
0.412464
0.310540
0.348687
0.434518
0.400543
0.299811
0.316501
0.383854
0.424981
0.343919
0.485778
0.460744
0.323653
0.393987
0.501871
0.417829
0.324845
0.385642
0.394583
0.472665
0.479817
0.609756
0.480413
0.561476
0.629425
0.511408
0.595450
0.564456
0.516772
0.504851
0.480413
0.286698
0.470877
0.537634
0.632405
0.494719
0.659823
0.671744
0.859499
0.713468
0.552535
0.644922
0.756979
0.674725
0.693798
0.781417
0.807643
0.890493
0.936985
0.953674
0.945926
1.095533
2.380610
15.407801
41.616559
107.330680
179.571509
312.681794
418.084860
544.588566
601.141453
605.627894
551.651716
424.318910
313.617587
186.652541
106.377602
43.383837
20.719767
9.836555
7.970929
7.557869
7.478595
7.761717
8.725524
11.308789
15.296936
24.119616
33.480525
47.875643
57.825446
68.699718
74.763894
76.641440
74.131489
65.683722
56.785941
44.527650
35.208464
24.334788
18.984675
13.509989
11.572838
10.024905
##ZVALUE=350
0.416636
0.381470
0.401735
0.352859
0.380874
0.536442
0.197887
0.294447
0.350475
0.286698
0.408888
0.507832
0.431538
0.356436
0.506639
0.333786
0.646710
0.336766
0.312924
0.411868
0.416636
0.558496
0.346899
0.421405
0.277758
0.401735
0.562668
0.349879
0.437498
0.647902
0.435710
0.418425
0.485778
0.597835
0.496507
0.459552
0.433922
0.344515
0.536442
0.473857
0.417829
0.573993
0.474453
0.618696
0.671744
0.658631
0.738502
0.722408
0.707507
0.662804
0.730753
0.666976
0.782609
0.857711
0.804663
1.103878
1.511574
7.865429
24.703741
73.447824
133.795738
253.075957
357.430577
482.317805
562.705994
598.236918
562.336445
461.259484
351.778865
209.533572
128.931999
59.757829
28.833747
10.894537
7.646680
7.021427
7.025599
7.047653
7.564425
8.405447
10.353923
15.425682
21.237731
31.795502
40.466785
52.348971
61.413646
67.413449
70.950985
68.405867
63.054562
51.563978
42.403936
32.464862
24.804473
17.955899
##ZVALUE=355
0.385642
0.391603
0.399947
0.256896
0.341535
0.349879
0.374913
0.448823
0.532866
0.237823
0.413656
0.428557
0.527501
0.409484
0.476837
0.410676
0.348687
0.382662
0.352859
0.367761
0.432730
0.521541
0.429749
0.487566
0.567436
0.585914
0.572801
0.532866
0.538826
0.535846
0.457764
0.371933
0.435710
0.452995
0.522733
0.492930
0.488758
0.596642
0.542998
0.531673
0.625849
0.693798
0.695586
0.467896
0.678897
0.520945
0.467896
0.599623
0.588894
0.745654
0.656843
0.639558
0.675917
0.689626
0.907779
0.889897
0.939965
1.085997
1.292825
2.472997
15.561581
40.079951
101.549625
175.866485
308.226943
414.674878
535.231829
592.370629
591.169000
527.178645
402.957797
291.427970
157.703757
87.876916
37.318468
17.679930
8.165836
7.139444
6.600618
6.567836
6.937981
7.261634
7.719994
9.490848
13.000965
18.004775
26.600957
34.157634
45.889616
53.643584
62.154531
64.371824
62.252879
57.339668
48.962831
41.376948
##ZVALUE=360
0.395775
0.424981
0.274777
0.296831
0.417829
0.467896
0.482798
0.429749
0.460744
0.632405
0.436902
0.358820
0.372529
0.257492
0.217557
0.438690
0.241995
0.544786
0.374913
0.603795
0.383854
0.476837
0.483990
0.401735
0.216961
0.377893
0.430942
0.655651
0.400543
0.528693
0.455976
0.523925
0.672936
0.505447
0.477433
0.505447
0.553727
0.522733
0.515580
0.579953
0.561476
0.436902
0.578761
0.547767
0.659823
0.638962
0.700951
0.564456
0.535846
0.604987
0.753999
0.723600
0.729561
0.855923
0.626445
1.020432
0.925660
0.880957
1.019835
1.081824
1.232624
1.803637
5.334616
24.730563
59.884787
139.544606
224.030614
360.098481
471.921563
588.983893
628.638864
597.758889
519.552827
366.327763
245.738626
120.828748
62.325001
22.911429
10.586977
6.896853
6.727576
6.296635
6.631613
6.480813
6.467700
7.485747
8.445978
11.117458
14.976859
21.516681
28.949976
39.471984
46.869516
54.012537
57.103634
57.550669
##ZVALUE=365
0.390410
0.329614
0.507832
0.440478
0.550747
0.461936
0.188947
0.312924
0.320673
0.317693
0.438690
0.381470
0.328422
0.496507
0.447631
0.331998
0.361800
0.479817
0.331998
0.415444
0.296831
0.314713
0.442863
0.378489
0.417829
0.478625
0.583529
0.516772
0.491738
0.482798
0.256896
0.551939
0.396967
0.471473
0.465512
0.573993
0.536442
0.656843
0.743866
0.487566
0.443459
0.460744
0.531673
0.500679
0.589490
0.463724
0.602603
0.602603
0.510812
0.613928
0.600815
0.583529
0.710487
0.629425
0.708699
0.769496
0.616908
0.734925
0.913739
1.053810
0.965595
1.011491
1.160502
1.339912
2.324581
13.693571
37.554502
95.680952
170.260668
309.890509
419.548750
553.243756
629.652739
655.759573
601.351857
461.062789
330.560803
183.137655
97.633004
33.963919
14.217496
6.884933
6.204844
5.852580
6.061792
5.724430
5.751848
6.049871
6.306767
7.381439
9.026527
13.042688
17.734766
25.610924
33.034682
41.432977
##ZVALUE=370
0.321865
0.461936
0.401735
0.306964
0.657439
0.372529
0.417829
0.435710
0.444651
0.529885
0.346899
0.417829
0.369549
0.454783
0.430942
0.527501
0.473857
0.295639
0.483990
0.320673
0.448823
0.227690
0.456572
0.449419
0.409484
0.325441
0.563860
0.517964
0.348687
0.508428
0.525713
0.487566
0.490546
0.456572
0.480413
0.477433
0.468493
0.393987
0.537634
0.510812
0.477433
0.625849
0.481606
0.667572
0.513792
0.528693
0.552535
0.495911
0.540614
0.598431
0.484586
0.632405
0.746846
0.580549
0.568628
0.612736
0.687838
0.631809
0.658631
0.822544
0.781417
0.768900
0.903606
0.988841
1.021624
1.340508
1.616478
6.558895
23.444891
77.421665
140.909553
260.035992
376.557708
537.629724
634.988546
696.761608
676.182508
556.536913
416.672826
234.215856
127.677917
46.555996
20.699501
8.656979
6.115437
5.715489
5.689859
5.501509
5.597472
5.348921
5.528927
5.871654
6.536841
8.465648
10.908842
15.896559
##ZVALUE=375
0.397563
0.440478
0.360608
0.331998
0.289679
0.307560
0.361800
0.368953
0.352859
0.366569
0.376701
0.406504
0.396967
0.383854
0.316501
0.450611
0.385642
0.438690
0.404716
0.465512
0.405908
0.367761
0.476837
0.489950
0.343919
0.362992
0.447631
0.388622
0.473857
0.496507
0.433922
0.466704
0.466704
0.429749
0.515580
0.409484
0.535846
0.244975
0.474453
0.447631
0.348687
0.547767
0.605583
0.687838
0.454783
0.452995
0.533462
0.493526
0.593662
0.560880
0.371933
0.566840
0.574589
0.631809
0.538826
0.514984
0.554919
0.659823
0.637770
0.716448
0.598431
0.653863
0.735521
0.867844
0.901818
0.793934
1.071692
1.061559
1.307726
3.775954
12.246966
45.226812
99.884868
223.226547
343.689919
522.888899
644.485950
747.576952
757.887959
658.987761
521.990657
317.670703
197.620988
91.738701
42.096972
12.780428
7.037520
5.530715
5.264878
5.100965
5.151629
5.034804
5.183816
5.143881
5.392432
5.912781
##ZVALUE=380
0.343919
0.158548
0.330806
0.353456
0.373721
0.304580
0.421405
0.385642
0.373721
0.414848
0.411868
0.237823
0.384450
0.311732
0.341535
0.398755
0.390410
0.367761
0.395775
0.332594
0.415444
0.405908
0.546575
0.457764
0.327826
0.476837
0.373721
0.320673
0.430942
0.358820
0.373721
0.385642
0.472665
0.458956
0.455976
0.489950
0.483990
0.542998
0.390410
0.572801
0.417829
0.427961
0.263453
0.524521
0.506639
0.527501
0.399947
0.476837
0.493526
0.391603
0.436902
0.388622
0.433922
0.471473
0.426769
0.542998
0.661612
0.709891
0.722408
0.557899
0.684857
0.422597
0.580549
0.543594
0.665784
0.541806
0.717640
0.706911
0.965595
0.814795
1.038909
1.912713
6.763935
30.567646
70.839524
160.139799
249.364972
377.038717
472.249985
561.954975
578.675866
520.882010
439.914465
313.135982
208.994746
100.326538
49.482584
17.349720
8.383989
5.230904
4.855990
4.743934
4.516840
4.704595
4.668832
4.759431
##ZVALUE=385
0.360608
0.282526
0.344515
0.379682
0.372529
0.217557
0.228882
0.264645
0.278950
0.421405
0.319481
0.244975
0.308752
0.195503
0.456572
0.427961
0.428557
0.377893
0.364780
0.359416
0.414848
0.447631
0.407696
0.330806
0.487566
0.463724
0.412464
0.470877
0.343919
0.436902
0.312924
0.295639
0.489950
0.308752
0.427961
0.442863
0.504851
0.382662
0.566840
0.292659
0.455976
0.408888
0.368953
0.513792
0.378489
0.322461
0.461936
0.566840
0.581741
0.540614
0.522733
0.470877
0.446439
0.358820
0.493526
0.360608
0.542998
0.472665
0.480413
0.520945
0.494719
0.548959
0.611544
0.559688
0.661612
0.696778
0.679493
0.559688
0.742674
0.926852
0.928640
0.961423
1.099706
1.399517
4.159808
20.822883
49.093962
116.331577
197.486877
327.962637
423.606634
520.935655
556.964874
544.126630
494.675636
377.618670
277.190804
152.421594
84.714890
33.188462
13.546944
5.363822
4.365444
4.482865
4.194975
4.069805
##ZVALUE=390
0.350475
0.414848
0.437498
0.406504
0.392795
0.256896
0.292659
0.309944
0.351667
0.247955
0.418425
0.329614
0.460744
0.434518
0.372529
0.466704
0.349879
0.399947
0.418425
0.395775
0.206828
0.287890
0.457764
0.463724
0.328422
0.445843
0.401735
0.395775
0.502467
0.295639
0.425577
0.472665
0.489950
0.332594
0.383854
0.410676
0.459552
0.291467
0.525713
0.580549
0.468493
0.507832
0.431538
0.422597
0.310540
0.503659
0.377893
0.447631
0.327826
0.472665
0.742674
0.434518
0.501871
0.274777
0.550747
0.462532
0.375509
0.406504
0.635982
0.448823
0.420809
0.472665
0.489950
0.542998
0.658631
0.582933
0.602603
0.536442
0.709891
0.708699
0.823736
0.875592
1.002550
1.031756
0.811815
1.043677
2.619624
10.095835
38.822889
80.975890
171.320438
257.409811
370.377898
444.538593
518.926978
540.080667
513.156652
453.531742
341.800451
247.450471
133.861899
69.620609
22.920966
9.037852
4.572868
4.239678
##ZVALUE=395
0.372529
0.246763
0.228882
0.308752
0.381470
0.267625
0.352859
0.363588
0.331998
0.448823
0.457764
0.239611
0.304580
0.421405
0.341535
0.243783
0.501871
0.253916
0.444651
0.327826
0.299811
0.324845
0.405908
0.357628
0.461936
0.380874
0.383854
0.505447
0.407696
0.486970
0.462532
0.396967
0.317693
0.527501
0.416636
0.392795
0.336766
0.557899
0.470877
0.268817
0.324845
0.327826
0.291467
0.402927
0.426769
0.357628
0.638962
0.571609
0.405908
0.408888
0.477433
0.535846
0.460744
0.425577
0.368953
0.346899
0.574589
0.494719
0.504851
0.500679
0.553727
0.576973
0.665784
0.541806
0.614524
0.453591
0.509620
0.538826
0.672936
0.660419
0.714660
0.802875
0.757575
0.817776
0.794530
0.871420
0.762939
0.962615
1.196861
7.621646
24.947524
72.880983
128.713846
231.798887
316.388011
429.024696
490.293503
525.275469
510.895848
429.338813
343.272686
223.193765
147.400498
74.243546
38.082600
13.337731
##ZVALUE=400
0.426769
0.267625
0.293851
0.335574
0.463724
0.424981
0.497699
0.419617
0.319481
0.240803
0.457764
0.353456
0.472665
0.325441
0.507832
0.380874
0.391603
0.448823
0.316501
0.476837
0.498891
0.412464
0.429749
0.369549
0.551939
0.394583
0.478625
0.416636
0.500679
0.474453
0.396967
0.564456
0.421405
0.540614
0.598431
0.514984
0.555515
0.447631
0.431538
0.577569
0.568628
0.522733
0.489950
0.555515
0.480413
0.393987
0.252724
0.461936
0.458956
0.381470
0.433922
0.504851
0.489950
0.483990
0.485778
0.458956
0.458956
0.418425
0.634789
0.333786
0.594854
0.577569
0.658631
0.586510
0.658631
0.596642
0.557899
0.685453
0.726581
0.801682
0.622869
0.857711
0.747442
0.749826
0.900626
0.814795
0.904799
0.947714
1.027584
0.888705
1.134872
3.264546
19.127727
47.968626
115.281940
189.860463
322.653651
423.054695
534.735918
576.263666
561.137795
491.731763
361.094475
254.874825
140.072703
82.476735
##END
