##TITLE=0FILTER
##FORMAT=SPECTACLE-ASCII V-1.2
##DATA TYPE=ULTRAVIOLET SPECTRUM
##SECOND TYPE=ULTRAVIOLET SPECTRUM
##DATE=12/18/17
##TIME=12:08:57
##SPECTROMETER/DATA SYSTEM=SPECTACLE
##XUNITS=NM EM
##YUNITS=ENERGY
##YFACTOR=1
##FIRSTX=220
##LASTX=410
##NPOINTS=96
##3DDATA=Equidistant
##ZUNITS=NM EX
##FIRSTZ=210
##LASTZ=400
##ZPOINTS=39
##XYDATA=(Y..Y)
##ZVALUE=210
31.824708
30.741692
21.642447
14.184713
11.902452
11.175871
10.503531
9.616613
8.545518
8.063912
5.927682
5.610585
4.874468
4.596710
4.612803
5.243421
5.927682
5.771518
5.445480
6.218553
7.232428
8.274913
7.713437
8.114576
10.016561
10.119677
11.742711
12.293458
12.678504
14.107823
14.946461
15.753508
17.260909
19.926429
17.740726
20.169616
18.657446
19.932985
19.049644
18.311739
18.713474
19.001961
18.375516
20.548701
19.548535
19.783974
19.661784
20.168424
17.781854
18.771887
18.535852
18.602610
17.588735
19.470453
16.603470
18.267632
18.040538
18.449426
18.868446
17.533898
19.492507
19.811988
18.168688
19.197464
19.337535
18.782616
20.128489
22.028685
25.988817
28.197765
34.473538
39.611459
48.426986
53.879619
63.846707
73.263645
79.542994
86.569786
89.509487
89.421868
83.707571
73.164701
60.475469
49.394965
40.067434
29.547811
25.893450
21.823645
20.940900
22.657514
28.025508
39.705634
43.582916
62.411427
71.798563
88.853836
##ZVALUE=215
81.864595
81.923604
62.724948
42.139888
31.474829
22.712946
19.008517
15.016794
15.999675
15.838742
13.143420
11.855960
8.096695
6.513000
4.978776
4.249811
4.383922
4.370809
5.124807
5.352497
5.198717
5.856752
5.986691
6.894469
6.860495
9.185672
11.236668
11.088848
12.662411
12.881756
15.717745
16.825795
18.077493
16.881824
19.040704
19.282699
20.501614
20.159483
19.006729
20.923615
21.104813
19.477606
18.716455
18.905997
17.294884
19.033551
17.973781
18.519759
17.416477
17.124414
16.897917
15.519857
16.686916
16.398430
15.422702
15.716553
16.514659
15.392900
16.889572
17.482638
15.846491
19.076467
17.521977
16.426444
17.395616
18.193722
17.578602
19.911528
21.414757
23.558736
25.223494
30.078888
34.543872
39.232969
44.050813
52.917600
53.577423
55.420995
55.086613
55.913925
54.822564
45.023561
42.280555
35.873652
30.225515
27.201772
21.323562
18.561482
15.608668
14.500618
16.139746
13.891459
13.650656
15.953779
17.604828
26.064515
##ZVALUE=220
149.060488
157.781839
146.925449
120.606422
102.395415
72.104931
55.310726
35.491586
29.003620
26.154518
25.584698
24.624467
22.297502
20.121932
14.516711
11.252761
7.940531
6.469488
4.905462
4.689693
4.514456
5.497932
5.832911
6.716847
7.171631
8.635521
10.463595
13.272762
14.931560
18.320680
19.882917
20.990968
21.863580
25.392771
25.196671
27.517676
27.703643
27.783513
25.740862
26.814938
26.115775
24.531484
23.779869
23.742914
22.578835
22.393465
20.882487
20.599961
19.120574
17.813444
19.226670
17.784834
18.811822
17.864704
18.850565
19.779801
18.493533
18.660426
20.106435
18.904805
18.903613
18.771887
17.347932
17.867684
16.252995
17.265677
17.658472
17.667413
19.434690
21.956563
22.549629
28.043985
29.864907
35.964847
37.626624
40.567517
42.196512
45.138001
46.178699
47.478676
46.167970
41.523576
38.739443
34.367442
28.463602
25.412440
18.625855
17.491579
14.538765
12.391806
12.953877
12.090802
13.062954
13.194680
12.001991
12.266636
##ZVALUE=225
215.061903
219.633579
247.559547
249.923468
238.719583
208.228827
169.725418
119.262934
88.516474
62.393546
46.459436
39.619803
40.118694
39.294958
35.172701
35.465956
28.462410
21.973848
17.174482
11.564493
8.897781
7.246733
6.152987
7.587671
8.925796
11.647940
13.457537
15.416741
17.667413
20.161867
23.323894
26.855469
29.653907
32.272935
31.786561
33.670664
32.874942
33.178926
33.952594
32.942891
32.059550
32.508969
29.071569
29.215813
29.618740
28.388500
27.359724
24.473667
22.631884
23.997426
24.768710
22.350550
23.557544
22.145510
22.773743
21.275878
21.679997
21.743774
20.363927
22.110939
21.586418
21.242499
20.519495
20.826459
20.340681
22.210479
20.198822
20.793676
21.323562
23.758411
25.258660
28.750896
30.458570
33.625960
37.143826
40.633678
41.871667
41.490793
39.419532
39.649606
37.009716
32.516718
29.736757
24.290681
22.506714
18.398762
16.593933
16.219616
15.650988
15.223622
15.477538
13.400912
13.357997
13.046861
13.359785
13.169646
##ZVALUE=230
142.812729
157.669783
222.226977
320.757627
361.656547
400.717854
388.851762
346.132517
292.153955
204.468966
140.935779
101.213455
71.375966
61.895847
59.147477
61.527491
63.858628
59.111714
49.585700
42.172670
30.946732
20.750761
14.457703
11.498928
10.730624
11.723638
12.459755
17.272830
19.530654
23.029447
24.265647
27.972460
31.422973
32.812953
32.241940
33.493638
35.608411
35.265684
34.166574
36.133528
34.686923
35.604835
32.542944
29.411912
30.251741
27.917624
26.238561
24.612546
23.907423
25.352836
24.060607
22.250414
22.091866
22.717714
21.283627
21.757483
21.848679
22.089481
20.127892
20.348430
22.572875
21.897554
24.580956
21.449924
19.821525
21.430850
20.680428
21.256804
22.974610
23.402572
25.381446
27.830601
29.077530
31.626821
32.442808
30.358434
34.873486
32.074451
31.818748
30.789971
29.775500
26.318431
24.156570
21.456480
19.175410
17.630458
16.251802
16.380548
14.488697
14.763474
14.154911
13.588667
14.025569
14.488697
13.383627
14.113784
##ZVALUE=235
34.540892
39.944649
79.445839
167.553425
253.083706
371.994972
447.268486
524.875522
533.367991
503.644943
410.772562
330.790877
217.733979
154.716969
106.816888
86.240768
79.547763
85.825920
91.407895
89.140534
85.108876
67.547560
54.252744
40.486455
28.011799
18.915534
15.914440
15.251637
15.666485
18.921494
17.378926
20.795465
23.135543
24.162531
26.036501
25.684834
26.253462
27.357936
25.757551
26.646852
26.236773
24.940968
24.975538
22.509694
23.610592
21.798611
21.295547
21.412969
20.939708
22.568703
19.757748
20.227432
19.667745
19.627810
19.507408
19.912720
19.612908
19.421577
20.837784
20.361543
18.044710
19.242764
18.526912
19.628406
18.799901
20.787716
18.359423
19.479990
20.445585
20.976663
22.738576
23.652911
26.756525
25.300980
27.380586
27.969480
28.963685
28.945804
26.610494
25.667548
24.028420
25.278926
20.649433
19.487739
20.272732
17.818809
17.702579
16.563535
16.647577
16.823411
15.201569
16.734600
15.714765
15.537739
16.469955
14.636517
##ZVALUE=240
2.535582
3.401637
13.883710
35.084486
93.307495
164.034963
302.387476
427.284837
600.014925
689.567924
737.937689
721.948743
651.543736
499.551892
372.423530
238.822699
165.888667
116.195679
98.661780
105.278492
111.806989
120.019913
112.129450
101.297498
85.272789
67.525506
47.241449
36.453605
25.623441
18.786788
15.329719
14.694929
16.237497
15.630722
16.639829
17.373562
17.163754
18.389821
18.712878
18.483996
18.781424
19.324422
18.922687
19.299984
18.973947
19.513965
18.944740
20.055771
18.342733
19.684434
18.993616
19.053817
17.718673
17.862916
18.079877
17.306805
19.763708
17.880797
19.973516
20.158887
19.970536
20.608902
19.802451
20.153522
19.553900
19.814968
21.144748
21.138787
22.116899
23.404956
24.507642
26.692748
27.585626
29.132962
30.517578
32.310486
28.939843
29.735565
27.516484
28.645992
25.191903
26.756525
22.346973
22.581816
22.875667
20.741820
20.509958
20.087957
19.759536
19.044876
18.504858
19.994974
17.224550
17.728806
17.249584
16.527772
##ZVALUE=245
2.342463
2.224445
2.572536
2.637506
9.557605
27.632713
74.315667
144.242644
289.383531
431.488752
627.419949
903.316736
1015.819907
1015.819907
1015.819907
1015.819907
874.455571
653.887987
390.060544
250.156522
144.844651
110.128522
115.546584
128.486753
131.053925
125.891566
114.970803
92.817545
75.370669
54.610968
38.875937
24.764538
18.143654
14.803410
13.124943
13.717413
13.396740
15.588999
14.725924
14.811754
15.151501
16.171932
17.163754
17.257929
16.933680
16.753674
17.258525
17.403960
16.313791
17.449856
16.929507
18.712878
16.701818
16.784668
16.196966
16.758442
16.714931
15.902519
16.572475
17.510653
16.688704
16.773939
16.885996
17.377734
17.367601
16.478896
17.810464
17.727613
18.861890
21.181703
21.197796
21.909475
23.611784
26.091933
26.403666
26.508570
27.222633
26.943684
25.011897
23.905635
22.472739
21.496415
20.886660
20.408630
20.543933
18.936992
18.883944
16.693473
16.869903
16.788840
17.725825
16.396642
16.490817
16.055703
16.924739
15.068650
##ZVALUE=250
1.628995
1.434684
1.699924
1.700521
2.004504
2.285838
4.513860
17.534494
61.238408
120.446682
253.323913
389.533043
543.021560
736.719966
858.369470
955.160856
947.996974
837.899446
706.732869
494.222641
330.399871
212.549567
119.290948
99.184513
105.738640
118.261576
134.486556
141.080618
133.184791
120.469928
103.933811
78.470707
60.355663
38.294792
28.159618
19.800663
16.641617
15.200973
15.897751
15.720725
15.938878
16.107559
15.741587
16.706586
16.437769
15.978813
16.486645
16.107559
16.023517
15.797615
15.731454
15.774965
15.737414
15.373826
14.871955
14.604926
15.108585
16.054511
14.469624
14.086962
14.506578
14.188886
13.183951
14.625788
14.761686
14.777780
15.158653
15.103817
15.730858
16.315579
17.846823
19.348860
18.124580
20.440817
21.096468
20.159483
21.110773
20.143986
20.477772
18.612742
19.523501
17.904639
17.134547
15.728474
15.666485
15.429854
15.083551
14.239550
14.353991
15.031695
15.662909
13.799667
13.629794
14.882684
14.430881
13.960600
##ZVALUE=255
1.668930
1.771450
2.066493
2.086759
1.727939
2.076626
2.045631
2.325773
3.022552
9.525418
47.805905
103.738904
192.856789
365.187526
528.243780
739.255548
894.151926
1010.196805
1016.035676
954.870582
834.381580
661.588907
428.497791
276.659727
148.042440
107.670426
93.127489
105.845928
124.775767
140.533447
145.404935
143.478513
132.823586
107.444525
84.455609
59.839487
44.666529
30.395985
22.466779
20.126700
18.293858
17.053485
17.644763
17.515421
16.902685
17.502904
16.531944
15.571713
16.199946
16.196966
16.713738
16.544461
15.707612
15.576482
14.744997
15.235543
13.924837
14.707446
14.577508
15.917420
14.750957
14.106631
15.071630
14.838576
14.521480
14.908910
13.821721
15.883446
15.846491
16.785860
16.534925
17.308593
17.617941
19.272566
19.572973
18.634796
18.219948
18.144846
17.288923
16.977787
16.595721
16.189814
15.729666
14.192462
14.857650
14.329553
13.353825
14.128685
14.428496
13.292432
12.672544
13.200641
13.004541
12.857914
12.504458
13.075471
##ZVALUE=260
1.782775
1.469851
1.457930
1.624823
1.682639
1.821518
1.750588
1.592636
2.061725
2.130866
2.511740
3.819466
26.900768
67.585707
165.744424
290.759802
519.097447
699.701905
860.886574
1015.819907
1015.819907
1015.819907
997.672677
777.558684
571.977496
340.134501
223.904848
127.864480
94.055533
87.836981
104.934573
129.891634
146.607757
155.875683
152.375698
135.591626
117.487907
88.238716
66.232681
46.040416
36.995411
25.791526
21.478534
18.994808
18.383861
17.136931
18.272996
16.951561
18.046498
17.072558
16.794801
16.158819
16.954541
15.757680
16.241670
16.244650
15.443563
15.824437
16.149879
15.522838
15.779734
15.399456
15.225410
13.486743
15.547872
15.236735
14.644861
15.519857
15.922785
15.422702
16.313791
17.360449
16.734600
17.739534
17.776489
18.416643
18.070936
17.030835
17.146468
15.758872
15.139580
15.636683
13.947487
13.828874
13.640523
13.648868
12.509823
13.403893
11.699796
11.938810
12.646914
12.514591
12.598634
12.091994
11.248589
10.917783
##ZVALUE=265
1.403689
1.311898
1.564622
1.322627
1.332760
1.342893
1.486540
1.762509
1.595616
1.750588
1.954436
1.837611
2.403855
2.720952
9.799600
55.099726
120.493770
256.544948
414.632559
680.635571
895.961523
1015.819907
1015.819907
1015.819907
1015.819907
931.190848
691.424608
487.902761
279.117823
173.722506
108.184814
78.205466
85.377693
114.125609
136.519670
156.986713
158.887506
155.532956
142.437816
118.787885
96.205473
67.170858
51.550865
35.731792
26.712418
21.733642
20.327568
19.603968
19.058585
19.059777
18.405914
18.160939
18.504858
18.443465
17.601848
18.170476
17.475486
17.347932
16.588569
17.898679
17.095804
16.198754
16.515851
16.342998
16.196966
16.336441
17.099977
16.621947
17.187595
16.771555
17.201900
18.305779
18.665791
18.555522
17.489791
17.422438
17.260909
17.281771
16.621947
16.045570
15.275478
14.538765
13.972521
13.284683
13.551712
12.215972
12.280941
11.810660
12.603998
11.781454
11.231899
11.096597
10.877848
11.201501
11.311769
10.836720
##ZVALUE=270
1.417994
1.321435
1.331568
1.480579
1.544952
1.278520
1.313686
1.401901
1.440644
1.639724
1.698732
1.776814
1.578927
2.011657
2.034903
2.555847
3.749728
25.697947
73.992610
201.551914
355.746746
560.580492
855.250955
1015.819907
1015.819907
1015.819907
1015.819907
1015.819907
883.659720
659.960508
467.885733
244.960785
141.498446
76.698661
69.699883
94.486475
117.175579
143.694878
157.398582
165.447593
165.976882
143.717527
126.561522
94.128847
74.526668
50.275922
38.101673
28.035641
24.148822
21.669865
20.620823
19.771457
19.942522
19.553900
19.921660
20.062923
19.340515
19.458532
18.855929
19.183755
19.162893
18.952489
19.037724
18.446445
17.934442
18.652678
17.539859
17.719865
18.783808
17.865896
18.090606
18.178821
19.766688
18.494725
18.423796
17.977953
17.179847
17.772913
16.813874
15.745759
15.368462
14.563799
13.910532
13.667941
13.102889
13.174415
12.991428
12.149811
12.095571
11.962652
11.256933
10.589957
10.711551
10.997653
10.948777
10.384917
##ZVALUE=275
1.224875
1.206994
1.261830
1.306534
1.320839
1.210570
1.233816
1.278520
1.301765
1.487732
1.592636
1.623631
1.660585
1.801848
1.672506
1.873970
2.112985
2.415776
2.569556
10.490417
45.542717
121.022463
295.050740
491.501689
801.622868
999.017954
1015.818715
1015.818715
1015.818715
1015.818715
1015.818715
835.861564
595.040917
326.864719
195.452571
96.409917
68.257451
72.129965
90.883970
120.999813
141.455531
161.188841
166.667700
161.497593
146.926641
117.416978
96.458793
72.547793
54.962635
37.765503
29.609799
23.506880
22.167563
20.708442
20.583868
20.123720
20.340681
20.529628
20.718575
19.639730
20.186901
19.723773
19.796491
19.874573
19.450784
19.153953
19.347668
19.641519
18.843412
19.393563
18.553734
19.393563
18.560886
19.558668
19.045472
18.072724
17.666817
17.479658
16.267896
15.981793
15.701652
14.346838
13.638735
13.744831
13.479590
12.825727
12.499690
12.109876
11.427999
11.795759
11.222959
11.143684
11.247993
10.922551
10.805726
10.596514
##ZVALUE=280
1.065731
1.082420
1.080632
1.201630
1.076460
1.317859
1.225471
1.313686
1.190901
1.203418
1.309514
1.349449
1.481771
1.550913
1.544952
1.676679
1.768470
1.925826
1.930594
2.014637
2.631545
4.579425
27.343631
91.941953
240.184665
395.409465
653.139949
874.952674
1015.820503
1015.820503
1015.820503
1015.820503
1015.820503
956.791639
638.739467
425.601602
219.090581
122.612715
61.719418
53.103566
68.749785
86.014867
116.540790
137.126446
155.469775
159.396529
152.741671
140.088797
114.860535
92.203617
66.767931
52.544475
34.959912
27.613640
21.630526
19.752979
18.532872
18.715858
18.492937
18.576980
18.390417
17.725825
18.557906
18.246770
18.597841
18.184781
18.208623
18.055439
18.105507
18.222928
18.327832
17.844439
18.150806
17.423630
18.025637
17.632842
17.165542
16.449690
15.264750
15.129447
14.976859
13.501644
13.386607
13.096929
12.884736
12.828708
12.548566
11.450648
12.090802
11.426806
11.096597
10.620952
10.490417
10.371804
10.210872
9.858608
##ZVALUE=285
1.021624
0.983477
1.061559
1.116991
1.042485
1.151562
1.008511
1.201630
1.245737
1.236796
1.301765
1.224875
1.588464
1.522899
1.533628
1.509786
1.585484
1.400709
1.799464
1.877546
1.845956
1.958609
2.239943
2.868772
11.951923
49.944520
147.981644
272.865891
504.843593
729.797482
944.363475
1015.851498
1015.851498
1015.851498
1015.851498
1015.851498
841.180682
532.692671
336.153507
161.807537
87.951422
43.509603
41.400790
57.308674
77.880621
106.432438
125.625730
142.299533
150.378942
144.648552
135.577917
111.875534
91.439486
65.026879
49.632788
32.266974
24.649501
18.683672
16.995668
16.011596
16.161799
15.833974
15.869737
16.123652
15.550852
16.280413
15.925765
15.792847
15.992522
15.846491
16.264915
16.844869
16.361475
16.333461
16.097426
15.925765
15.818477
15.075803
14.745593
14.585853
13.431907
13.534427
12.571812
12.418628
11.876822
12.054443
11.756420
11.461973
11.361837
11.363626
10.429621
10.510683
10.642409
9.977818
10.827780
9.751916
##ZVALUE=290
1.106858
1.327991
1.309514
1.010895
1.201630
1.071692
1.298785
1.233816
1.287460
1.424551
1.331568
1.462698
1.323819
1.403689
1.347661
1.713634
1.654625
1.511574
1.491904
1.739860
1.792908
1.879930
2.290606
2.396703
2.632737
3.158450
5.013943
19.521713
104.172826
222.590566
404.749513
752.897859
1015.997529
1015.997529
1015.997529
1015.997529
1015.997529
1015.997529
1011.564732
690.133572
456.862450
229.842663
121.698976
48.171878
30.853748
36.840439
50.478578
74.471831
94.015598
119.810700
132.725835
144.162774
142.114758
129.135847
111.320615
84.575415
65.302849
44.826865
32.729506
22.076964
18.571615
15.452504
14.641881
14.211535
14.070868
14.667511
13.914704
14.383793
14.514923
14.558434
15.109777
14.711618
15.379786
14.895797
14.435649
14.665723
14.012456
13.567805
13.531446
12.907982
12.896657
12.727976
12.541413
12.151599
11.996627
11.823773
10.967851
11.370778
11.022687
10.861754
10.902882
11.405945
10.706782
10.810494
10.421872
10.501742
##ZVALUE=295
1.003742
1.079440
1.063943
0.944734
1.072884
1.205802
1.271963
1.156926
1.108646
1.197457
1.233816
1.156926
1.027584
1.222491
1.313686
1.366735
1.105666
1.367927
1.442432
1.741648
1.823902
1.864433
1.751781
1.792908
1.891851
2.382994
2.301931
2.796650
3.166795
8.740425
36.849976
139.167905
278.002620
604.515672
928.860903
1015.819907
1015.819907
1015.819907
1015.819907
1015.819907
1015.819907
921.382904
626.991987
323.850513
181.033611
69.784522
33.377409
24.139881
31.396747
48.319697
65.242648
91.623664
108.843446
128.019452
135.795474
133.260489
121.586919
102.402568
83.464980
60.612559
44.004917
28.948784
20.752549
15.659928
13.365746
11.941791
11.762977
11.733770
11.617541
12.290478
12.662411
12.908578
13.367534
13.036728
12.714863
12.642741
12.457967
11.962652
12.048483
11.799932
11.384487
11.331439
10.748506
10.856986
11.134744
10.824800
10.136962
10.100603
10.613799
10.651946
10.567904
10.319948
10.465980
10.081530
10.115504
10.402799
##ZVALUE=300
1.047850
1.088977
0.997782
0.897646
1.059771
0.856519
0.960827
0.762939
0.911951
1.020432
0.999570
0.913739
1.114607
1.093745
1.059771
1.257658
1.269579
1.219511
1.255870
1.423955
1.394749
1.534820
1.329780
1.523495
1.767874
1.852512
1.864433
2.051592
2.153516
2.606511
2.765656
3.733635
18.119812
67.422986
204.210877
366.065502
696.063638
1000.886559
1015.820503
1015.820503
1015.820503
1015.820503
1015.820503
1015.820503
879.501700
549.894571
260.717869
137.867928
49.809813
23.345947
20.640492
28.251410
43.704510
59.059858
83.744526
101.896524
121.797919
127.976537
128.036737
118.363500
100.337863
82.647800
58.787465
45.240521
28.463602
20.214915
14.051795
12.150407
10.777712
10.605454
10.746717
11.028647
11.521578
11.790991
11.451840
11.446476
11.032820
10.792613
10.417700
10.533929
10.060668
10.312796
10.270476
9.993911
10.533929
10.177493
10.141730
9.945631
9.687543
9.775758
10.018945
10.009408
10.264516
10.515451
10.016561
10.104775
##ZVALUE=305
0.845790
0.956655
1.044869
1.004934
1.083612
1.018643
1.031756
0.840425
0.814795
1.022816
1.005530
1.040697
1.043677
0.995994
0.999570
1.126528
1.208782
1.153946
1.153946
1.117587
1.206994
1.120567
1.347661
1.391768
1.623631
1.676679
1.694560
1.936555
1.791716
2.107620
2.044439
2.343655
2.728701
3.201962
6.958842
50.893426
133.227706
326.907635
538.170934
900.261998
1015.819907
1015.819907
1015.819907
1015.819907
1015.819907
1015.819907
1015.819907
722.489953
456.229448
215.491652
103.544593
32.609701
17.446876
19.091964
26.590824
42.051673
57.424903
79.570413
95.414519
113.339424
120.155811
120.155811
111.549497
94.653964
78.842640
55.112839
40.484667
25.514960
18.703938
13.274550
11.338592
10.196567
9.970665
10.048747
9.976625
9.784698
9.672642
9.071827
9.292960
9.397864
9.118915
9.160638
9.430647
9.022951
9.125471
9.496808
9.551644
9.195805
9.263754
9.233952
8.880496
9.205937
8.995533
9.107590
8.390546
8.830428
##ZVALUE=310
0.902414
0.803471
0.765920
0.897646
0.917912
0.803471
0.943542
0.864863
0.722408
0.793934
1.006722
1.014471
0.977516
1.012683
0.989437
0.970960
1.045465
1.069903
1.021624
1.106858
1.214743
1.226664
1.130700
1.312494
1.258850
1.411438
1.379848
1.413822
1.482964
1.548529
1.659989
1.767874
1.880527
1.997948
2.127886
2.583861
3.127456
15.389919
55.747628
176.661611
330.537558
638.276935
924.729705
1015.820503
1015.820503
1015.820503
1015.820503
1015.820503
1015.820503
804.849863
550.723672
287.199616
157.119632
57.418942
23.240447
13.500452
16.444921
23.778677
34.075975
53.102970
68.476796
89.203715
102.923512
112.591982
113.222003
105.534792
92.631578
74.272752
56.355596
38.378835
27.515888
18.216968
13.695955
10.421872
9.590983
8.955598
8.327961
8.090734
8.319616
8.258820
8.694530
8.273721
8.369684
8.305907
8.543730
8.399487
8.547902
8.449554
8.879900
8.358955
8.902550
8.267760
8.467436
8.587837
8.482933
8.145571
##ZVALUE=315
0.875592
0.998974
0.872612
0.831485
0.802875
0.718832
0.744462
0.820756
0.867844
0.828505
0.916719
0.841618
0.832677
1.083612
0.995994
0.873804
0.998974
0.961423
0.893474
1.020432
1.018643
1.103878
0.946522
1.121759
1.188517
1.150966
1.196861
1.319647
1.165867
1.293421
1.412630
1.421571
1.561642
1.724958
1.767874
1.851916
2.103448
2.451539
2.579689
6.042719
26.062727
110.032558
229.295492
480.485559
745.639801
1015.819907
1015.819907
1015.819907
1015.819907
1015.819907
1015.819907
925.076604
661.682487
363.782644
203.122497
78.295469
32.511950
13.327599
12.107491
15.581846
21.211505
33.097863
45.600533
65.747499
80.310702
98.042488
105.287433
106.723905
101.310611
84.886551
71.000457
52.117705
38.271546
24.665594
17.787814
11.911988
9.442568
8.516908
8.020997
7.783771
7.599592
7.749796
7.804632
7.704496
7.898808
8.135438
7.787943
7.916689
8.067489
8.149743
8.189678
8.317828
8.037686
8.164644
8.197427
8.082986
##ZVALUE=320
0.724792
0.703931
0.871420
0.904799
0.801682
0.764728
0.835657
0.724792
0.980496
0.802875
0.798702
0.999570
0.743866
1.022816
0.809431
1.032948
0.912547
0.943542
0.989437
1.094937
0.911951
0.851750
1.079440
0.903606
1.029968
1.039505
1.222491
1.297593
1.321435
1.257658
1.385808
1.248717
1.261830
1.335740
1.498461
1.517534
1.654625
1.814961
1.948476
1.963973
2.290606
3.106594
10.755658
62.916875
153.493881
369.689465
583.846569
924.018621
1015.819907
1015.819907
1015.819907
1015.819907
1015.819907
1015.819907
801.796913
453.656912
262.790918
113.449693
51.792860
16.067624
10.388494
10.488629
12.784600
18.894672
26.689768
41.900873
55.522919
76.130629
88.887811
98.182559
101.394653
95.213652
84.932446
65.248609
50.958991
34.696460
24.895668
15.723705
11.630654
8.848906
8.081794
7.561445
7.082820
7.555485
7.515550
7.543564
7.262826
7.445812
7.775426
7.540584
7.347465
7.505417
7.547736
7.471442
7.663965
7.642508
##ZVALUE=325
0.794530
0.977516
0.790954
0.709891
0.882745
0.885725
0.782609
0.877976
0.890493
0.819564
0.783801
0.845790
0.912547
0.832677
0.846982
0.974536
0.916719
0.849962
0.983477
1.146793
0.935793
1.050830
1.103878
1.063943
1.112819
0.989437
1.049638
1.047850
1.070499
1.152754
1.301765
1.193881
1.422763
1.428723
1.456738
1.608729
1.619458
1.668930
1.695752
1.811981
1.875758
1.899600
2.233982
2.525449
5.741715
40.573478
107.758641
268.045664
456.367731
806.131959
1015.864015
1015.864015
1015.864015
1015.864015
1015.864015
1015.864015
888.233781
550.809503
339.156985
150.488615
71.635842
22.101998
10.780692
8.629560
9.015799
12.112856
16.842484
27.068853
38.104653
56.707859
71.354508
85.343719
93.881488
94.341636
89.792609
74.874759
62.405467
45.542717
33.867955
20.744801
14.732480
10.116696
8.612871
7.708669
7.274747
7.189512
7.105470
7.016659
6.926656
7.117987
7.366538
7.042885
7.294416
7.255673
7.277727
7.684827
##ZVALUE=330
0.802875
0.675917
0.837445
0.769496
0.875592
0.731945
0.697970
0.772476
0.841618
0.927448
0.875592
0.743866
0.736713
0.882745
0.702739
0.835657
0.814795
0.820756
0.856519
1.001954
0.929832
0.754595
0.906587
1.024604
0.883937
0.919700
0.954866
0.943542
1.031756
0.950694
1.146793
1.083612
0.985861
1.236796
1.159906
1.226664
1.327991
1.276731
1.457930
1.495481
1.544952
1.641512
1.626611
1.991987
2.173781
2.292991
3.160834
17.439723
58.261752
180.604458
331.475735
627.124906
900.429487
1015.819907
1015.819907
1015.819907
1015.819907
1015.819907
1005.442739
682.420731
438.855886
203.278661
103.842616
36.298633
14.573932
8.162856
7.808805
8.620620
10.910630
16.885996
24.507642
38.628578
50.588846
68.718791
79.514980
87.495446
88.055730
81.447959
72.456002
55.878758
43.783784
29.741526
21.658540
14.366508
11.103749
8.435845
7.562637
7.029772
6.928444
6.917715
6.918907
7.087588
6.929636
7.002950
6.894469
6.940961
##ZVALUE=335
0.696778
0.723600
0.739694
0.591874
0.722408
0.768900
0.715852
0.923872
0.794530
0.835657
0.753999
0.873804
0.733733
0.722408
0.759959
0.704527
0.799894
0.893474
0.967979
0.818968
0.796914
0.764728
0.816584
0.906587
0.921488
0.853539
0.832677
0.848770
1.013875
0.955462
1.197457
1.007915
0.974536
1.092553
1.080632
1.276731
1.341701
1.374483
1.342893
1.326799
1.417994
1.547933
1.498461
1.639724
1.788735
1.777411
1.968741
2.090931
2.478957
7.272959
29.512644
114.339590
234.643817
491.763353
757.189989
1015.820503
1015.820503
1015.820503
1015.820503
1015.820503
1015.820503
808.141828
550.355911
289.445519
153.351426
51.475763
20.502806
8.748770
7.407665
7.603765
8.464456
10.994673
15.676618
24.769902
34.909844
50.208569
61.556697
74.569583
80.748796
82.600713
77.156425
64.759851
54.606795
41.530728
31.508803
21.556616
15.503764
10.434985
8.845925
7.382631
6.915927
6.551743
6.373525
6.393790
6.591678
6.831884
##ZVALUE=340
0.683665
0.711679
0.731945
0.687838
0.683665
0.644922
0.656843
0.834465
0.788569
0.773668
0.705719
0.608563
0.700951
0.722408
0.756979
0.838637
0.799894
0.943542
0.813603
0.856519
0.735521
0.923872
0.788569
0.718832
0.843406
0.992417
0.931621
0.868440
1.081824
0.832677
0.963807
1.114607
1.045465
0.960827
1.065731
1.178980
1.035929
1.074672
1.177788
1.222491
1.294613
1.379848
1.413822
1.444817
1.583695
1.506805
1.889467
1.859665
1.854897
2.156496
2.356768
3.675818
13.698936
74.970722
177.813768
411.756635
658.089519
996.899009
1015.819907
1015.819907
1015.819907
1015.819907
1015.819907
936.901569
663.716793
346.051455
192.238688
77.557564
30.357838
9.845495
7.576942
7.488728
7.506609
8.697510
9.912848
15.900731
22.313595
33.921599
45.082569
60.087442
69.325566
77.273846
76.777935
71.614981
64.878464
52.347779
41.663647
29.632449
21.817684
14.865994
11.102557
8.417964
6.889701
6.744862
6.298423
6.572604
##ZVALUE=345
0.826716
0.691414
0.813603
0.627637
0.763535
0.701547
0.631809
0.704527
0.696778
0.776649
0.748634
0.920892
0.756979
0.879765
0.750422
0.748634
0.842810
0.746846
0.700951
0.761747
0.750422
0.836849
0.994802
0.992417
0.807643
0.906587
0.907779
1.038909
0.968575
0.930429
0.947714
0.923872
1.046658
0.914931
0.904799
0.896454
0.940561
0.941753
0.950694
1.170635
1.131892
1.093745
1.044869
1.236796
1.439452
1.351833
1.342893
1.505613
1.599789
1.824498
1.944900
1.957417
2.093911
2.624989
6.235838
42.822957
117.246509
293.827653
498.826504
863.298774
1015.809774
1015.809774
1015.809774
1015.809774
1015.809774
1015.809774
828.396678
491.896868
277.910829
107.802749
47.618747
14.862418
8.640885
7.648468
7.303953
7.084608
7.505417
9.765625
13.237000
21.351576
29.622912
43.650866
52.861571
63.250661
68.584681
70.848465
68.340898
60.632825
51.829815
39.931536
30.605793
20.433664
15.188456
10.253787
8.263588
6.906986
##ZVALUE=350
0.735521
0.721812
0.767708
0.821948
0.725985
0.721812
0.681877
0.711679
0.787973
0.831485
0.732541
0.789762
0.762939
0.694990
0.777841
0.762939
0.793934
0.730753
0.780821
0.705719
0.620484
0.833869
0.822544
0.899434
0.746846
0.724792
0.817776
0.903606
1.009703
0.863671
0.926852
0.932813
0.881553
0.870824
0.929832
0.933409
1.011491
0.921488
0.970960
0.996590
1.154542
0.998974
1.135468
1.001954
1.225471
1.068711
1.358986
1.363754
1.375675
1.562834
1.351833
1.791716
1.739860
1.889467
1.855493
2.335906
3.403425
20.205975
66.770911
205.107927
374.074578
695.793629
974.574685
1015.819907
1015.819907
1015.819907
1015.819907
1015.819907
971.745849
579.530001
354.305506
159.230828
72.305799
20.067692
9.293556
7.123947
6.690621
6.205440
6.123781
6.910563
8.377433
12.796521
18.026829
27.451515
35.589933
47.633648
55.945516
62.982440
65.169930
63.257813
57.328939
48.026443
39.342642
29.061437
22.281408
15.621781
##ZVALUE=355
0.781417
0.647902
0.857711
0.754595
0.603795
0.627637
0.611544
0.698566
0.636578
0.729561
0.710487
0.833869
0.741482
0.905991
0.794530
0.814795
0.766516
0.856519
0.656843
0.718832
0.869632
0.810623
0.837445
0.810623
0.961423
0.978708
0.805855
0.898838
0.680685
0.886917
0.973940
0.891685
0.975728
0.823736
0.959635
0.927448
1.002550
0.994802
1.181960
1.085997
0.884533
1.165867
1.098514
1.006722
1.176000
1.098514
1.243949
1.344681
1.261830
1.322627
1.562834
1.615882
1.605749
1.561642
1.719594
1.998544
2.050996
2.197623
2.507567
9.419918
34.966469
136.677623
274.159908
551.078916
827.820897
1015.821695
1015.821695
1015.821695
1015.821695
1015.821695
1015.821695
697.565675
448.820591
199.699998
95.189810
28.052926
11.161566
6.923676
6.445646
6.124973
5.923510
6.030798
6.702542
8.376837
11.341572
16.873479
23.635626
34.095645
41.676760
52.682757
58.913827
64.176917
64.879656
60.678720
56.473613
48.515797
##ZVALUE=360
0.776649
0.701547
0.773668
0.748634
0.838637
0.750422
0.825524
0.762939
0.805855
0.789762
0.884533
0.861883
0.841618
0.657439
0.957847
0.935793
0.888705
0.889897
0.894666
0.917912
0.881553
0.802875
0.887513
0.793934
0.932813
0.840425
0.842810
0.812411
1.047850
0.848770
0.913739
1.109838
0.886917
0.985861
0.905991
0.907779
1.104474
1.214743
1.268983
1.069903
1.100898
1.201630
1.072884
1.141429
1.083612
1.237988
1.213551
1.223683
1.208782
1.273751
1.363754
1.566410
1.480579
1.491904
1.734495
1.854897
2.012849
1.988411
2.086759
2.302527
2.686977
4.662871
17.398596
79.874396
185.072422
430.035591
681.981444
1009.629965
1015.819907
1015.819907
1015.819907
1015.819907
1015.819907
854.471922
571.496487
277.037621
144.212842
51.407814
19.073486
7.829666
6.667972
6.113648
6.033778
5.866885
6.024837
6.905794
8.440614
11.518598
16.367435
24.768710
34.001470
48.136711
58.668852
72.434545
78.429580
83.610415
##ZVALUE=365
0.938773
0.901818
0.937581
0.888705
1.090765
0.962615
1.066923
1.061559
1.097918
1.129508
0.997782
0.991821
1.253486
0.947714
1.015663
1.050830
0.988841
1.043677
1.056790
1.184940
1.144409
1.089573
1.168847
1.143813
1.101494
1.255870
1.042485
1.037717
1.086593
1.062751
1.113415
1.319647
1.233816
1.403689
1.231432
1.245737
1.247525
1.218915
1.191497
1.109838
1.312494
1.285672
1.259446
1.323819
1.491904
1.376867
1.399517
1.536608
1.441836
1.441836
1.440644
1.503825
1.682639
1.638532
1.842976
1.966953
1.861453
2.024770
2.149940
2.366900
2.528429
2.683997
3.002882
3.626943
9.367466
64.277649
161.477923
375.366807
609.308481
966.883898
1016.034484
1016.034484
1016.034484
1016.034484
1016.034484
976.129770
702.768564
385.562778
211.126804
76.847672
29.959679
9.406805
7.017851
6.553531
6.607771
6.770492
7.210970
8.394718
9.836555
13.445616
18.109679
26.453733
34.385920
48.177838
60.060620
73.660612
##ZVALUE=370
0.758767
0.723600
0.819564
0.856519
0.741482
0.824928
0.752807
0.658631
0.950694
0.705719
0.693798
0.854731
0.863671
0.834465
0.776649
0.762939
0.769496
0.920892
0.830889
0.825524
0.788569
0.836849
0.868440
0.909567
0.717640
0.930429
0.922680
0.931621
1.044869
0.856519
0.883937
1.019835
1.047850
0.912547
1.125932
0.879765
0.939965
1.002550
1.017451
0.986457
1.053810
0.988841
1.017451
1.102686
1.305938
1.087785
1.156926
1.196861
1.201630
1.413822
1.289845
1.258850
1.295805
1.357794
1.343489
1.536608
1.512766
1.550913
1.683831
1.654625
1.698732
1.945496
2.013445
2.097487
2.372861
2.824664
4.186630
24.577975
83.283782
248.367786
450.389981
803.350806
1015.819907
1015.819907
1015.819907
1015.819907
1015.819907
1015.819907
879.708529
504.566431
289.915800
113.875866
48.555732
13.797879
7.381439
6.951690
6.876588
7.597804
8.701682
11.180639
13.940930
18.315911
23.151636
30.284524
37.112832
48.480630
##ZVALUE=375
0.719428
0.574589
0.873804
0.710487
0.775456
0.743866
0.777841
0.750422
0.749826
0.717640
0.680685
0.670552
0.802875
0.646710
0.759959
0.732541
0.645518
0.849962
0.815988
0.817776
0.839829
0.739694
0.729561
0.700951
0.597835
0.834465
0.779629
0.869632
0.735521
0.705719
0.746846
0.876784
0.925660
0.858903
0.947714
0.923872
0.888705
0.907779
1.039505
1.113415
0.953674
0.934601
0.985861
1.115799
0.969768
0.947714
1.096725
1.078844
1.086593
1.172423
1.190901
1.059771
1.198649
1.142621
1.146793
1.325607
1.173615
1.324415
1.379848
1.454949
1.539588
1.505613
1.643896
1.687407
1.819730
2.164841
2.326965
2.658963
3.113747
10.182858
36.877990
135.888457
282.696486
600.527525
906.688571
1015.819907
1015.819907
1015.819907
1015.819907
1015.819907
1005.167961
652.890801
420.977473
215.526819
108.847618
32.189488
11.313558
6.887913
6.901622
7.318854
8.461475
10.166764
11.498928
14.040470
16.551614
19.660592
##ZVALUE=380
0.712872
0.837445
0.679493
0.781417
0.715852
0.552535
0.794530
0.662804
0.733733
0.738502
0.826716
0.777841
0.722408
0.790954
0.689626
0.668764
0.685453
0.726581
0.726581
0.551939
0.761747
0.644922
0.796914
0.761747
0.848770
0.706911
0.913739
0.749826
0.852942
0.849962
0.841618
1.069903
0.976920
0.954866
0.965595
0.950694
0.966787
1.091957
0.988841
0.925660
0.849962
0.976920
1.022816
0.953674
1.037717
1.079440
1.067519
1.054406
0.867844
1.041889
0.957847
1.035929
1.046658
1.015663
1.119971
1.024604
1.147985
1.047850
1.177788
1.236796
1.278520
1.306534
1.349449
1.441836
1.296997
1.411438
1.768470
1.874566
2.086759
2.456903
2.797842
5.153418
18.915534
94.129443
218.335986
497.445464
781.821012
1015.819907
1015.819907
1015.819907
1015.819907
1015.819907
1015.819907
780.594945
524.579883
258.202553
133.090615
44.099689
16.448498
6.361604
5.265474
4.814863
4.732609
4.529953
4.374981
4.471540
##ZVALUE=385
0.618696
0.554919
0.652671
0.596642
0.621676
0.675917
0.718832
0.707507
0.658631
0.831485
0.637770
0.624657
0.477433
0.625849
0.712872
0.631809
0.588894
0.681877
0.611544
0.671744
0.639558
0.619888
0.810623
0.570416
0.735521
0.650883
0.935793
0.797510
0.962615
1.016855
0.911951
1.031756
1.100898
1.076460
1.141429
1.042485
1.236796
1.084805
1.122952
1.078844
1.187921
1.074672
1.171827
1.232624
1.160502
0.935793
1.033545
1.127720
0.929832
1.200438
0.997782
1.021624
1.094937
1.062751
0.882745
1.189709
0.999570
1.068711
0.880957
1.179576
1.113415
1.346469
1.241565
1.201630
1.352429
1.386404
1.670718
1.653433
1.763701
2.066493
2.147555
2.262592
2.688766
3.106594
8.865595
52.178502
138.821602
350.287557
612.604618
1006.575823
1015.814543
1015.814543
1015.814543
1015.814543
1015.814543
972.954035
692.065954
379.036665
216.564536
88.405609
34.472942
8.656979
5.318522
4.606843
4.486442
4.430413
##ZVALUE=390
0.621676
0.677705
0.654459
0.629425
0.753999
0.466704
0.586510
0.499487
0.765920
0.720620
0.681877
0.876784
0.843406
0.737906
0.733733
0.751615
0.622869
0.674725
0.743866
0.710487
0.811815
0.642538
0.711679
0.633597
0.614524
0.787973
0.706911
0.912547
0.942945
1.077652
1.033545
1.252890
1.315475
1.109838
1.301765
1.219511
1.251698
1.309514
1.298785
1.272559
1.315475
1.125932
1.182556
1.155734
1.063943
1.190901
1.248717
1.152754
1.034737
1.090765
1.163483
1.079440
1.099706
1.086593
0.940561
1.034737
1.119971
1.096725
1.153946
1.014471
1.034737
1.225471
1.128912
1.243949
1.278520
1.373887
1.423955
1.582503
1.660585
1.795888
1.921654
2.118945
2.085567
2.334714
2.086759
2.535582
4.451871
25.966763
82.229972
248.164535
459.889770
842.126608
1015.811563
1015.811563
1015.811563
1015.811563
1015.811563
1015.811563
871.105790
523.499846
303.064585
124.380589
57.507753
16.953945
6.458759
4.866719
##ZVALUE=395
0.649691
0.703931
0.602603
0.650883
0.621676
0.619888
0.663996
0.719428
0.739694
0.633597
0.674725
0.562668
0.591874
0.599623
0.591874
0.661612
0.516772
0.654459
0.452995
0.865459
0.710487
0.777841
0.688434
0.781417
0.909567
0.782609
0.963807
0.876784
0.865459
1.048446
1.107454
1.169443
1.125932
1.208782
1.224875
1.377463
1.269579
1.374483
1.436472
1.481771
1.375675
1.286864
1.332760
1.227856
1.228452
1.233816
1.227856
1.144409
1.112819
1.254678
1.103878
1.019835
1.157522
1.257658
1.103878
1.122952
1.162887
1.081824
1.134872
1.192689
1.071692
1.218915
1.265407
1.139641
1.367927
1.239777
1.461506
1.472831
1.731515
1.775622
1.996756
2.013445
2.058744
1.975894
2.077818
2.086759
2.131462
2.304912
2.914667
15.903711
57.953596
195.548534
360.367894
663.338900
956.217647
1015.818715
1015.818715
1015.818715
1015.818715
1015.818715
1005.419493
639.715791
390.095711
168.501735
78.746676
24.484992
##ZVALUE=400
0.558496
0.802875
0.554919
0.615716
0.532866
0.441670
0.521541
0.376701
0.589490
0.517964
0.651479
0.766516
0.631809
0.702739
0.447631
0.488758
0.519753
0.502467
0.394583
0.559688
0.444651
0.481606
0.442863
0.516772
0.618696
0.512600
0.661612
0.843406
0.892878
0.945926
0.950694
1.002550
1.116991
1.179576
1.086593
1.171827
1.106858
1.095533
1.042485
0.941753
1.216531
1.043677
1.103878
1.161695
0.946522
1.126528
1.100898
1.109838
0.999570
1.067519
0.951886
1.085997
1.091957
0.954866
0.969768
0.927448
0.999570
1.045465
0.988841
0.923872
1.057982
1.012683
1.105666
1.048446
0.964999
1.090765
1.217723
1.253486
1.430511
1.528859
1.770854
1.744628
1.590848
1.585484
1.624823
1.639724
1.516938
1.728535
1.860857
2.205968
2.563000
7.884502
29.436946
110.298991
237.108469
513.930917
802.525878
1015.702486
1015.702486
1015.702486
1015.702486
1015.702486
1015.702486
750.375986
492.890477
248.584747
##END
