##TITLE=FQP00651
##FORMAT=SPECTACLE-ASCII V-1.2
##DATA TYPE=ULTRAVIOLET SPECTRUM
##SECOND TYPE=ULTRAVIOLET SPECTRUM
##DATE=02/12/18
##TIME=15:34:02
##SPECTROMETER/DATA SYSTEM=SPECTACLE
##XUNITS=NM EM
##YUNITS=ENERGY
##YFACTOR=1
##FIRSTX=220
##LASTX=410
##NPOINTS=96
##3DDATA=Equidistant
##ZUNITS=NM EX
##FIRSTZ=210
##LASTZ=400
##ZPOINTS=39
##XYDATA=(Y..Y)
##ZVALUE=210
2.568960
2.886653
2.346635
2.799630
2.899766
3.259778
2.919436
2.855659
2.725720
2.130866
2.468824
2.520680
2.296567
2.434850
2.426505
3.136992
2.398491
2.632737
2.639890
3.028512
2.540946
3.787875
2.884865
3.423691
3.648996
3.905892
3.792644
4.196763
4.238486
4.626513
4.456639
4.643798
5.300641
6.066561
5.212426
5.769730
5.463958
5.075932
5.632639
5.352497
4.932880
5.532503
4.973412
4.933476
5.896688
4.771948
4.644990
4.452467
4.586577
4.296899
4.334450
4.593730
4.291534
4.364848
5.094409
5.050898
5.057454
3.757477
4.524589
4.023910
4.594922
4.956722
4.385710
4.661679
4.689693
4.371405
4.350543
4.910827
5.755424
6.566644
7.952452
7.871985
10.775924
8.983612
10.545850
9.843707
11.759996
13.285875
12.767911
12.731552
11.338592
10.722876
10.391474
8.604527
6.351471
5.425811
4.980564
4.102588
4.203916
4.485846
4.585981
3.979802
4.342794
5.137920
4.600883
5.445480
##ZVALUE=215
5.874634
5.856752
4.939437
4.535913
4.205704
4.249811
4.362464
5.475879
5.716681
6.159544
4.379749
5.105734
3.993511
3.019571
3.355742
2.848506
2.784729
2.568960
2.928972
2.549887
3.065467
3.133416
3.030896
3.456473
3.418922
4.009604
4.456639
5.075932
5.247593
5.701780
6.277561
6.742477
7.807612
7.348657
6.227493
7.305741
7.384419
6.980896
5.968809
6.944537
7.253885
6.419420
6.727576
5.885959
6.220937
5.089641
5.991459
5.657673
5.116463
5.907416
5.290508
5.073547
4.502535
5.137920
4.683733
4.715919
5.159974
5.120635
4.587770
5.024672
4.871488
5.347729
5.111694
6.182790
5.140901
4.656911
5.917549
5.289912
5.738735
7.692575
7.348657
8.265972
10.533929
10.514855
12.331605
12.740493
11.827946
11.244416
11.833906
11.008978
9.823442
8.978844
8.082986
8.374453
7.215738
5.600452
5.616546
5.632639
4.656911
5.306602
4.956722
4.663467
5.030632
5.068779
4.679561
5.098581
##ZVALUE=220
20.821691
21.499991
20.366907
21.735430
20.325780
15.529990
14.374852
12.743473
10.351539
11.183619
11.955500
13.917685
11.953712
10.666847
9.229779
7.614493
5.920529
4.691482
4.318953
3.990531
3.129840
4.456639
3.638864
3.742576
4.230738
4.555583
5.579591
6.204844
7.565618
7.403493
8.940697
8.477569
10.270476
10.165572
10.069609
9.882450
10.853410
9.755492
10.899901
9.599924
9.137988
9.486675
8.721948
9.832978
9.443760
7.355809
8.292794
7.179976
8.756518
8.188486
6.929636
7.835627
7.339716
7.450581
7.640719
7.674694
7.647872
7.527471
7.087588
8.092523
7.255673
8.243918
6.970763
8.010864
7.834435
7.795691
7.946491
9.072423
9.307861
10.508895
12.144446
12.603998
14.054775
16.529560
17.324686
16.297698
16.284585
15.832782
16.255975
16.132593
15.686750
14.535785
12.979507
13.070703
11.490583
10.455847
9.461641
7.855892
8.592606
7.410645
8.283854
7.372499
8.720756
7.809997
8.221865
7.737875
##ZVALUE=225
35.112500
37.061572
46.920776
57.948828
66.108704
71.624517
68.166852
51.512718
40.996671
28.531551
23.095608
25.006533
26.142597
27.231574
28.059483
24.168491
21.266937
17.580986
12.900829
9.391904
7.153749
5.219579
4.656911
4.233718
4.936457
5.871654
6.098747
8.038878
9.528995
10.781884
10.959506
11.918545
12.679696
13.323426
13.260841
12.706518
14.361739
12.549758
12.876987
12.959838
12.076497
11.767745
12.099743
10.940433
10.234714
10.411739
11.059642
9.547472
9.238720
9.128451
9.870529
9.543896
9.244680
9.758472
9.091496
8.914471
9.384751
9.793639
9.582639
9.395480
9.172559
8.077621
9.236932
9.418726
9.748936
10.424852
10.130405
11.199713
11.640787
12.984872
15.346408
16.538501
18.326640
19.250512
21.877885
22.712946
20.866990
21.261573
21.323562
21.360517
19.943714
17.380714
16.112924
15.640855
13.226867
12.113452
11.287928
11.059642
9.248853
9.872913
10.489821
9.854436
9.720922
9.472966
10.048747
9.615421
##ZVALUE=230
36.110878
41.036606
66.004992
108.229518
147.704482
184.489489
199.088454
200.334787
182.269812
148.463845
100.642443
72.169900
50.653815
47.266483
47.341585
48.183799
53.196549
49.913526
43.618679
35.978556
27.710795
19.079447
14.088750
9.484887
6.456971
6.902814
8.012652
8.680820
8.916855
10.881424
11.092424
11.382699
12.479424
12.707710
12.359619
13.515949
13.464689
15.876889
13.948679
13.621449
13.230443
12.964606
13.454556
12.141466
11.960864
11.630654
9.785891
10.950565
11.090636
10.089874
10.143518
9.187460
10.008812
8.788705
10.351539
10.684729
10.536909
10.178685
9.798408
10.624528
10.498762
9.815693
9.911656
11.280775
12.291670
10.737777
11.579990
12.371540
14.826655
15.096664
15.709996
18.530488
19.047856
21.405816
23.491979
23.757815
23.842454
23.560524
23.049712
22.059679
23.025870
22.255778
18.011928
17.333627
15.808940
12.840629
13.749599
13.593435
12.814999
12.452602
12.637973
12.143850
11.799932
11.368990
11.648536
10.964870
##ZVALUE=235
11.617541
14.921427
31.947494
77.447891
130.212903
205.560923
276.698470
356.996655
375.797749
364.764929
335.953832
246.917605
181.929469
121.378899
91.016889
72.518587
75.586438
79.386830
86.689591
87.954402
83.399415
70.366859
51.527619
39.044619
23.746490
17.955899
11.222959
10.091662
9.010434
9.038448
10.380745
9.962916
10.607839
10.482669
11.432767
11.780858
10.888577
9.520650
10.524988
11.386871
11.734962
11.057854
10.552406
10.889769
9.261966
9.871721
9.690523
9.351969
10.073781
9.635687
9.080768
9.621978
9.174943
8.642673
9.044409
9.908676
10.055900
9.306669
9.223819
10.441542
10.576844
9.297729
9.419918
10.856986
10.072589
10.507703
11.592507
12.633801
12.080669
11.958480
12.962818
14.813542
16.927719
17.585754
19.356608
19.348860
18.315911
19.082427
18.458962
17.610788
18.677711
15.466809
15.906692
16.111732
16.189814
15.779734
16.232729
12.453794
13.877749
14.498830
14.176965
14.105439
13.546944
14.347434
15.131831
14.216900
##ZVALUE=240
1.919866
2.315640
4.035830
15.657544
34.966469
80.929995
139.586926
247.094631
330.724716
399.850607
459.702611
458.400846
387.758613
333.534479
240.731835
169.290900
114.001632
93.518496
93.156695
102.502704
110.210776
112.836957
111.435652
100.260973
84.167719
61.091781
47.309995
33.179522
22.392869
14.071465
11.614561
10.380745
10.193586
10.520816
10.142922
9.472966
10.820627
11.117458
10.204911
9.969473
10.059476
10.504723
9.490848
10.572672
10.575652
10.181665
10.038614
10.392666
10.187626
10.209680
9.336472
10.510683
9.778738
10.026693
8.973479
9.892583
9.765625
10.129809
9.919405
11.049509
9.891987
10.698438
9.911656
10.505915
12.078881
12.267828
12.352467
12.777448
14.071465
15.221834
16.355515
17.327666
17.851591
19.016862
21.068454
20.269752
21.689534
22.351742
21.518469
21.506548
21.117926
19.708872
20.584464
19.412637
19.008517
19.080639
18.358827
18.507838
17.763972
18.986464
18.170476
17.863512
17.932653
17.579794
17.881989
17.450452
##ZVALUE=245
1.473427
1.477599
1.639724
1.685619
2.827644
13.113618
32.139421
88.342428
148.336887
267.530680
377.285480
504.053831
571.342707
577.876568
534.053445
433.599949
343.987942
227.341652
162.687898
107.590556
92.616677
98.688602
111.026764
127.071738
132.696629
127.013922
113.888979
100.225806
73.055625
55.759549
37.516952
24.626851
16.561747
14.633536
11.139512
11.561513
11.313558
10.885000
10.297894
10.761619
11.834502
11.384487
11.840463
11.576414
10.856986
10.515451
10.847449
10.073781
11.124611
10.671616
10.074973
10.603666
9.323955
10.369420
9.109974
11.004806
9.260774
8.726716
9.640455
9.688735
10.318756
9.078979
10.118484
9.676814
10.117888
10.829568
10.931492
11.690855
12.567639
13.065934
14.014840
15.524626
16.822815
16.625524
18.486977
17.250776
19.449592
18.945932
19.952655
19.941926
20.519495
19.536614
19.156933
18.696785
17.917752
18.696785
19.269586
18.239617
19.550920
18.729568
17.660856
17.873645
17.500520
17.251968
16.399622
17.256737
##ZVALUE=250
1.517534
1.370907
1.604557
1.800656
1.833439
1.732707
2.574921
7.595420
29.230714
61.862469
143.411756
233.772397
338.082910
474.115610
557.494760
627.073646
612.029433
550.406575
450.905561
309.910774
218.541622
147.677660
103.027821
94.820857
107.649565
121.599436
138.379931
140.562654
135.337710
124.186873
108.647943
82.178712
62.407851
41.392446
28.032660
18.852949
14.770627
13.310909
11.966825
13.197660
11.636615
13.613701
12.215972
12.177825
12.580752
11.753440
11.187792
10.896921
11.395812
9.972453
10.183454
9.731650
9.832978
9.841919
9.287596
9.259582
9.115934
9.001493
8.682609
8.097887
8.876920
8.837581
8.876920
8.749962
8.947849
9.999871
10.599494
10.258555
11.222959
11.785626
12.749434
14.587641
14.377832
14.593601
15.693903
15.751719
16.373992
17.117858
16.717911
17.785430
17.010570
17.489791
17.493963
17.170906
17.291903
18.514991
16.654730
17.483830
17.459989
16.444921
17.546415
16.792417
16.697645
17.596483
17.135739
17.631650
##ZVALUE=255
1.474619
1.100898
1.316667
1.170635
1.338720
1.224875
1.327991
1.651645
2.072453
3.868937
18.638968
46.095848
91.142654
184.633732
285.252929
428.088903
517.121553
621.573925
640.975833
602.287650
522.156954
416.047573
261.647701
173.672438
106.134415
86.305737
90.226531
103.988647
129.407644
143.934488
147.865415
145.832896
132.714510
107.841492
87.490678
59.109926
45.152903
25.892854
20.657778
15.047789
13.426542
13.544559
13.047457
12.048483
12.724996
11.822581
11.754632
11.974573
10.843873
10.771751
9.944439
10.195971
9.087920
9.207726
8.491874
8.450747
8.128881
8.071661
7.925630
7.832646
8.104444
7.575750
7.698536
8.258820
8.803606
8.357763
9.053946
9.742975
8.920431
10.394454
9.995699
10.979772
12.375712
13.046861
12.166500
13.808608
13.968945
14.620423
13.758540
15.364885
15.580654
14.807582
14.492869
14.353991
14.061928
15.935898
15.718937
15.366673
15.862584
15.758872
16.157627
15.768409
16.215444
15.894771
15.218854
15.586615
##ZVALUE=260
1.067519
1.232624
1.125932
1.250505
1.054406
1.091957
1.401901
1.381636
1.563430
1.676679
1.913905
2.661943
7.192492
28.434992
64.998865
150.783658
244.883895
389.598012
499.506593
632.982850
697.150826
693.465471
605.484843
500.763655
338.708758
233.472586
139.338970
95.287561
76.815486
85.456967
111.379623
128.378868
145.764947
159.151554
151.806474
137.985945
118.002892
86.942911
65.264702
42.356849
30.848980
20.018816
15.943646
13.650656
12.614727
12.603998
12.392998
11.848807
11.869669
10.941625
10.504723
10.012984
10.113716
9.478927
8.980632
8.801818
8.050799
8.418560
8.018613
7.616878
7.924438
7.811785
7.365942
7.783771
7.245541
7.762909
8.016825
8.571744
8.752942
9.428859
9.490848
10.385513
10.514855
10.570884
11.768937
12.139678
11.235476
12.984872
12.610555
13.242960
12.583733
13.515949
12.868643
14.070868
13.932586
13.833642
13.720989
14.111996
13.930798
14.332533
14.042854
14.639497
15.071630
15.276670
14.598966
15.311837
##ZVALUE=265
1.117587
1.143813
1.164675
1.176596
1.143813
1.216531
1.269579
1.212955
1.424551
1.371503
1.234412
1.465678
1.311898
1.791716
3.773570
16.798973
41.799545
107.051730
188.686848
346.881747
480.159521
600.529909
714.074969
724.070668
658.525825
569.307804
419.760942
303.363800
177.939534
113.175511
80.953836
70.543885
84.333420
115.049481
135.599971
154.065490
159.712434
153.070688
140.424967
110.414624
91.546774
63.079000
44.563413
28.649569
19.955635
14.574528
12.646914
11.824965
11.665821
10.870695
10.002851
9.277463
9.488463
9.530783
8.662939
8.158684
8.156896
8.170605
7.584691
7.802844
7.516742
7.328987
7.931590
7.823706
7.880926
7.835627
7.866621
7.768869
7.952452
8.976460
9.332895
9.942651
10.837913
11.236668
10.713935
10.946989
11.200905
11.536479
12.065768
11.179447
11.570454
12.156963
12.694597
12.308955
12.051463
12.595654
13.741851
12.787580
13.222694
13.055801
13.786554
13.405681
13.208985
13.673902
14.157891
14.091730
##ZVALUE=270
1.142621
1.126528
1.016855
1.075864
1.080632
0.909567
1.023412
1.144409
1.321435
1.214743
1.391768
1.212955
1.318455
1.537800
1.554489
1.566410
2.036691
8.232594
22.635460
70.136786
142.501593
252.946615
455.294847
619.555712
796.051025
858.508945
827.779770
745.900869
569.703579
425.496697
291.492939
157.530904
94.508529
62.028766
66.086650
89.661479
111.314654
138.628483
152.515769
157.430768
153.245926
134.742856
116.236806
86.060762
63.833594
40.335655
28.678775
18.721819
14.029741
11.232495
10.374784
9.794831
9.668469
8.339882
8.429885
8.931756
8.477569
8.109808
8.496642
8.164644
8.300543
7.539988
7.657409
7.693768
8.095503
7.193685
8.077621
8.804798
8.896589
8.423924
9.067655
9.081960
9.873509
10.405779
10.648966
10.959506
10.731816
10.360479
11.215806
11.062622
11.128783
11.139512
11.203885
11.802912
11.854768
12.200475
12.519956
12.188554
12.385845
12.778640
13.087988
12.322664
13.351440
12.264848
12.784600
13.046861
##ZVALUE=275
0.933409
1.016855
0.985861
1.053810
1.159906
0.868440
0.899434
1.041889
1.170635
1.117587
0.965595
1.115799
1.271963
1.171827
1.205802
1.273751
1.396537
1.572967
1.922846
3.661513
13.166666
47.874451
98.692775
222.157836
351.848602
545.445681
673.949718
799.065828
828.460455
769.242644
668.295026
488.203764
344.745517
191.614628
116.840601
63.250661
49.923658
62.598586
81.865788
108.863711
129.659772
148.862600
153.812766
149.948597
133.536458
107.447505
85.771680
58.429837
42.586923
26.292801
17.971992
11.926889
10.438561
8.397698
8.228421
8.436441
7.730722
7.794499
7.974505
8.514524
8.051991
8.542538
8.082986
7.852912
7.843971
7.978678
8.138418
8.522868
8.448958
9.123683
9.618998
9.796619
10.280609
10.151863
10.820627
11.154413
10.965466
11.087656
11.138916
11.008978
11.232495
11.263490
11.666417
11.474490
11.705756
11.503696
11.928678
11.694431
11.802912
11.884570
11.599660
11.782646
12.330413
11.922717
12.468696
12.478828
##ZVALUE=280
0.875592
0.963807
0.770688
0.726581
0.950694
0.948906
0.988841
0.754595
0.887513
1.062751
1.107454
1.170635
0.992417
1.218915
1.142621
1.206994
1.176596
1.181960
1.494884
1.451969
1.482964
1.995564
10.956526
31.268597
87.783933
157.480836
292.352438
414.688587
583.159924
700.075626
773.252845
775.966644
709.776878
558.501482
424.619913
248.752832
156.215429
73.955655
45.363903
41.432977
54.471493
79.834461
102.124810
130.665898
142.795444
147.336721
143.253803
125.530958
109.334588
78.912973
60.388446
37.306547
25.971532
15.515685
11.128783
8.960962
7.920861
7.855892
7.595420
7.830858
7.733703
7.714629
8.340478
8.532405
8.776784
8.472800
8.733869
8.732677
9.125471
9.768605
9.572506
10.700822
10.967851
10.610819
10.770559
10.933876
11.094809
11.724830
11.914968
11.820793
11.273623
11.702776
11.702776
11.785626
11.408925
11.670589
11.303425
11.628866
12.359619
11.608601
11.624694
11.665821
10.878444
11.260509
11.317730
12.085438
##ZVALUE=285
0.955462
0.800490
0.731945
0.749826
0.720620
0.809431
0.877976
0.838637
0.919700
1.060963
0.974536
0.933409
0.909567
0.829697
0.926852
1.023412
1.027584
1.246929
1.066923
1.006722
1.342893
1.404881
1.303554
1.725554
3.969669
19.157529
48.347712
116.353631
200.925469
350.805521
478.657484
645.978451
744.272470
800.930858
774.756670
664.185882
544.115901
349.449515
227.447748
111.927986
58.860779
31.114817
34.900904
52.359700
71.183443
99.162459
118.164420
136.683583
142.374635
139.443874
128.302574
104.821920
84.799528
58.033466
40.553808
24.357438
17.046928
11.323690
9.542704
8.685589
8.583665
8.248687
8.584857
8.405447
9.247661
9.246469
9.469986
9.904504
10.333657
10.218620
9.965897
10.931492
11.092424
11.260509
11.514425
11.620522
11.586547
11.005998
11.134744
12.191534
11.648536
12.322664
11.668801
11.705756
11.948943
12.113452
11.799932
11.770725
12.018681
12.008548
11.991858
11.863708
11.080503
11.487603
11.522770
11.450648
##ZVALUE=290
0.830889
0.785589
0.646710
0.969768
0.885725
0.681877
0.776649
0.800490
0.925660
0.934601
0.877976
1.031756
0.909567
0.920892
1.002550
1.035929
0.887513
0.950694
0.976920
1.151562
1.126528
1.200438
1.201630
1.357794
1.394749
1.713634
2.073646
6.162524
29.738545
71.133971
135.607719
273.627639
404.863954
591.600537
709.059834
808.044672
819.820762
745.894909
646.584630
468.889475
325.534940
172.872543
93.742609
37.760735
24.479628
33.581853
46.154857
68.341494
89.540482
113.709569
129.480958
137.676597
136.338472
121.893883
105.428696
77.521801
58.928728
39.023757
27.399659
16.892552
13.077855
10.204911
9.605885
9.516478
9.498000
10.002851
9.935498
10.325909
10.487437
11.096597
10.719895
11.468530
11.491776
11.570454
12.227893
12.583733
12.085438
12.317896
12.206435
12.159944
12.031794
12.120605
11.541843
12.125969
12.545586
12.175441
11.937618
12.117624
11.896491
11.875629
11.642575
11.343956
11.633635
11.752844
11.593699
11.343956
##ZVALUE=295
0.804663
0.777841
0.652671
0.617504
0.737906
0.749826
0.765920
0.817776
0.745654
0.846982
0.916719
1.003742
0.787973
0.876784
0.916719
0.744462
0.855923
0.891685
0.872612
0.914931
0.988841
1.010895
1.065731
1.136661
1.241565
1.310706
1.470447
1.550913
1.781583
2.908707
9.751916
40.411949
89.229941
205.357671
325.629711
508.169532
631.899834
766.179562
824.895501
806.256533
747.776031
600.795746
452.103615
262.731910
152.647495
55.976510
26.210546
20.847917
27.863979
45.010448
61.630607
87.426901
106.600523
124.936700
132.677555
128.901601
118.215680
98.777413
79.452991
55.390000
41.775703
26.424527
18.655658
13.563633
11.536479
10.550618
10.117888
10.063648
10.741949
11.035800
11.030436
11.520982
12.049675
12.378693
11.918545
12.654662
12.358427
12.826920
12.539625
12.684464
12.711883
12.761950
12.360811
12.444854
12.093782
12.506843
11.893511
11.961460
12.275577
11.729598
12.007952
11.588931
11.914968
11.794567
11.616945
11.387467
##ZVALUE=300
0.648499
0.596642
0.762939
0.685453
0.811815
0.813603
0.803471
0.915527
0.864863
0.814795
0.704527
0.688434
0.799894
0.801682
0.727773
0.820756
1.016855
0.964999
0.873804
0.945926
1.055598
0.948906
1.111627
1.307726
1.178980
1.078844
1.219511
1.127720
1.366735
1.549721
1.468658
1.823902
6.329417
20.149946
66.179633
126.892924
255.238414
386.407971
562.924743
670.599937
779.986978
806.604028
761.366487
675.630569
505.648851
356.850624
193.237662
107.335448
38.833618
17.919540
18.243790
25.489926
41.355491
56.123734
80.338717
99.066496
118.484497
124.297738
125.181675
116.150975
96.549988
79.599619
56.694746
42.052865
27.163625
20.017624
14.496446
12.361407
11.210442
11.069775
11.150837
11.084676
11.744499
11.958480
12.365580
12.169480
12.217760
12.506843
12.759566
12.511611
12.500882
12.518764
12.922883
12.752414
12.836456
12.883544
12.560487
12.174845
12.071729
12.540817
11.645555
11.346936
11.723638
11.590719
11.486411
11.221766
##ZVALUE=305
0.734925
0.797510
0.742674
0.734925
0.825524
0.703931
0.744462
0.630617
0.621676
0.636578
0.657439
0.720620
0.862479
0.861883
0.809431
0.971556
0.774860
0.743866
0.860691
0.934601
0.951886
0.879765
1.063943
1.012683
0.869632
0.887513
1.014471
0.981688
1.192689
1.362562
1.304746
1.379848
1.487732
1.606941
2.883673
11.282563
43.419600
91.256499
200.132728
308.286548
476.914644
594.679713
719.019771
768.819451
748.232007
684.645772
552.515984
431.406498
261.201859
155.300498
61.818957
25.977492
13.521910
16.004443
26.058555
36.801696
58.623552
76.442957
96.221566
109.729767
118.673444
119.576454
108.385682
97.015500
74.362755
58.119893
39.933920
28.007627
18.253922
14.557838
11.989474
11.404753
11.357665
11.620522
12.178421
11.660457
11.946559
12.265444
12.267828
12.447834
12.155771
12.246966
13.072491
12.645721
12.875795
12.909770
12.708902
12.459755
11.812449
12.500882
11.624694
11.619925
11.747479
11.458993
11.470914
11.118650
##ZVALUE=310
0.717640
0.618696
0.699759
0.784993
0.683665
0.680685
0.804663
0.739694
0.644922
0.662804
0.604987
0.645518
0.941753
0.896454
0.809431
0.752807
0.785589
0.894666
0.702739
0.804663
0.738502
0.672936
0.936985
0.860691
0.851750
0.716448
0.985861
0.905991
0.960827
1.113415
1.063943
1.073480
1.071692
1.229644
1.378655
1.405478
1.593828
5.987883
18.946528
61.270595
119.498968
244.395733
368.125439
536.299944
646.942854
744.045973
761.827826
714.948773
641.103983
494.034886
372.476578
221.719742
130.429864
49.038529
18.872619
11.637807
14.479756
22.690892
32.892823
50.949454
67.601800
88.795424
100.887418
112.217665
113.511682
105.011463
93.885660
73.646903
57.455897
39.216876
29.103756
19.993782
15.376806
12.500882
11.886954
11.712909
11.887550
11.654496
12.143850
11.701584
12.113452
12.204647
12.057424
12.082458
12.663603
12.384653
12.373924
12.421608
12.122989
12.061000
12.097955
12.132525
11.777878
11.465549
11.659861
11.828542
##ZVALUE=315
0.503659
0.630617
0.724792
0.622869
0.644922
0.644922
0.639558
0.639558
0.448823
0.523925
0.559688
0.731945
0.905991
0.855923
0.649691
0.745654
0.627637
0.748634
0.860691
0.775456
0.871420
0.816584
0.809431
0.839829
0.769496
0.900626
1.074672
0.985861
1.000762
0.945926
1.072884
0.913739
1.040697
1.075864
1.190901
1.214743
1.192689
1.336932
1.546741
2.614856
9.634495
38.364530
84.862709
189.339519
298.402905
470.879674
584.397912
697.169900
733.868480
696.844459
625.764728
492.535830
375.162959
228.368640
138.201714
57.594776
24.038553
9.861588
10.294914
14.330745
19.877553
32.691956
44.848919
65.292716
80.171824
97.793937
105.300546
106.894970
100.523829
85.733533
72.175860
54.220557
40.305853
26.443601
19.732714
14.565587
12.548566
11.533499
11.261702
11.552572
11.594892
11.984706
11.870861
12.179613
12.379885
11.922717
12.121797
12.182593
11.854768
12.360811
12.107491
12.233853
11.569858
11.862516
11.448860
11.779666
##ZVALUE=320
0.592470
0.583529
0.592470
0.611544
0.541806
0.674725
0.470877
0.636578
0.626445
0.795722
0.752807
0.746846
0.698566
0.593662
0.646710
0.619888
0.819564
0.803471
0.756979
0.735521
0.868440
0.675917
0.753999
0.752807
0.806451
0.814795
0.841618
1.004934
0.853539
0.788569
1.092553
0.753999
0.881553
0.985861
0.914931
1.015663
1.188517
1.100898
1.174808
1.269579
1.352429
1.531839
4.624724
21.832585
55.354834
142.243505
233.923793
388.337970
517.933965
660.163760
727.682710
729.785562
670.538545
539.065003
413.993001
244.513750
146.911740
66.474676
31.296611
11.685491
8.673668
9.825826
12.406707
18.870831
27.045608
43.696761
57.745576
76.535940
89.124441
100.909472
102.513433
96.417665
86.233616
66.923499
53.180456
37.005544
27.717948
18.957853
15.121698
12.712479
11.765957
11.446476
11.572838
11.623502
11.587739
12.021661
11.667609
11.682510
11.719465
11.854768
11.626482
11.673570
11.646748
11.293888
11.620522
11.663437
##ZVALUE=325
0.564456
0.730753
0.706911
0.622869
0.572801
0.669956
0.608563
0.605583
0.655651
0.704527
0.730753
0.670552
0.613928
0.757575
0.731945
0.654459
0.637770
0.701547
0.571609
0.710487
0.730753
0.770688
0.726581
0.583529
0.845790
0.790954
0.672936
0.866652
0.873804
0.972748
0.892878
1.032948
1.158714
1.008511
1.026988
0.775456
1.102686
1.174808
1.097918
1.223683
1.306534
1.264811
1.257658
1.419783
2.328753
14.061928
37.439466
100.318789
183.865428
350.158811
493.126512
677.708983
772.618651
817.678571
768.829584
626.366735
482.907891
306.113958
190.721750
88.604689
42.823553
14.485717
8.894801
8.296967
9.070635
12.980700
17.453432
27.796626
39.439797
58.137774
71.553588
86.878538
95.014572
96.143484
91.477633
76.828599
64.547658
48.323870
36.374927
24.584532
19.395947
14.344454
12.909770
11.803508
11.598468
11.781454
11.950731
11.731982
11.734962
11.600852
11.450648
11.187792
11.259913
11.466742
11.236668
10.948777
##ZVALUE=330
0.609756
0.594854
0.660419
0.573993
0.536442
0.452995
0.639558
0.601411
0.590682
0.648499
0.642538
0.592470
0.516772
0.620484
0.594854
0.580549
0.612736
0.685453
0.578761
0.663996
0.599623
0.622869
0.703931
0.770688
0.777841
0.751615
0.754595
0.635982
0.777841
0.786781
0.722408
0.768900
0.911951
0.898838
0.946522
1.000762
0.978708
0.904799
0.993609
1.158714
1.116991
1.088977
1.330972
1.184940
1.328588
1.502633
1.798868
17.855763
20.142794
63.525438
126.563907
269.389749
411.497951
623.146892
759.885907
853.816867
828.484893
703.776479
561.851859
368.410945
243.007541
119.050741
63.696504
23.720860
10.935664
7.930994
7.947683
9.101629
11.816621
17.934442
25.993586
38.788915
52.012801
69.430470
80.225468
89.230537
90.596676
84.947944
75.366497
59.444904
47.792792
33.634901
25.863647
19.007921
15.522838
12.887716
11.898875
11.663437
11.149645
11.515617
11.251569
11.055470
11.099577
10.713935
10.846853
10.871887
##ZVALUE=335
0.596642
0.552535
0.688434
0.509620
0.566840
0.583529
0.532866
0.690818
0.604987
0.413656
0.617504
0.616908
0.492930
0.480413
0.578761
0.594854
0.662804
0.644922
0.658631
0.771880
0.655651
0.483990
0.780821
0.842810
0.598431
0.593662
0.842810
0.611544
0.688434
0.672936
0.638962
0.619888
0.728965
0.818968
0.756979
0.766516
0.861883
0.773668
0.787973
0.805855
1.021624
0.835657
0.833869
1.107454
0.978708
1.193881
1.273751
1.398921
1.396537
3.020763
9.832978
39.080977
83.275437
192.710757
318.359733
515.705943
650.534034
764.818788
777.115822
695.325732
585.516691
411.898494
288.662910
162.536502
92.388988
34.271479
15.060902
8.316636
7.678866
8.076429
9.132624
12.154579
16.331673
26.258826
36.142468
52.263737
64.146519
76.779723
84.059834
84.668994
80.592632
68.175793
58.400631
45.681596
36.063790
25.171638
19.532442
14.857650
13.196468
11.333823
11.218786
10.776520
10.648966
10.331869
10.606647
10.353923
##ZVALUE=340
0.497699
0.487566
0.382662
0.433922
0.410676
0.432730
0.386834
0.521541
0.470877
0.355840
0.395775
0.470877
0.401735
0.387430
0.483990
0.503659
0.458956
0.666976
0.396967
0.536442
0.592470
0.457764
0.444651
0.442863
0.554919
0.515580
0.610948
0.423789
0.502467
0.548959
0.524521
0.584722
0.629425
0.473857
0.579953
0.656843
0.728965
0.609756
0.642538
0.696778
0.702739
0.746846
0.660419
0.828505
1.022816
0.869632
0.967979
1.009703
1.117587
1.113415
1.351833
1.868606
5.017519
24.629831
58.997869
153.091550
278.109908
495.393872
675.175786
867.239833
937.475562
879.302621
757.771730
543.938875
373.829007
198.163986
114.902854
50.655603
21.402836
9.009838
7.987618
7.690787
8.334517
9.812713
11.997819
17.622709
24.303794
36.162734
47.292709
62.671900
72.675943
78.916550
79.397559
74.151754
68.156719
55.091977
44.890642
33.265948
25.770664
18.593669
15.298724
12.281537
10.967851
10.606647
10.329485
10.308623
##ZVALUE=345
0.521541
0.552535
0.494719
0.635982
0.678897
0.660419
0.486970
0.487566
0.530481
0.618696
0.684857
0.671744
0.569820
0.533462
0.538826
0.664592
0.462532
0.436902
0.563860
0.680685
0.769496
0.696778
0.642538
0.524521
0.594854
0.615716
0.753999
0.635982
0.588894
0.863671
0.673532
0.593662
0.605583
0.623465
0.635982
0.683665
0.586510
0.657439
0.590682
0.799894
0.839829
0.865459
0.904799
0.852942
0.834465
0.819564
0.771880
0.983477
0.959635
0.977516
1.114607
1.229644
1.217723
1.332760
2.534986
13.707876
36.463737
96.919537
175.942779
334.827900
477.422476
669.396520
772.143006
801.793933
738.184452
566.519499
406.093597
223.978758
127.203465
55.474639
26.684999
11.059642
8.096695
7.676482
7.706881
8.250475
9.104609
11.705756
15.084743
23.368001
31.694770
45.418739
55.821538
66.114664
71.592927
73.581934
71.505904
62.836409
54.755807
43.574572
33.990741
24.427772
18.750429
14.351606
12.252927
10.648966
##ZVALUE=350
0.614524
0.530481
0.507832
0.498891
0.505447
0.533462
0.519753
0.541806
0.662804
0.527501
0.456572
0.442863
0.432730
0.643730
0.518560
0.572801
0.491738
0.630617
0.561476
0.537634
0.631809
0.543594
0.661612
0.647902
0.649691
0.528693
0.396967
0.538826
0.530481
0.538826
0.645518
0.676513
0.705719
0.626445
0.743866
0.762939
0.697970
0.472665
0.640750
0.751615
0.747442
0.697970
0.659823
0.699759
0.746846
0.793934
0.728965
0.774860
0.838637
1.028776
1.003742
0.948906
0.908971
1.143813
1.234412
1.323819
1.778603
7.314682
21.742582
64.761639
122.112632
246.537924
364.432931
536.403656
661.622882
766.478777
758.479834
646.580458
500.762463
288.109779
170.660615
73.440671
34.194589
12.394786
8.165836
7.411838
7.345676
7.404685
7.897615
8.898973
10.665655
15.468597
20.391941
29.280782
37.941933
49.682856
58.593750
65.475702
67.649484
65.780878
60.099959
50.260425
41.248798
30.666590
24.167895
18.238425
##ZVALUE=355
0.472665
0.468493
0.430942
0.479817
0.563860
0.543594
0.597835
0.528693
0.517964
0.433922
0.332594
0.498891
0.528693
0.471473
0.542998
0.555515
0.426769
0.434518
0.462532
0.611544
0.564456
0.542998
0.494719
0.569820
0.583529
0.512600
0.619888
0.401735
0.576973
0.657439
0.709891
0.724792
0.683665
0.719428
0.749826
0.720620
0.824928
0.666976
0.648499
0.584722
0.664592
0.702739
0.548959
0.736713
0.793934
0.804663
0.803471
0.814795
0.710487
0.859499
0.756979
0.945926
0.776649
0.954866
0.977516
0.975728
1.088977
1.294613
1.328588
3.292561
10.849833
39.999485
82.961917
175.120831
276.702642
428.285599
526.626706
611.435771
620.740652
542.849898
446.336865
295.817852
185.747743
82.283616
40.721893
14.745593
8.210540
6.722808
6.964803
6.745458
6.852746
7.331967
8.136630
10.311604
12.896657
18.484592
25.315881
35.056472
42.483807
52.485466
58.864951
62.038898
60.804486
55.123568
49.071908
39.465427
##ZVALUE=360
0.398755
0.454783
0.633597
0.591874
0.640750
0.627637
0.553727
0.590682
0.603795
0.405908
0.583529
0.435710
0.513792
0.511408
0.642538
0.490546
0.545979
0.543594
0.552535
0.539422
0.536442
0.532866
0.582933
0.581741
0.508428
0.495911
0.548959
0.580549
0.522733
0.591874
0.582933
0.571609
0.639558
0.533462
0.667572
0.579953
0.514984
0.804663
0.671744
0.514984
0.844598
0.633597
0.610948
0.487566
0.737906
0.641942
0.629425
0.680685
0.722408
0.730753
0.621676
0.694990
0.656843
0.635982
0.890493
0.934601
0.753999
1.042485
0.969768
1.085997
1.161695
1.777411
4.974604
20.549893
49.476624
123.637915
202.971697
328.931808
428.922772
531.179905
562.039614
522.511601
442.789793
307.350755
210.331678
109.963417
57.931542
21.063685
10.303855
6.793737
6.525517
6.431937
6.382465
6.401539
6.448627
7.274747
8.289814
10.876656
14.090538
20.733476
27.430654
37.890673
44.745803
52.094460
55.150986
55.219531
##ZVALUE=365
0.420809
0.372529
0.472665
0.476837
0.489950
0.593662
0.436902
0.491738
0.545979
0.519753
0.500679
0.538826
0.542998
0.480413
0.430942
0.501871
0.460744
0.533462
0.387430
0.571609
0.667572
0.568628
0.615716
0.549555
0.495911
0.564456
0.569820
0.502467
0.550747
0.493526
0.594854
0.652671
0.608563
0.684857
0.679493
0.619888
0.630617
0.610948
0.608563
0.711679
0.608563
0.711679
0.586510
0.673532
0.618696
0.617504
0.760555
0.779629
0.821948
0.748634
0.853539
0.694990
0.858903
0.751615
0.769496
0.814795
0.872612
0.895858
0.916719
0.898838
0.912547
1.222491
1.117587
1.313686
2.374649
12.084842
32.099485
83.364844
151.859522
277.879834
372.734666
478.912592
533.319712
527.773499
468.961000
348.039865
250.196457
138.980746
75.980425
28.395653
13.262630
6.894469
6.284714
5.907416
5.930662
6.117821
5.939603
6.141663
6.240606
7.284880
9.106994
12.640953
16.960502
24.887919
31.190515
40.019751
##ZVALUE=370
0.318885
0.308752
0.518560
0.368953
0.418425
0.340939
0.414848
0.379682
0.385642
0.293851
0.397563
0.328422
0.466704
0.488758
0.401735
0.455976
0.421405
0.431538
0.358820
0.520945
0.432730
0.463724
0.397563
0.286698
0.467896
0.446439
0.416636
0.469685
0.362992
0.564456
0.480413
0.301600
0.578761
0.338554
0.362992
0.518560
0.484586
0.475645
0.495911
0.491738
0.494719
0.547767
0.445843
0.414848
0.482798
0.565648
0.594854
0.627637
0.507832
0.594854
0.646710
0.420809
0.614524
0.515580
0.389814
0.584722
0.729561
0.595450
0.709891
0.751615
0.822544
0.781417
0.833869
0.916719
0.912547
1.057982
1.370907
5.479455
18.399954
60.087442
114.777684
222.226977
320.523977
445.521474
508.786440
532.512665
500.530601
399.137735
300.830603
173.223615
98.528862
40.042996
19.385815
8.670688
5.779862
5.621910
5.630851
5.313754
5.326867
5.278587
5.453825
5.656481
6.541610
8.152723
10.725856
15.402436
##ZVALUE=375
0.638962
0.288486
0.493526
0.394583
0.565648
0.504851
0.531673
0.520945
0.663996
0.551939
0.536442
0.502467
0.354648
0.436902
0.577569
0.632405
0.545979
0.681877
0.595450
0.507832
0.467896
0.385642
0.398755
0.343919
0.682473
0.356436
0.516772
0.443459
0.404716
0.662804
0.667572
0.540614
0.580549
0.556707
0.592470
0.683665
0.527501
0.576973
0.521541
0.569820
0.565648
0.547767
0.568628
0.572801
0.635982
0.664592
0.530481
0.594854
0.693798
0.605583
0.589490
0.592470
0.645518
0.614524
0.702739
0.749826
0.611544
0.615716
0.539422
0.749826
0.708699
0.662804
0.902414
0.737906
0.949502
0.970960
0.902414
1.104474
1.365542
3.151894
10.269880
36.793947
80.797672
177.462697
275.976658
412.745476
494.463444
548.950434
539.932847
452.361703
354.282856
222.024918
141.756535
71.017742
36.463737
12.848973
6.880760
5.297661
5.256534
5.058646
5.133748
5.093813
5.135536
5.248785
5.327463
6.138682
##ZVALUE=380
0.407696
0.447631
0.444651
0.283718
0.396967
0.417829
0.455976
0.516772
0.375509
0.464916
0.447631
0.435710
0.294447
0.635982
0.466704
0.441670
0.352859
0.407696
0.527501
0.567436
0.442863
0.540614
0.378489
0.514984
0.691414
0.608563
0.403523
0.442863
0.586510
0.458956
0.461936
0.496507
0.531673
0.423789
0.360608
0.453591
0.499487
0.547767
0.476837
0.644922
0.502467
0.443459
0.523925
0.433922
0.744462
0.518560
0.605583
0.577569
0.650883
0.650883
0.560880
0.479817
0.512600
0.435710
0.550747
0.453591
0.452995
0.783801
0.695586
0.699759
0.542998
0.687838
0.656843
0.745654
0.665784
0.733733
0.858903
0.898838
0.978708
1.045465
1.124740
1.715422
7.129908
21.758676
66.317916
124.692917
236.968994
343.879461
471.993685
536.081791
546.112657
502.597690
400.524735
306.133628
184.470415
111.508965
48.316717
22.646785
8.051991
5.280972
4.749894
4.711747
4.667640
4.581809
4.651546
4.764795
##ZVALUE=385
0.539422
0.499487
0.444651
0.431538
0.423789
0.478625
0.536442
0.508428
0.441670
0.430942
0.361800
0.470877
0.588894
0.515580
0.466704
0.462532
0.567436
0.580549
0.525713
0.260472
0.506639
0.557899
0.453591
0.571609
0.398755
0.290871
0.473857
0.482798
0.523925
0.432730
0.381470
0.477433
0.480413
0.548959
0.552535
0.581741
0.479817
0.432730
0.550747
0.451803
0.529885
0.457764
0.563860
0.556707
0.426769
0.640750
0.546575
0.552535
0.582933
0.616908
0.530481
0.602603
0.560880
0.581741
0.655651
0.644922
0.654459
0.593662
0.395775
0.607967
0.613928
0.680685
0.770688
0.757575
0.712872
0.747442
0.678897
0.878572
0.832677
0.976920
1.022816
1.079440
1.257658
1.415610
2.790689
15.571713
39.941669
102.719665
180.938840
316.030979
426.454544
537.211895
565.670729
542.909503
490.759015
373.181701
267.715454
145.483613
84.376931
35.507679
15.603900
6.164908
4.512668
4.198551
4.440546
4.507899
##ZVALUE=390
0.465512
0.546575
0.514984
0.399947
0.571609
0.385642
0.461936
0.389814
0.379682
0.450611
0.474453
0.340939
0.364780
0.547767
0.436902
0.559688
0.509620
0.363588
0.581741
0.539422
0.557899
0.453591
0.467896
0.404716
0.421405
0.585914
0.372529
0.578761
0.596642
0.551939
0.545979
0.754595
0.466704
0.575781
0.575781
0.518560
0.468493
0.515580
0.599623
0.582933
0.582933
0.731945
0.585914
0.435710
0.359416
0.521541
0.628829
0.570416
0.525713
0.440478
0.780821
0.617504
0.520945
0.588894
0.544786
0.527501
0.560880
0.468493
0.542998
0.701547
0.654459
0.636578
0.694990
0.753999
0.817776
0.696778
0.742674
0.755787
0.734925
0.841618
0.939965
0.981688
1.042485
1.107454
1.096725
1.009703
1.619458
7.503629
23.114681
71.778893
137.291551
265.458822
369.301438
498.738885
574.838519
612.159967
573.674440
468.700528
364.537835
225.815773
131.261945
52.992702
24.747849
8.639693
4.918575
4.286766
##ZVALUE=395
0.442863
0.308752
0.481606
0.275970
0.442863
0.545979
0.765920
0.478625
0.528693
0.442863
0.429749
0.405908
0.246763
0.336766
0.351667
0.400543
0.480413
0.446439
0.483990
0.458956
0.582933
0.699759
0.412464
0.543594
0.530481
0.491738
0.572801
0.541806
0.534654
0.536442
0.489950
0.520945
0.498891
0.416636
0.459552
0.570416
0.478625
0.511408
0.564456
0.596642
0.609756
0.534654
0.533462
0.664592
0.439882
0.556707
0.413656
0.577569
0.579953
0.652671
0.695586
0.703931
0.630617
0.552535
0.558496
0.539422
0.506639
0.507832
0.547767
0.426769
0.554919
0.608563
0.728965
0.713468
0.735521
0.759959
0.735521
0.826716
0.780821
0.728965
0.940561
1.117587
1.040697
1.056790
0.970960
1.151562
0.946522
0.924468
1.259446
4.277825
13.678670
48.719645
97.127557
198.850632
302.706957
462.604761
574.881434
667.489767
673.170686
588.808656
474.836826
296.730995
187.786818
87.691545
40.902495
12.974739
##ZVALUE=400
0.454783
0.436902
0.490546
0.298619
0.363588
0.516772
0.348687
0.377893
0.376701
0.412464
0.362992
0.368953
0.586510
0.455976
0.430942
0.510812
0.490546
0.552535
0.524521
0.463724
0.412464
0.522733
0.336766
0.380874
0.606775
0.640750
0.559688
0.500679
0.614524
0.541806
0.544786
0.568628
0.567436
0.541806
0.523925
0.526905
0.646710
0.607967
0.634789
0.645518
0.520945
0.569820
0.454783
0.547767
0.538826
0.512600
0.601411
0.524521
0.503659
0.637770
0.718832
0.541806
0.711679
0.608563
0.563860
0.675917
0.495911
0.526905
0.496507
0.588894
0.630617
0.596642
0.643730
0.646710
0.637770
0.639558
0.617504
0.751615
0.911951
0.793934
0.738502
0.740886
1.002550
0.880957
0.930429
0.917912
0.924468
0.962615
0.994802
1.040697
1.112819
2.548695
7.683635
27.506948
59.963465
134.794712
219.977498
355.395675
452.628732
550.528765
591.078997
554.232001
480.444431
345.960855
237.028599
123.077631
##END
