##TITLE=QP00601
##FORMAT=SPECTACLE-ASCII V-1.2
##DATA TYPE=ULTRAVIOLET SPECTRUM
##SECOND TYPE=ULTRAVIOLET SPECTRUM
##DATE=02/12/18
##TIME=15:55:29
##SPECTROMETER/DATA SYSTEM=SPECTACLE
##XUNITS=NM EM
##YUNITS=ENERGY
##YFACTOR=1
##FIRSTX=220
##LASTX=410
##NPOINTS=96
##3DDATA=Equidistant
##ZUNITS=NM EX
##FIRSTZ=210
##LASTZ=400
##ZPOINTS=39
##XYDATA=(Y..Y)
##ZVALUE=210
2.420545
2.378821
2.480745
2.202988
2.708435
2.467632
3.226995
3.120899
2.539754
3.000498
2.329946
1.893640
2.355576
2.248883
2.529621
2.411604
2.290606
2.886653
2.289414
2.962947
2.878904
3.446937
3.190637
3.826618
3.604889
3.658533
3.553629
3.731847
3.232956
4.179478
4.237890
4.014969
4.613996
4.624724
4.418492
4.630685
4.796982
5.101562
4.848838
5.094409
4.055500
3.811717
3.951788
5.217791
5.162954
5.174875
5.455613
5.338788
5.600452
5.294681
5.184412
5.770922
4.856586
6.319880
5.309582
6.195903
6.835461
6.398559
5.563498
5.564690
6.020665
5.950928
5.793571
6.964803
6.402731
6.162524
6.229877
8.769631
8.159876
9.385943
11.130571
11.480451
14.168620
16.021729
18.396974
16.676784
17.609596
16.901493
17.084479
17.077923
15.506744
14.935732
12.878776
11.760592
9.570718
8.231997
8.165836
7.683635
6.974936
7.419586
6.095767
6.618500
7.192492
6.986856
6.476641
6.506443
##ZVALUE=215
6.571412
6.720424
7.101893
5.858541
4.986525
5.401969
5.496740
4.648566
6.058812
5.720854
5.346537
5.162954
4.061460
3.493428
3.751516
3.057718
2.982616
3.102422
2.886653
3.772974
3.181696
3.319979
3.232956
3.709793
4.345775
3.906488
4.378557
4.255772
4.973412
4.386902
4.518628
4.190803
4.809499
4.769564
5.130768
5.280972
4.832745
5.088449
5.827546
5.520582
5.533695
5.458593
5.540848
5.899668
5.526543
5.068779
5.256534
5.447865
5.247593
5.519986
5.358458
5.973577
6.024837
6.414652
5.988479
6.049871
5.390644
6.667972
5.969405
5.771518
6.380677
6.166697
6.521940
5.963445
6.601810
6.404519
7.062554
7.713437
8.304715
9.911656
10.309815
11.687875
13.546944
15.138984
15.415549
16.866922
17.143488
16.255975
17.215610
15.475750
12.876987
13.724566
12.079477
10.908842
9.824634
8.379817
8.760691
7.377863
7.045865
6.551743
6.826520
6.290674
7.110834
6.390810
6.373525
7.744431
##ZVALUE=220
19.301772
21.618605
21.113753
20.749569
21.899939
16.259551
14.267564
11.192560
12.101531
10.739565
10.792613
12.732744
12.263656
12.049675
10.196567
6.711483
5.525947
4.351735
3.946424
3.366470
3.574491
3.568530
3.680587
3.411770
3.794432
3.784895
3.269911
4.359484
4.941821
4.419684
4.056692
4.291534
4.428625
4.989505
4.593730
4.867911
5.580783
4.745722
5.162954
4.765987
5.007982
5.426407
4.915595
5.403757
5.149841
5.773902
4.828572
4.894733
6.103516
5.914569
5.490780
6.293654
5.927682
5.921721
5.568862
5.979538
6.818771
6.522536
6.385446
6.686449
6.967783
6.542802
5.977750
6.389618
7.065535
8.293986
8.298755
7.959604
7.797480
9.296536
10.353923
12.500882
13.870597
15.010834
14.889836
16.979575
16.890764
17.752647
18.164515
16.807914
14.921427
15.336871
13.821721
11.824965
10.507703
10.427833
8.494854
7.829666
8.619428
8.547902
7.181764
8.476973
7.211566
7.033944
7.295609
6.523728
##ZVALUE=225
34.486651
37.356615
47.927499
58.466792
64.574480
62.856674
58.172941
45.370460
38.218498
32.221675
25.228858
23.593903
24.673939
27.400851
27.071834
25.970936
20.396709
17.830729
11.922717
9.224415
5.900860
4.623532
4.238486
3.597736
4.530549
4.523993
4.204512
3.952980
4.540682
5.186796
4.539490
4.312992
4.769564
5.157590
4.734993
5.863905
5.290508
5.682707
5.847812
5.887747
6.186962
6.586909
5.554557
5.357862
5.769730
6.022453
6.088614
5.796552
6.653666
5.987883
6.078482
6.555915
6.471872
5.991459
6.666780
6.828904
6.302595
7.362962
7.102489
8.346438
7.128716
8.024573
8.521676
9.109974
7.578731
8.175969
9.294748
8.875728
10.753870
10.766983
12.316704
14.764667
15.769601
17.727613
17.340779
18.857718
16.894937
16.363859
19.163489
16.695857
16.242862
14.823675
13.874769
13.994575
12.990832
12.154579
11.672974
12.126565
11.502504
11.258721
10.279417
10.662675
11.110902
10.983944
10.167956
10.765791
##ZVALUE=230
32.387972
33.113956
54.496527
92.058778
117.744803
144.641995
161.289573
161.414742
148.805976
118.535757
89.218616
61.032772
48.779845
44.286847
44.105649
47.456622
53.205490
52.367449
43.511987
36.987662
26.607513
19.091964
11.561513
7.425547
5.627871
5.544424
5.591512
4.597902
5.464554
5.385876
5.388856
5.846620
5.846620
5.396605
5.441904
6.192923
6.435513
6.018877
6.839633
6.264448
5.681515
6.000996
6.579757
7.485747
6.726980
6.290674
6.945729
7.473826
7.528663
6.565452
7.678866
6.363988
7.481575
7.257462
7.780790
8.199811
9.124875
9.110570
8.670688
9.574890
9.537935
9.522438
10.616779
10.116696
10.570884
10.259748
11.431575
12.260675
13.932586
14.460683
15.297532
17.828941
18.691421
20.284653
22.230744
22.405982
21.990538
22.170544
23.348927
21.029711
21.006465
18.918514
18.626451
18.163919
18.879771
15.244484
16.726851
17.442703
15.903711
17.730594
16.836524
17.078519
17.324686
15.477538
15.598536
15.522838
##ZVALUE=235
11.256933
13.610721
29.321909
66.240430
107.023716
170.676708
226.904750
285.965800
312.869549
313.099623
279.505849
230.617523
159.083605
116.965771
85.274577
72.500706
75.984001
77.429414
83.280802
84.151626
79.724789
64.456463
54.129958
38.831830
25.202632
13.973713
12.673736
8.633733
7.031560
6.245971
7.053614
8.519888
7.624626
7.292628
7.630587
7.050633
6.632805
6.977916
7.355809
6.026626
6.544590
6.327629
7.601976
7.102489
6.912947
7.840991
6.843805
7.708669
7.407665
8.380413
8.276701
8.246899
9.097457
8.373857
7.512569
8.723736
9.304881
9.557605
9.495616
10.232925
10.989904
12.120605
11.840463
12.517571
12.534857
13.453960
13.799667
16.823411
16.263723
18.023849
20.912886
23.296475
23.493767
25.041699
26.700497
27.600527
27.054548
26.180744
26.294589
25.602579
25.299788
25.500655
25.894642
24.720430
25.456548
23.038983
24.120808
24.589896
24.238825
23.644567
23.455620
21.975636
24.649501
22.698641
22.671819
22.973418
##ZVALUE=240
1.973510
2.285838
6.534457
15.036464
43.159723
83.800554
154.513717
233.315825
355.678797
421.022773
482.414961
485.191941
440.990925
364.005566
285.443664
183.490515
133.320689
103.100538
93.737841
103.698969
114.519000
116.057992
113.598704
103.788972
81.995726
67.791939
45.744777
34.518838
21.608472
15.964508
10.931492
9.318590
9.056926
8.319616
8.560419
7.572770
8.681417
7.814765
7.026792
6.744862
7.645488
7.225871
7.234812
7.017851
6.676912
7.537603
7.082820
7.123947
7.172823
7.886887
8.004904
6.855726
8.383989
8.625984
8.113980
8.607507
8.502603
10.269880
10.167956
10.785460
11.243820
11.871457
11.409521
12.664795
13.181567
13.204813
16.106963
16.718507
17.396808
19.792914
22.075772
26.115775
25.243759
27.745962
29.005408
29.708743
31.096935
31.006932
31.125546
30.960441
30.338764
30.197501
28.970838
29.434562
30.118823
28.689504
28.280616
28.052926
29.397607
28.694868
29.578805
27.437806
29.856563
26.846528
26.891828
28.923750
##ZVALUE=245
1.702905
1.894832
2.158880
2.341866
3.442764
13.136864
32.891631
84.708929
156.406760
250.209570
389.835835
490.617752
584.481955
602.348447
560.000539
492.807627
370.068550
274.956822
194.569826
126.923919
103.222728
100.530982
117.261410
128.339529
136.249661
127.654672
115.981698
95.395446
75.263977
59.388876
37.050843
26.585460
17.733574
12.364984
9.868741
10.660887
8.669496
8.584857
8.273721
7.638931
7.128716
6.849766
6.786585
7.587671
6.208420
6.319880
6.729960
6.291866
5.925894
6.219745
7.858872
6.370544
6.860495
6.541610
6.526709
7.686615
7.321835
7.931590
8.291602
8.846521
9.325743
9.691715
10.025501
11.193752
11.996627
12.583733
14.000535
14.742613
16.572475
18.785596
19.247532
21.527410
24.774671
24.312735
25.610924
27.541518
27.332902
29.008985
29.565692
27.903914
30.176640
28.002858
27.727485
27.606487
28.485656
29.006600
28.479695
26.877522
28.622746
28.564930
27.378798
28.802752
29.035807
27.773976
27.566552
28.140545
##ZVALUE=250
1.566410
1.562834
1.848936
1.859665
1.818538
1.835823
2.630949
7.403493
32.898784
68.964958
163.110495
260.590911
372.841954
534.470677
632.599592
689.720511
692.664981
609.103441
513.747931
360.085964
251.401663
171.062946
112.896562
96.824765
111.981630
125.881433
138.917565
147.033930
138.233900
127.297640
108.271837
83.185434
61.549544
38.779974
25.080442
14.300942
11.216998
9.186864
8.460879
7.576942
7.220507
7.411838
6.894469
6.770492
6.169677
6.087422
5.896688
6.348491
5.327463
6.454587
6.126761
6.508827
6.736517
6.613731
6.520748
6.604791
7.116795
7.035732
7.762909
8.261800
8.692741
8.362532
9.895563
10.266900
10.518432
11.895895
12.185574
13.538599
14.027953
15.629530
17.709732
18.519759
19.315481
21.354556
23.091435
24.498701
23.867488
25.728941
26.183724
26.853681
25.016665
25.628805
25.447607
26.043653
24.852753
26.587844
25.705695
27.098656
27.616620
25.279522
26.655793
26.355982
26.184916
25.906563
27.168989
28.428435
##ZVALUE=255
1.547933
1.422763
1.532435
1.669526
1.403689
1.432896
1.572967
1.754761
2.296567
4.532933
23.316741
53.018928
110.403895
231.931806
354.564786
535.364747
657.943487
771.991611
795.471668
758.775473
653.617978
519.158840
325.429440
216.265917
120.624900
95.188618
90.242624
107.129812
130.406618
142.302513
149.808526
143.764615
129.513741
105.697513
83.528757
56.379437
38.814545
22.621751
14.389753
9.248853
7.589459
6.682873
6.269813
5.780458
5.884767
5.606413
6.130934
6.002784
6.147623
6.011724
5.299449
5.872846
6.585717
5.272627
5.971789
6.380677
6.267428
6.903410
6.693602
6.668568
7.872581
7.490516
8.169413
8.892417
9.525418
10.252595
11.151433
11.630654
11.913776
13.607740
14.942884
17.331839
17.748475
18.309951
19.331574
21.404624
21.862984
21.925569
23.531914
22.805929
24.083853
23.415685
25.059581
24.796724
24.538636
24.723411
23.555756
23.215413
23.694634
23.499727
24.484992
25.820732
24.908781
25.734901
25.776625
25.989413
##ZVALUE=260
1.176000
1.576543
1.203418
1.302958
1.420975
1.206994
1.348853
1.522899
1.572967
1.351833
1.769662
2.293587
7.397532
33.972859
77.912807
183.277726
303.872824
499.019623
651.139021
824.379921
891.717672
894.796848
781.314969
640.844703
425.776839
293.627977
169.876814
113.222003
81.820488
85.258484
104.063749
126.960874
144.244432
151.396990
147.163868
131.371617
110.813975
79.045892
58.276653
35.415888
22.904873
13.199449
8.874536
6.672740
5.439520
5.483627
5.387664
5.438924
5.834699
5.154610
5.556941
6.033778
5.670786
5.657673
5.864501
6.686449
6.150603
6.222725
6.182790
6.955862
6.693602
7.305741
7.744431
7.827878
7.931590
9.034872
9.426475
10.389686
10.943413
12.643933
13.036728
14.859438
15.277863
16.476512
17.817616
17.579794
18.691421
20.019412
20.450950
19.850731
20.307899
21.206737
20.341873
21.291971
21.461844
21.760464
22.701621
23.115873
22.060871
23.564696
22.430420
22.633672
23.241639
23.582578
23.633838
24.544001
##ZVALUE=265
1.125932
1.200438
1.120567
1.515746
1.270771
1.263618
1.582503
1.453757
1.528859
1.563430
1.267791
1.569986
1.717806
2.324581
5.307794
23.858547
56.484938
143.435001
250.013471
457.050800
634.631515
797.477961
957.944989
984.366536
891.414881
762.853622
572.233796
405.766964
232.402682
141.219497
91.472864
69.460869
80.971718
109.547973
130.739808
148.047805
153.460503
148.432851
132.675767
105.910897
82.853436
54.386854
37.775636
21.012425
13.437867
8.180737
6.594658
5.699992
5.821586
5.632639
5.671978
5.869865
5.779862
6.074905
5.591512
6.453991
6.602407
6.439686
6.080866
6.525517
6.734729
7.204413
7.617474
8.031726
8.129478
8.706450
9.454489
10.262728
10.839701
11.805892
12.355447
13.764501
15.120506
14.533997
15.955567
17.298460
17.413497
17.413497
18.733740
18.272996
18.561482
19.016862
19.737482
19.834638
20.545721
20.010471
20.057559
20.808578
20.711422
21.305680
21.180511
22.346973
22.553802
22.229552
22.206903
23.227930
##ZVALUE=270
1.164675
1.176000
0.993609
1.264811
1.423955
1.307726
1.250505
1.282692
1.391768
1.315475
1.509786
1.435876
1.652837
1.641512
1.770854
1.872778
2.513528
11.055470
30.903816
99.265575
195.771456
336.303711
582.108498
771.104693
972.581506
1015.774012
1000.252962
901.947021
689.876676
512.343645
351.639986
184.386969
108.510852
61.639547
60.871840
83.949566
106.672645
134.155750
147.419572
155.767798
151.378512
130.345821
111.192465
82.302690
59.086680
34.640431
23.830533
12.953877
8.710623
6.878972
6.169677
6.176829
6.006956
6.118417
6.102920
6.542802
6.883740
6.594658
6.761551
7.079840
7.156730
7.474422
7.185936
8.469820
8.183718
8.817911
9.093881
10.049939
10.391474
11.713505
12.886524
13.945699
14.224648
15.389919
15.841722
15.647411
16.300678
17.233491
17.095804
17.900467
17.303824
18.012524
19.052625
18.270612
19.753575
19.899607
19.940734
20.377636
20.030737
20.383596
20.975471
20.977855
21.329522
20.786524
20.815730
21.423697
##ZVALUE=275
1.012683
1.242757
1.168847
1.053810
1.166463
1.310706
1.293421
1.157522
1.226664
1.292825
1.051426
1.207590
1.320839
1.471639
1.684427
1.644492
1.742840
1.608729
2.017617
5.115867
18.599629
52.395463
152.375698
281.296968
519.822836
703.184605
915.820003
1015.784740
1015.784740
1010.619998
896.485448
655.456781
460.578799
241.376758
136.719942
64.624548
49.537420
58.607459
78.387856
107.265711
127.405524
146.971941
152.061582
144.167542
134.511590
104.249716
82.971454
57.091713
39.922595
22.681952
15.082955
9.504557
7.672906
6.645918
6.221533
7.205606
6.678700
6.808639
7.219911
7.104874
7.655621
8.057952
8.376837
8.839965
8.981824
9.403825
9.460449
10.265708
10.921955
12.120605
12.344718
12.997985
14.458895
15.203953
14.954805
15.082955
15.950799
16.783476
17.203689
17.909408
17.482638
18.338561
17.917752
18.436909
18.823743
18.271804
18.480420
19.197464
19.352436
19.917488
19.553900
19.116998
19.516945
19.554496
20.196438
19.651651
##ZVALUE=280
1.088977
1.139641
1.063943
1.066923
0.980496
0.890493
1.081824
0.952482
1.200438
1.042485
1.275539
1.267791
1.380444
1.394749
1.254678
1.425743
1.524687
1.493692
1.744628
1.874566
2.029538
2.922416
12.424588
42.497516
129.132867
233.522654
427.601933
616.717935
864.383578
1002.481580
1015.778780
1015.778780
976.088643
736.261606
542.560816
305.135846
180.674791
82.337856
49.300790
40.615797
54.202676
80.965757
102.279782
128.779411
143.237710
148.931742
144.711733
129.223466
110.325813
80.307722
58.210492
38.028955
24.739504
13.530850
9.438992
7.491708
7.349849
6.827712
7.621646
7.498860
7.765889
8.292794
8.489490
8.443594
9.384751
9.908676
10.477901
10.452867
11.322498
11.738539
12.561679
13.995767
14.650822
14.444590
15.301704
16.001463
16.134977
16.309619
16.417503
16.959906
17.050505
16.802549
17.581582
18.482804
18.328428
18.516779
18.705726
18.368959
18.692613
18.807650
18.938780
19.211769
19.911528
18.400550
19.285679
19.590855
##ZVALUE=285
1.077652
1.102686
1.026988
1.038909
1.024604
0.918508
1.074672
0.830889
1.307726
1.217723
1.083612
1.299977
1.140833
1.271963
1.172423
1.409650
1.248717
1.283884
1.272559
1.562834
1.483560
1.678467
2.038479
1.932979
6.087422
22.885799
79.958439
170.566440
352.444649
531.927943
727.958679
974.020958
1015.772820
1015.772820
1015.772820
873.233676
678.467751
418.930650
260.803699
123.528838
64.295530
34.745932
35.654902
52.997470
72.966814
100.887418
120.350718
139.123797
144.516826
139.436722
128.141642
105.806589
83.651543
57.724714
41.040778
24.564862
16.093850
10.838509
8.634925
8.350611
8.140802
8.763671
8.816719
9.618998
9.426475
10.050535
10.895729
11.328459
11.472702
12.457967
13.314486
13.817549
14.362931
14.994740
15.441775
16.634464
16.211867
16.774535
16.927719
17.070770
17.566681
17.683506
18.107891
18.135905
17.856956
18.385649
18.560886
18.394589
19.099712
19.177794
18.712878
18.731952
18.507838
18.472672
18.112659
18.661618
##ZVALUE=290
0.844598
1.017451
0.932813
0.984669
1.110435
0.888705
0.869632
0.817776
1.080632
1.057982
0.993609
1.073480
1.028776
1.185536
1.064539
1.250505
1.142621
1.265407
1.219511
1.348853
1.357794
1.451969
1.499653
1.678467
2.089739
2.135634
2.676845
8.723736
41.727424
101.223588
199.718475
403.214693
605.463982
884.803534
1015.774012
1015.774012
1015.774012
989.799500
811.809897
541.520715
357.558727
177.704692
92.078447
37.577748
25.364757
34.140944
47.171712
71.047544
92.365742
116.559863
131.688714
139.900446
137.962699
125.283599
106.721520
78.294873
60.294867
38.207769
26.339889
16.095638
12.518764
9.888411
9.509921
9.064674
9.800792
10.460615
10.500550
11.574626
12.238622
12.479424
13.713837
13.936758
15.109777
15.544891
15.522838
15.936494
16.369820
17.013550
17.288923
17.529726
17.558932
18.120408
18.526912
17.665625
18.330812
18.634796
18.108487
18.774867
18.283725
18.566847
18.367767
18.223524
18.609762
18.334985
18.493533
18.521547
##ZVALUE=295
0.900626
0.710487
0.880957
0.652671
0.831485
0.867844
0.908971
0.973940
0.853539
0.888705
1.024604
1.022816
1.087785
0.900626
1.060963
0.996590
0.961423
1.010895
1.102686
1.259446
1.365542
1.336932
1.541972
1.488924
1.596808
1.667738
1.720786
2.056956
2.004504
3.839731
13.616681
61.028600
138.285756
317.505598
504.288673
791.391730
986.774564
1015.771031
1015.771031
1015.771031
906.412005
653.955936
455.020666
241.482854
127.217770
47.294497
25.095940
21.702647
28.617978
46.253800
62.996745
88.961720
106.748939
125.419497
133.380890
130.136609
120.853782
99.687576
81.231594
56.374669
41.532516
25.633574
18.770695
13.021827
11.471510
10.690689
11.260509
11.859536
12.280941
12.805462
13.843775
13.894439
15.097857
15.682578
16.545653
17.121434
17.139912
17.249584
17.349720
17.564893
17.873645
18.483996
18.622875
18.732548
19.002557
18.706918
18.680692
19.235611
19.684434
19.025803
18.845797
18.386841
18.152595
18.270612
17.882586
18.461943
##ZVALUE=300
0.794530
0.753999
0.892878
0.769496
0.646710
0.917912
0.893474
0.774860
0.942945
1.058578
0.903606
0.975728
1.082420
0.933409
0.983477
1.171827
0.995994
1.098514
0.965595
1.094937
1.049638
1.105666
1.206994
1.116991
1.384616
1.256466
1.415610
1.573563
1.529455
1.807809
1.929998
2.471805
6.118417
36.372542
87.714791
221.937895
378.816724
652.123690
867.218971
1015.774608
1015.774608
1015.774608
1015.774608
811.403990
593.592525
324.742794
191.495419
83.974600
38.520694
16.910434
18.375516
27.581453
38.855672
60.385466
79.497695
106.101632
118.961930
129.486918
127.178431
114.243627
99.832416
76.482892
60.453415
41.000843
29.145479
19.491911
15.286803
13.565421
13.330579
13.428926
13.917685
14.923811
15.046000
15.535951
16.394854
16.771555
17.196536
17.519593
17.903447
18.175840
18.386841
18.690825
18.717647
19.021630
18.831491
19.078851
19.267797
19.363761
19.838810
19.022822
19.283891
18.962622
18.960834
19.080639
18.212795
17.890930
##ZVALUE=305
0.794530
0.627637
0.757575
1.044869
0.893474
0.725985
0.797510
0.976920
0.877976
0.980496
0.919700
0.771880
1.028776
0.938773
0.776649
0.863671
1.104474
0.702739
0.905991
0.949502
1.032948
1.156926
1.298785
1.310706
1.237988
1.372695
1.321435
1.366735
1.393557
1.466870
1.709461
1.626611
1.828671
2.036691
3.676414
21.896958
61.564445
166.802406
298.968554
557.392836
787.853599
1015.774012
1015.774012
1015.774012
1015.774012
993.502736
790.742636
498.246551
304.363966
136.696696
63.789487
21.899939
14.019608
17.147660
24.176836
40.748715
58.001876
80.308914
97.266436
113.756657
121.564865
120.942593
112.517476
96.795559
79.711676
56.923628
42.925477
29.016733
22.142529
16.932487
15.311837
15.333891
15.217662
16.160607
16.468763
17.186999
17.598867
17.712712
18.437505
18.235445
19.140840
19.817948
20.020604
20.021796
20.001531
20.037889
20.394921
19.893646
19.417405
20.105839
19.713640
19.419789
19.479990
19.058585
19.545555
19.220710
##ZVALUE=310
0.785589
0.702739
0.754595
0.730753
0.741482
0.691414
0.896454
0.820756
0.848770
0.776649
0.941753
0.930429
0.996590
0.978708
1.021624
0.946522
0.732541
1.060963
0.916719
0.939965
0.953674
1.048446
1.149774
0.992417
1.075864
1.091957
1.166463
1.229644
1.191497
1.392961
1.390576
1.450777
1.717806
1.829863
1.865625
2.188683
2.367496
9.075999
30.526519
102.075934
200.326443
414.456725
624.474883
918.333530
1015.780568
1015.780568
1015.780568
1015.780568
938.630700
643.242598
425.706506
209.253430
106.460452
36.782622
16.333461
12.294650
15.596747
24.146438
34.071803
52.252412
69.512725
92.207789
105.340481
116.136670
116.037726
108.052492
96.132755
76.821446
61.181784
42.963624
32.614470
24.229884
20.305514
17.660856
16.918778
17.561913
17.959476
18.517971
17.830729
19.062757
19.175410
19.762516
19.671917
20.089746
20.330548
20.801425
20.420551
20.924807
20.640492
20.558834
20.653605
20.507574
19.583702
19.696951
19.247532
19.688606
##ZVALUE=315
0.747442
0.782609
0.645518
0.589490
0.797510
0.695586
0.704527
0.810623
0.722408
0.883937
0.785589
0.968575
0.872612
0.913739
0.887513
0.786781
0.835657
0.958443
0.858903
0.946522
0.964999
0.803471
1.021624
0.843406
1.017451
0.957847
1.108646
1.176596
1.256466
1.161695
1.200438
1.429915
1.222491
1.331568
1.438856
1.550913
1.548529
1.889467
2.067685
4.017949
15.434623
65.991879
144.959688
322.394967
513.284802
804.125667
981.901884
1015.774608
1015.774608
1015.774608
945.428610
692.578554
494.133830
262.253881
140.517950
51.782727
22.185445
11.509657
11.347532
15.271902
21.040440
34.043789
47.506690
67.332983
83.469748
102.327466
110.883713
112.527609
106.136799
90.540648
76.693892
58.433414
46.020746
31.965971
25.924444
20.777583
19.524693
18.996596
18.769503
19.052625
18.756986
19.861460
19.887686
20.400882
20.306706
20.970702
20.917654
20.508766
21.017790
20.745993
20.906925
20.750761
20.646453
20.487905
20.083785
20.111799
##ZVALUE=320
0.707507
0.711679
0.683665
0.849962
0.782609
0.880957
0.812411
0.699759
0.753999
0.873804
0.818968
0.841618
0.757575
1.024604
0.881553
0.967979
0.850558
0.931621
1.004934
0.899434
1.037717
0.988841
0.754595
0.957847
1.248717
1.087785
0.980496
0.979900
1.222491
1.201630
1.259446
1.216531
1.218915
1.279712
1.410842
1.348853
1.373887
1.533628
1.484752
1.733899
1.817942
2.471805
7.091761
36.607981
93.960762
240.100622
396.982431
645.830631
845.551491
1015.842557
1015.842557
1015.842557
1006.886959
781.521797
573.530793
327.643752
189.090967
80.620646
36.779642
13.745427
10.302663
11.728406
14.166832
20.912886
30.047894
46.333671
61.413646
80.647469
94.054937
105.582476
108.276606
102.636814
91.400743
73.621869
58.868527
43.243766
34.410954
26.534796
23.107529
20.387769
20.396709
20.617843
19.866824
20.822883
20.876527
21.183491
20.955801
21.010637
20.911694
20.843744
21.110773
20.657778
20.731688
20.204782
20.355582
20.629764
##ZVALUE=325
0.759959
0.753999
0.863671
0.917912
0.601411
0.607967
0.735521
0.570416
0.786781
0.758767
0.858903
0.750422
0.639558
0.796914
0.831485
0.843406
0.796914
0.847578
0.963807
0.849962
0.863671
0.738502
0.881553
0.980496
1.006722
0.890493
0.847578
0.955462
0.825524
1.031756
1.126528
0.924468
1.152754
1.027584
1.145601
1.020432
1.195669
1.149774
1.321435
1.553893
1.484752
1.737475
1.892447
2.150536
4.797578
18.017888
71.513653
150.091648
330.926776
531.059504
828.541517
1002.662778
1015.774012
1015.774012
1015.774012
902.694464
632.553697
430.051684
226.797462
127.202868
49.766898
21.954775
10.900497
10.204911
11.792779
14.578700
21.314621
29.759407
46.948791
61.917901
79.739690
92.034936
101.963878
103.345513
98.179579
88.563561
71.302652
57.597756
42.354465
33.831000
26.722550
23.613572
21.691918
20.961761
20.769835
21.301508
21.119714
20.853877
20.431876
20.528436
20.571947
20.352602
20.631552
20.569563
20.325780
20.526648
##ZVALUE=330
0.682473
0.665784
0.634789
0.732541
0.726581
0.649691
0.770688
0.733733
0.788569
0.665784
0.615716
0.528693
0.783801
0.701547
0.639558
0.641942
0.586510
0.651479
0.793934
0.706911
0.827909
0.866652
0.868440
0.707507
0.794530
0.953674
0.886917
0.837445
0.881553
0.853539
0.774860
0.931621
1.029968
1.121759
1.067519
1.038909
1.158714
1.094937
1.083612
1.150966
1.336932
1.549721
1.508594
1.428723
1.665950
1.799464
2.324581
10.178685
34.299493
113.281012
218.123794
437.598825
643.107891
924.298763
1015.774012
1015.774012
1015.774012
943.332911
757.869482
490.540862
312.242508
143.946409
75.075626
28.679967
13.783574
10.280609
10.818839
12.286901
14.947653
22.042990
29.608607
43.963790
58.227777
77.258945
87.512732
97.152591
98.756552
92.482567
83.032846
69.021583
55.728555
41.707754
34.686923
27.706623
24.462938
22.078753
21.226406
20.839572
20.245910
20.890832
20.193458
20.258427
19.902587
20.067692
19.762516
19.780993
##ZVALUE=335
0.607967
0.771880
0.781417
0.732541
0.625849
0.662804
0.661612
0.516772
0.579953
0.822544
0.661612
0.694990
0.671744
0.651479
0.753999
0.739694
0.728965
0.746846
0.738502
0.797510
0.788569
0.685453
0.983477
0.670552
0.837445
0.878572
0.779629
0.749826
0.829697
0.879765
0.943542
0.928640
0.845790
0.970960
1.018643
0.877976
0.928640
1.011491
1.050830
1.071692
1.042485
1.033545
1.192689
1.263618
1.428723
1.456738
1.589656
1.680851
2.020597
4.381537
17.330647
71.459413
153.688788
342.302918
542.031527
833.847523
1010.173559
1015.774012
1015.774012
1015.774012
894.031525
601.823926
405.851007
212.932825
111.573935
39.963722
18.885732
11.201501
10.803938
11.340976
13.150573
16.157627
20.584464
31.361580
42.554736
58.355927
71.478486
84.260702
91.579556
92.898607
88.467598
76.946616
66.942573
54.453611
44.394732
34.607649
28.762817
23.811460
21.904707
20.801425
20.163655
19.968748
19.476414
19.703507
19.841790
19.477606
##ZVALUE=340
0.503659
0.552535
0.584722
0.546575
0.757575
0.593662
0.682473
0.713468
0.636578
0.734925
0.697970
0.579953
0.700951
0.529885
0.584722
0.667572
0.757575
0.699759
0.639558
0.765920
0.659823
0.704527
0.699759
0.655651
0.827909
0.696778
0.901818
0.747442
0.741482
0.934601
0.776649
0.901818
0.893474
0.829697
0.973940
0.958443
0.972748
0.896454
1.017451
1.012683
0.932813
1.020432
1.007915
1.091957
1.310706
1.082420
1.142621
1.218915
1.324415
1.838803
1.858473
2.486706
9.159446
49.665570
124.816895
296.626687
486.667752
763.713717
967.254639
1015.774012
1015.774012
1015.774012
1008.332968
754.780769
527.977943
281.412005
148.946643
54.934621
24.569631
11.957884
11.002421
11.317730
12.033582
13.819933
16.164780
22.375584
29.408932
42.559505
54.021478
69.845915
79.187751
87.714791
87.981820
82.872510
76.002479
63.830614
53.614974
41.339993
33.697486
27.534962
23.441911
20.673871
19.744635
19.109845
18.850565
18.889904
##ZVALUE=345
0.720620
0.689626
0.679493
0.456572
0.684857
0.716448
0.653863
0.619888
0.482798
0.601411
0.616908
0.838637
0.612736
0.697970
0.740886
0.777841
0.564456
0.592470
0.643730
0.714660
0.744462
0.803471
0.595450
0.742674
0.777841
0.738502
0.683665
0.799894
0.811815
0.752807
0.764728
0.676513
0.713468
0.914931
0.811815
0.936985
0.895858
0.797510
0.857711
0.810623
0.966787
0.941753
1.030564
1.030564
1.123548
1.143813
1.107454
1.136661
1.115799
1.343489
1.397729
1.515746
1.619458
1.657605
3.844500
24.231672
73.385835
201.800466
344.314575
590.713620
782.733560
1002.745032
1015.774012
1015.774012
999.928713
776.524544
575.609803
339.242816
190.144777
75.556636
35.311580
14.761686
11.354685
11.029840
11.294484
12.042522
13.273954
15.803576
20.192862
29.352903
38.349628
52.361488
62.512755
73.131919
79.122782
81.765652
80.269575
71.547627
63.535571
51.529408
42.391419
32.456517
26.739836
22.182465
20.132661
18.871427
##ZVALUE=350
0.652671
0.610948
0.572801
0.655651
0.548959
0.587702
0.671744
0.710487
0.609756
0.611544
0.750422
0.754595
0.680685
0.683665
0.503659
0.751615
0.736713
0.659823
0.632405
0.728965
0.621676
0.818968
0.638962
0.747442
0.615716
0.750422
0.795722
0.688434
0.627637
0.837445
0.762939
0.738502
0.685453
0.768900
0.854731
0.894666
0.779629
0.901818
0.799894
0.835657
0.832677
1.042485
0.931621
0.967979
1.027584
1.043677
0.899434
1.142621
1.115799
1.158714
1.120567
1.302958
1.442432
1.483560
1.638532
1.807809
2.368689
11.153817
37.161708
123.750567
237.755775
472.288728
676.187873
932.092667
1015.774012
1015.774012
1015.774012
881.280899
671.752691
395.955443
239.173770
109.087825
51.836967
17.789602
11.810660
10.636449
10.973811
11.223555
11.775494
12.718439
15.219450
20.172000
26.344657
36.057830
45.278668
57.434440
65.239668
72.798729
74.942708
73.385835
68.582892
57.569742
49.175620
38.742423
31.931996
25.486946
##ZVALUE=355
0.601411
0.734925
0.725985
0.606775
0.614524
0.490546
0.546575
0.591874
0.703931
0.606775
0.748634
0.646710
0.608563
0.737906
0.714660
0.653863
0.757575
0.689626
0.709891
0.673532
0.622869
0.644922
0.782609
0.725985
0.768900
0.720620
0.667572
0.734925
0.728965
0.791550
0.779629
0.530481
0.774860
0.784993
0.691414
0.751615
0.754595
0.903606
0.973940
0.898838
0.778437
0.932813
0.924468
0.864863
1.136661
1.073480
0.931621
0.958443
1.061559
1.116991
1.010895
0.972748
1.212955
1.284480
1.312494
1.402497
1.463890
1.823902
2.009869
5.640984
19.508004
77.010989
159.250498
334.416628
518.544912
781.921744
955.752730
1015.774012
1015.774012
910.156965
735.675693
485.043526
306.412578
133.375525
64.016581
22.116899
11.869669
9.985566
10.127425
10.343790
10.545850
11.246800
12.609959
14.651418
17.775893
23.741722
30.290484
40.678978
48.968792
59.183836
64.938664
68.427920
67.934990
62.620640
55.687428
46.438575
##ZVALUE=360
0.536442
0.608563
0.499487
0.779629
0.668764
0.593662
0.500679
0.651479
0.512600
0.715852
0.750422
0.721812
0.636578
0.684857
0.762939
0.783801
0.714660
0.668764
0.608563
0.690818
0.660419
0.514984
0.671744
0.698566
0.718832
0.775456
0.665784
0.770688
0.785589
0.771880
0.749826
0.743866
0.663996
0.810623
0.784993
0.824928
0.854731
0.701547
0.869632
1.003742
0.760555
0.752807
0.947714
0.985861
1.019835
0.787973
0.868440
1.003742
0.857711
1.177788
1.079440
0.914931
1.177788
1.278520
1.103878
1.337528
1.350641
1.474619
1.459718
1.677871
1.892447
3.078580
9.321570
41.877627
102.199912
252.745748
420.328975
683.879852
899.235010
1015.774012
1015.774012
1015.774012
884.094834
598.372817
398.695469
193.275809
98.193884
36.266446
16.226768
9.840727
9.278655
9.671450
9.919405
10.044575
10.527968
11.269450
12.777448
15.602708
19.226670
25.793910
33.288598
43.348670
50.842762
58.614612
61.830878
61.994791
##ZVALUE=365
0.642538
0.614524
0.711679
0.738502
0.582933
0.640750
0.669956
0.686646
0.805855
0.710487
0.563860
0.532866
0.646710
0.779629
0.655651
0.574589
0.541806
0.668764
0.708699
0.608563
0.824928
0.501871
0.621676
0.748634
0.855923
0.764728
0.771880
0.765920
0.868440
0.732541
0.627637
0.703931
0.784993
0.597835
0.787973
0.786781
0.893474
0.909567
0.698566
0.823736
0.874996
0.842810
0.800490
0.788569
0.926852
0.861883
0.908971
0.895858
1.037717
1.076460
1.026988
1.007915
1.016855
1.184940
1.119971
1.225471
1.304746
1.299977
1.361966
1.485944
1.544952
1.804829
2.033710
2.316833
4.602671
25.184751
66.374540
174.880624
321.458578
590.317845
792.460442
1002.311707
1015.778780
1015.778780
983.000398
724.297762
508.681536
275.493860
149.618983
52.561760
22.759438
10.055900
8.901954
9.069443
8.875728
9.152889
9.401441
9.492636
10.073781
11.241436
12.763739
17.009974
21.539927
29.408932
36.473870
45.487881
##ZVALUE=370
0.610948
0.500679
0.722408
0.612736
0.685453
0.631809
0.581741
0.516772
0.650883
0.709891
0.601411
0.522733
0.659823
0.697970
0.670552
0.614524
0.666976
0.692606
0.709891
0.670552
0.582933
0.623465
0.613928
0.584722
0.766516
0.701547
0.631809
0.801682
0.789762
0.755787
0.663996
0.569820
0.639558
0.646710
0.707507
0.852942
0.758767
0.830889
0.889897
0.835657
0.856519
0.836849
0.956655
0.832677
0.898838
0.757575
0.919700
0.820756
0.737906
0.969768
0.795722
0.963807
0.908971
0.935793
0.879765
1.037717
0.979900
1.015663
1.219511
1.207590
1.433492
1.269579
1.441836
1.365542
1.554489
1.876950
2.527833
11.310577
37.996769
124.936700
232.357383
442.215800
650.497675
920.363665
1015.774012
1015.774012
999.328494
786.769986
582.937598
327.671766
185.159445
72.920918
33.490658
13.299584
8.683801
8.017421
7.944703
8.294582
8.641481
8.586645
8.772612
9.066463
10.060668
12.279749
14.843941
19.817948
##ZVALUE=375
0.532866
0.515580
0.503659
0.517964
0.657439
0.623465
0.563860
0.479817
0.496507
0.661612
0.626445
0.545979
0.525713
0.577569
0.607967
0.596642
0.602603
0.582933
0.712872
0.607967
0.730753
0.597835
0.778437
0.536442
0.632405
0.690818
0.755787
0.731945
0.532866
0.603795
0.562668
0.581741
0.659823
0.609756
0.611544
0.687838
0.690818
0.807643
0.745654
0.811815
0.722408
0.793934
0.686646
0.684857
0.598431
0.728965
0.707507
0.724792
0.638962
0.810623
0.783801
0.987649
0.732541
0.868440
0.801682
0.852942
0.921488
1.055598
1.042485
0.937581
0.961423
1.125932
1.068711
1.267791
1.364946
1.330972
1.478791
1.671910
2.080798
6.641746
23.256540
84.361434
179.276466
392.366648
594.212413
860.891938
1003.431678
1015.774012
1015.774012
872.170925
678.399801
414.068699
261.604786
127.622485
63.512921
20.728707
9.962916
7.729530
7.639527
7.500648
7.484555
8.016825
7.970929
7.907748
8.349419
9.045601
##ZVALUE=380
0.457764
0.583529
0.574589
0.495911
0.600815
0.557899
0.612736
0.481606
0.413656
0.519753
0.626445
0.648499
0.570416
0.620484
0.619888
0.661612
0.511408
0.515580
0.634789
0.613928
0.649691
0.755787
0.689626
0.415444
0.746846
0.569820
0.643730
0.592470
0.686646
0.552535
0.701547
0.598431
0.528693
0.727773
0.626445
0.694990
0.625849
0.609756
0.698566
0.707507
0.698566
0.681877
0.805855
0.799894
0.717640
0.669956
0.846982
0.666976
0.794530
0.742674
0.796914
0.875592
0.796914
0.812411
0.916719
0.883937
0.923872
0.768900
0.943542
0.895858
1.058578
1.017451
0.976920
0.985861
1.194477
1.201630
1.404881
1.544952
1.690984
1.919866
2.035499
3.352761
17.349720
54.653883
168.815851
317.261815
596.671700
844.435692
1015.774012
1015.774012
1015.774012
1002.357006
768.302679
567.363501
324.985981
192.736983
80.533624
36.846995
11.770725
7.472634
6.783605
6.951690
6.962419
7.082820
7.394552
7.565618
##ZVALUE=385
0.528693
0.544786
0.469685
0.524521
0.570416
0.503659
0.507832
0.492930
0.669956
0.454783
0.737906
0.610948
0.708699
0.775456
0.656843
0.517964
0.633597
0.561476
0.476837
0.547767
0.631809
0.736713
0.708699
0.634789
0.601411
0.671744
0.549555
0.646710
0.769496
0.740886
0.680685
0.722408
0.746846
0.671744
0.688434
0.611544
0.600815
0.606775
0.615716
0.677705
0.737906
0.595450
0.795722
0.673532
0.717640
0.726581
0.717640
0.708699
0.739694
0.750422
0.712872
0.792742
0.735521
0.609756
0.809431
0.835657
0.893474
0.970960
0.773668
0.924468
1.007915
0.858903
1.013875
0.904799
1.090765
1.139641
1.328588
1.300573
1.367927
1.765490
1.683831
2.048612
1.934767
2.346635
6.923676
42.818785
115.036964
292.617679
504.939556
843.163729
1015.774012
1015.774012
1015.774012
1015.774012
971.815586
681.872964
473.693609
252.901912
144.970417
61.175823
25.783777
8.739829
6.625652
6.376505
6.383657
6.486773
##ZVALUE=390
0.412464
0.394583
0.325441
0.263453
0.251532
0.384450
0.461936
0.405908
0.389814
0.309944
0.311732
0.356436
0.335574
0.452995
0.390410
0.325441
0.388622
0.358820
0.359416
0.424981
0.425577
0.441670
0.499487
0.426769
0.451803
0.363588
0.390410
0.456572
0.493526
0.492930
0.322461
0.325441
0.564456
0.445843
0.465512
0.465512
0.629425
0.453591
0.459552
0.561476
0.359416
0.592470
0.461936
0.542998
0.298619
0.385642
0.654459
0.542998
0.689626
0.591874
0.605583
0.553727
0.490546
0.537634
0.677705
0.705719
0.716448
0.692606
0.579953
0.662804
0.729561
0.775456
0.688434
0.855923
0.818968
0.854731
0.715852
1.044869
1.087785
1.234412
1.408458
1.444817
1.496673
1.589656
1.671910
1.876950
3.850460
16.211867
76.316595
177.077651
409.985781
641.641021
974.346995
1015.607715
1015.607715
1015.607715
1015.607715
949.849486
616.389513
395.666957
193.808675
98.985434
33.448935
13.663769
6.406903
5.780458
##ZVALUE=395
0.626445
0.571609
0.603795
0.500679
0.487566
0.552535
0.640750
0.524521
0.597835
0.566840
0.488758
0.688434
0.548959
0.600815
0.477433
0.558496
0.491738
0.569820
0.520945
0.445843
0.573993
0.685453
0.688434
0.626445
0.520945
0.693798
0.840425
0.583529
0.613928
0.586510
0.626445
0.591874
0.627637
0.637770
0.645518
0.548959
0.657439
0.624657
0.572801
0.716448
0.651479
0.725985
0.753999
0.687838
0.702739
0.751615
0.779629
0.729561
0.679493
0.828505
0.702739
0.707507
0.582933
0.735521
0.832677
1.015663
0.907779
0.845790
0.788569
0.898838
0.871420
0.786781
0.664592
0.955462
1.008511
1.168847
0.965595
1.092553
1.227856
1.305938
1.551509
1.376867
1.547933
1.519918
1.441836
1.484752
1.618862
1.591444
2.473593
8.520484
47.250986
113.247633
259.468555
430.570841
731.467605
974.999666
1015.774012
1015.774012
1015.774012
1015.774012
800.336599
541.059971
270.983577
141.096711
50.666928
22.055507
##ZVALUE=400
0.654459
0.686646
0.736713
0.572801
0.597835
0.664592
0.617504
0.718832
0.504851
0.597835
0.700951
0.579953
0.583529
0.477433
0.616908
0.805855
0.559688
0.892878
0.652671
0.826716
0.730753
0.536442
0.666976
0.698566
0.726581
0.720620
0.645518
0.691414
0.674725
0.714660
0.733733
0.732541
0.630617
0.730753
0.684857
0.698566
0.646710
0.712872
0.869632
0.848770
0.824928
0.754595
0.774860
0.745654
0.755787
0.869632
1.042485
0.956655
0.879765
0.748634
0.859499
0.807643
0.942945
0.837445
0.877976
0.742674
0.863671
0.999570
0.756979
0.864863
0.818968
0.908971
0.931621
0.885725
0.910759
0.839829
1.108646
1.332760
1.294613
1.378655
1.298785
1.393557
1.554489
1.437664
1.477599
1.550913
1.515746
1.491904
1.574755
1.937747
2.063513
5.757809
22.047758
78.142881
163.761973
356.231928
561.515689
865.851641
1015.873551
1015.873551
1015.873551
1015.873551
920.528769
582.649708
368.542671
174.891949
##END
