sinacsa
Scan
1.1
3-QP0030.dsp
nm
200
800
2
301
A
-0.0022
2.3215
0
Amir

24/07/2017 12:32:50
24/07/2017 12:33:55
24/07/2017 11:01:07
0
version 1, 24/07/2017 12:33:55, Amir: |Created; Method: Nadia Oil.msc (version 5 / 17/05/2017 15:12:23)||
Nadia Oil.msc (version 5 / 17/05/2017 15:12:23)
1
0
0
sec
0
0

GENESYS 10S
2.001
2L7M233003
5
0.2
1
1
0.2
0
0

1
0
0
 VISIONlite Scan Version 2.2






||


Front










1
0
0
0
1
3
1
0
0
0
0
0
0
860.8
0
0
860.8
0
0
1
1
1
0
0
0
0
0
0
0
0
0
0
0
0
0
0
0
0
0
0
3
0
5
100
0
0
0
0
100
100
100
0
0
0
0
0
0
0
0
#SPECIFIC1
0
0
0.01

#SPECIFIC2

#SPECIFIC3

#DATA
2.3215
2.2914
2.2596
2.1882
2.0691
1.9153
1.717
1.499
1.2608
1.0403
0.826
0.6466
0.4531
0.3173
0.2459
0.2031
0.1484
0.0962
0.0603
0.0375
0.0229
0.0166
0.013
0.0086
0.0081
0.0074
0.0051
0.0042
0.0024
0.0011
0.0023
0.0032
0.0023
0.0012
0.0013
0.0009
0.0014
0.0015
0.0011
0.0011
0.0013
0.0012
0.0015
0.0015
0.0017
0.0015
0.0018
0.0014
0.0016
0.0026
0.0028
0.0026
0.0026
0.0021
0.0018
0.002
0.002
0.0018
0.0017
0.0012
0.0007
0.0003
0.0002
0.0003
-0.0001
0.0001
-0.0012
-0.0012
-0.001
-0.001
-0.001
-0.0015
-0.0011
-0.0013
-0.0011
-0.0014
-0.002
-0.0011
-0.0012
-0.0013
-0.0014
-0.0006
0
-0.0013
-0.0011
-0.0014
-0.0012
-0.0019
-0.0012
-0.0008
-0.0014
-0.0015
-0.0012
-0.0012
-0.0012
-0.0012
-0.0012
-0.0011
-0.0009
-0.0011
-0.0012
-0.0013
-0.0016
-0.0013
-0.0015
-0.0016
-0.0013
-0.0015
-0.0017
-0.0017
-0.0016
-0.0013
-0.0011
-0.0009
-0.001
-0.0012
-0.0011
-0.0012
-0.0012
-0.0014
-0.0014
-0.0013
-0.0011
-0.0013
-0.0011
-0.0009
-0.0011
-0.0009
-0.0013
-0.0012
-0.001
-0.0007
-0.0009
-0.0009
-0.0009
-0.0012
-0.0011
-0.0012
-0.0015
-0.0014
-0.0016
-0.0021
-0.0014
-0.0007
-0.0009
-0.001
-0.0005
-0.0004
-0.0011
-0.0011
-0.0008
-0.002
-0.0021
-0.0015
-0.0018
-0.0014
-0.0009
-0.0012
-0.0013
-0.0012
-0.0009
-0.0015
-0.0014
-0.0015
-0.0013
-0.0002
-0.0006
-0.0009
-0.0007
-0.0012
-0.0014
-0.0009
-0.0006
-0.0007
-0.0013
-0.0014
-0.0014
-0.0016
-0.0013
-0.0014
-0.0013
-0.0016
-0.0017
-0.0016
-0.0011
-0.0018
-0.0013
-0.0012
-0.0009
-0.0015
-0.001
-0.0012
-0.0015
-0.0012
-0.0022
-0.0013
-0.0011
-0.0017
-0.0007
-0.0012
-0.001
-0.0017
-0.0015
-0.0009
-0.0008
-0.0013
-0.0011
0.0001
-0.0005
-0.0002
-0.0004
-0.0002
-0.0005
-0.0007
-0.0001
-0.0004
-0.0006
-0.001
-0.0008
-0.0006
0
-0.0008
-0.0005
-0.0007
-0.0004
0.0004
-0.0006
-0.0006
-0.0007
-0.0009
-0.0005
0.0003
-0.0001
-0.0007
-0.0009
-0.0013
-0.001
-0.0013
-0.0011
-0.0008
-0.0018
-0.0008
-0.001
-0.0016
-0.0014
-0.0005
-0.0003
-0.0006
-0.0012
-0.0019
-0.0014
-0.0007
0.0005
0
0.0002
-0.0003
-0.0001
-0.0008
-0.0009
-0.0003
-0.0002
-0.0011
-0.0011
-0.0016
-0.0007
-0.001
-0.0004
0.0001
-0.0012
-0.0002
-0.0004
-0.0012
-0.0006
-0.0014
-0.0018
0.0004
-0.0005
-0.0008
0.0019
0.0002
-0.0007
-0.0013
-0.0011
0.0004
0.0003
-0.0008
0.0003
0.0008
0.0004
0.0001
-0.0002
0.0014
0.0004
0.0008
0.0007
0.0002
0.0012
0.0016
-0.0002
0
-0.0001
