##TITLE=1-1
##FORMAT=SPECTACLE-ASCII V-1.2
##DATA TYPE=ULTRAVIOLET SPECTRUM
##SECOND TYPE=ULTRAVIOLET SPECTRUM
##DATE=04/11/18
##TIME=14:52:59
##SPECTROMETER/DATA SYSTEM=SPECTACLE
##XUNITS=NM EM
##YUNITS=ENERGY
##YFACTOR=1
##FIRSTX=220
##LASTX=450
##NPOINTS=116
##3DDATA=Equidistant
##ZUNITS=NM EX
##FIRSTZ=210
##LASTZ=400
##ZPOINTS=39
##XYDATA=(Y..Y)
##ZVALUE=210
11.737943
11.879802
11.195540
9.793639
8.925796
8.738637
6.070733
6.552935
5.528927
4.630685
4.372597
3.221631
2.677441
2.724528
2.409816
2.401471
2.748966
2.882481
2.696514
3.166795
2.963543
2.785921
3.213882
3.751516
3.907681
3.703833
3.756881
5.073547
4.007816
4.865527
5.038977
5.265474
6.056428
5.688667
5.254745
5.773902
6.612539
6.810427
7.846951
7.076859
7.065535
7.366538
8.515716
8.787513
8.891821
8.972883
9.298921
9.201765
10.120869
10.715723
10.626912
11.156797
11.777878
11.675954
11.551976
11.135936
11.790991
12.695789
12.740493
11.581779
11.722445
10.823607
11.486411
10.942817
10.383725
11.292696
10.175705
12.786984
12.794733
13.721585
14.973879
13.749599
16.044974
17.898679
16.326904
19.245744
17.077923
17.621517
16.660690
15.381575
14.089942
12.658834
10.315776
10.354519
10.107756
7.523894
7.072687
7.173419
7.304549
8.419752
10.148883
13.264418
15.808940
21.225810
24.207830
29.286742
34.334660
39.724708
43.575764
42.894483
49.339533
46.883821
49.481988
45.605898
45.099854
41.236877
36.799908
36.994815
33.252835
26.445985
21.545887
18.610954
15.900731
11.727810
11.457801
11.649728
##ZVALUE=215
38.142800
38.522482
30.581951
24.098754
18.145442
16.431808
12.951493
13.183951
11.967421
11.252761
8.489490
8.659959
5.372763
4.272461
3.525615
3.081560
3.360510
2.859831
2.774596
3.160834
3.079772
3.577471
4.002452
3.787875
3.502965
3.511906
3.797412
4.489422
5.059838
4.292727
5.110502
5.549788
6.531477
6.187558
6.355643
6.378889
6.776452
7.279515
8.615851
8.418560
9.333491
9.858608
10.340810
9.985566
11.907816
10.818839
11.775494
11.715889
13.970733
14.356971
14.708638
15.511513
15.529990
17.109513
16.415715
17.472506
16.337633
16.452670
16.655922
16.103983
15.671849
16.480684
16.365647
15.379786
14.180541
14.787912
14.889836
15.326738
14.084578
14.309883
16.193986
17.069578
16.046762
17.694831
18.380880
17.914772
17.962456
17.350912
16.754866
13.844967
13.422966
12.238622
11.539459
10.779500
9.718537
8.743405
8.085966
6.746650
6.357431
7.251501
6.250739
7.696748
6.871819
8.119941
8.746982
12.495518
15.864968
19.591451
27.574897
31.921864
40.531754
46.630502
53.280592
59.147477
66.872835
73.698759
71.484447
76.259971
74.664950
67.193508
66.034794
58.522820
54.625869
46.436787
37.474632
30.219555
##ZVALUE=220
88.159442
87.310672
85.052848
73.601604
60.277581
46.717525
35.161972
24.285913
22.390485
22.298694
20.422935
19.834638
18.789768
14.879704
12.205839
7.414818
6.989837
4.961491
4.717708
3.551841
3.727674
4.389882
3.456473
4.047751
4.174709
4.666448
4.760623
4.558563
4.759431
5.257726
5.718470
5.817413
6.354451
7.010698
7.860661
7.997751
9.554625
9.174943
10.632873
11.269450
12.458563
13.298988
15.321970
14.874935
15.924573
18.031597
17.434955
19.078851
18.966794
19.229650
21.528602
23.072958
23.509860
23.511648
24.869442
27.469993
25.268793
26.159883
24.371743
26.117563
24.170876
24.387836
25.935769
22.759438
23.944974
21.063685
21.374822
19.662976
21.167994
21.182895
21.519661
23.160577
22.605658
23.726821
21.055937
21.935701
21.896958
20.727515
20.060539
17.619729
16.248822
15.895963
13.902783
11.225939
11.523962
10.558963
9.606481
8.350611
7.659793
9.620786
8.468628
7.912517
6.930828
7.257462
7.016659
8.365512
5.907416
7.381439
7.344484
9.672642
12.772679
19.351840
26.498437
37.459731
42.715669
58.083534
69.781542
84.376931
94.617605
105.930567
108.882785
115.232468
117.922425
112.589598
111.510754
103.921890
##ZVALUE=225
116.619468
115.380883
142.565966
151.011944
150.438547
139.892697
121.106505
88.959932
66.465735
46.802759
36.293864
33.841729
32.590628
33.970475
31.618476
29.408932
24.474859
17.886758
13.233423
8.536577
7.592440
5.862713
4.723668
4.467964
4.593730
4.571676
4.944801
4.619956
4.602671
5.023479
6.034970
6.142855
7.203817
7.625818
8.142591
10.607839
10.579824
12.327433
12.734532
13.515949
15.866756
16.503930
17.019510
18.241405
21.731853
22.639632
22.594929
25.239587
26.047826
27.429461
29.436946
32.109618
34.929514
33.210516
34.615993
35.514832
36.310554
34.723878
36.392808
37.623644
34.970641
34.157634
33.843517
33.265948
30.308962
29.735565
29.939413
27.276874
28.937459
27.208924
27.517676
27.063489
29.049516
26.698709
27.425885
25.800467
23.825765
22.801757
22.927523
21.027923
18.449426
17.873645
14.630556
14.836788
14.385581
12.004972
11.638999
10.747910
10.500550
10.048747
10.003448
9.195805
8.929968
8.141994
8.076429
7.391572
7.124543
8.674860
7.661581
7.552505
7.534623
7.825494
7.181764
10.014772
12.503862
18.020868
26.203990
37.465692
51.918626
65.378547
82.893968
104.572773
123.602748
146.271586
159.694552
175.207853
##ZVALUE=230
84.077716
91.515779
129.077435
191.052556
233.756900
269.929767
273.147821
249.616504
213.280916
170.632005
115.652680
85.682869
59.825778
51.449537
51.344633
51.499605
51.325560
52.643418
41.723847
34.612417
25.554895
17.704964
11.515617
7.572770
5.424619
5.181432
5.742908
5.229712
5.660653
5.853772
5.981922
6.738901
6.750822
8.298755
9.178519
10.730624
11.256933
13.463497
14.057755
16.113520
17.960668
19.356608
19.966960
23.929477
24.612546
25.353432
26.236773
31.378865
32.243729
33.107996
32.918453
38.140416
41.191578
40.457845
41.742921
40.938854
42.389631
42.149425
43.631792
41.710734
40.436983
40.849447
40.482879
39.043427
36.737919
36.520958
34.892559
35.839677
33.498406
32.762885
32.541752
30.165911
33.299923
30.571818
29.859543
30.177832
28.978586
26.665926
24.635792
22.631884
20.513535
21.017790
18.230677
18.728971
14.663935
14.730692
14.106631
14.120936
12.619495
11.891723
11.321902
10.962486
10.085702
9.649992
10.444522
9.032488
8.901954
9.538531
9.757876
8.570552
8.761883
9.449720
9.051561
7.906556
8.774996
7.529855
7.790923
8.477569
10.055900
16.231537
21.346807
35.201907
47.297478
75.311661
99.177957
134.328604
##ZVALUE=235
23.724437
27.153492
63.807964
111.777782
179.764628
273.564458
348.671675
425.123572
444.890857
420.288444
361.953974
277.489424
200.923681
130.516887
95.441937
73.774457
72.492957
75.139999
81.804991
77.668428
70.439577
56.016445
45.384765
33.351779
22.259951
14.174581
10.106564
7.382631
6.541610
6.558895
7.140636
8.837581
8.422732
8.952618
9.944439
9.718537
11.431575
11.780858
14.402866
15.099645
17.662644
18.133521
19.436479
20.964742
22.162795
25.132895
26.164651
26.551485
30.726790
30.821562
31.948686
31.051636
35.901666
33.849478
35.957694
35.465956
36.465526
38.813949
38.686991
38.132668
37.660599
37.919879
35.775900
33.559799
33.966899
32.970905
32.517910
31.044483
31.392574
34.047961
31.264424
32.130480
30.779839
32.054782
30.069947
30.575991
29.695630
28.069615
26.158690
24.346709
21.807551
19.676685
19.274950
17.119646
16.876459
14.907718
14.127493
13.258457
13.872981
12.393594
12.341738
12.822747
11.359453
10.146499
11.202693
10.832548
12.081861
10.687709
11.456609
11.031628
10.723472
10.276437
10.239482
9.539723
9.049773
10.421872
9.614825
10.367632
10.552406
9.068847
9.319782
9.837747
10.068417
13.150573
18.944740
31.669736
##ZVALUE=240
2.601743
3.265738
10.934472
26.376843
60.480833
135.477781
223.114491
375.746489
485.193729
611.961484
672.819018
647.410750
581.418872
457.546711
347.200036
216.918588
151.368976
108.893514
95.399618
97.663999
104.657412
106.093884
102.642775
94.199777
75.757504
60.115457
41.399598
30.160546
18.439889
12.506843
10.573864
9.042621
8.801818
8.463860
8.659959
9.763837
11.224747
11.990666
13.216734
13.238788
14.435649
15.966892
16.521811
17.294884
19.017458
20.512938
21.256804
22.143722
24.941564
23.934841
25.232434
26.777983
28.361678
28.300881
28.024912
28.751493
29.145479
28.914809
29.767752
29.739738
28.558969
27.296543
29.548407
29.098988
28.216839
26.850700
28.700829
27.104616
29.160976
28.953552
27.158856
27.200580
26.778579
28.012991
26.555657
28.369427
26.583672
24.716854
24.010539
22.188425
20.844936
20.788908
20.650625
16.219616
16.027689
15.277863
15.516877
15.384555
13.119578
12.661815
12.887716
12.676716
11.981726
13.157725
12.582541
13.824701
11.563897
10.888577
12.247562
12.542605
11.673570
11.414886
11.572838
12.727976
11.807680
11.588931
10.276437
11.375546
10.996461
11.687875
10.797977
10.847449
11.244416
12.044907
11.422634
11.022687
##ZVALUE=245
2.010465
1.959801
1.839995
2.404451
4.690886
22.925735
53.083897
135.965943
239.857435
404.506922
553.775430
731.486678
823.919773
853.023529
797.253847
652.137995
521.636009
342.071652
236.784816
145.029426
111.496449
101.086497
113.915801
130.244493
130.253434
121.431947
111.411810
94.193816
71.775913
54.044724
33.315420
23.406744
15.330911
12.305975
8.887649
9.829998
10.529757
10.774732
11.653900
11.997819
12.539625
14.237761
14.914870
16.660690
16.851425
17.358661
18.930435
18.619895
19.533634
21.879673
20.686984
21.108985
22.316575
22.310615
21.662712
23.195744
24.098754
23.437738
23.229718
25.756955
23.470521
23.139715
23.818612
23.376942
24.447441
22.313595
23.181438
21.883845
21.987557
22.214651
23.418665
24.274588
23.098588
22.887588
23.954511
24.287701
23.858547
21.742582
19.922853
19.213557
18.176436
16.608834
17.216802
13.989806
15.007854
14.759898
13.327599
13.529658
12.378693
12.442470
12.494922
11.819601
11.853576
10.372996
11.882782
12.223721
11.457801
12.461543
13.099909
13.079643
12.319684
12.462735
12.129545
12.573600
11.847615
14.117956
12.470484
11.802912
11.837482
11.580586
11.646748
12.647510
12.316704
11.188984
11.621714
11.578798
##ZVALUE=250
1.831651
1.481771
1.753569
1.888871
2.371669
2.193451
3.207922
14.711618
39.396882
104.196668
200.618505
388.994813
552.246571
772.421956
893.043876
970.212817
957.242846
834.208727
699.943900
478.116870
331.932902
186.443925
125.806928
102.154613
103.578568
126.071572
134.627819
137.271881
132.927895
123.544931
98.339915
79.122782
52.605867
37.894845
21.731853
15.976429
12.597442
11.077523
10.520816
12.203455
13.323426
13.773441
14.995933
15.541911
16.565919
17.047524
18.517971
18.764734
19.649863
19.824505
22.072792
22.190809
22.026896
23.793578
24.068952
23.736954
23.902655
24.387836
24.417639
23.820996
23.446679
24.202466
23.804903
23.289919
20.852685
22.257566
20.740628
21.051764
20.294785
20.566583
22.175908
21.021962
21.751523
22.659898
20.677447
21.190643
19.001961
19.290447
17.566681
15.952587
15.079975
14.075637
12.766719
13.159513
12.269616
11.344552
12.414455
11.204481
11.031628
11.113882
10.485649
10.944605
10.049939
11.185408
10.360479
11.186600
11.604428
11.829734
10.764599
11.349916
11.571646
12.289882
11.946559
10.916591
10.790825
11.648536
11.886954
11.773705
11.443496
11.482835
11.245608
10.461807
11.984706
12.092590
11.268854
10.382533
##ZVALUE=255
1.590848
1.452565
1.651645
1.930594
1.645684
1.851916
2.267957
1.939535
5.530715
6.106496
61.909556
74.289441
175.016522
301.705599
713.977814
730.661750
941.764712
1015.890837
1015.890837
1015.890837
738.095641
655.710697
302.951932
156.587958
144.904852
98.081827
91.521740
110.985637
125.930905
143.483877
144.839883
143.597722
128.887892
104.340911
80.938935
56.710839
40.261745
25.865436
18.010736
15.080571
15.991926
15.611649
16.236901
17.573833
19.579530
20.091534
20.325780
24.039745
23.928881
25.808811
25.937557
26.596785
27.689934
29.513836
26.662946
27.608871
29.546618
29.398799
29.333830
28.089881
28.995872
28.585792
27.217865
28.224587
26.394725
24.104714
24.724603
23.465753
23.697615
23.164749
23.397803
22.819638
22.698641
21.456480
21.357536
20.877719
19.026995
18.366575
17.581582
15.724897
15.142560
13.970733
13.282895
12.332797
11.155605
10.819435
10.304451
9.959936
9.928942
9.116530
9.151697
9.067655
7.861853
8.626580
8.610487
8.190870
8.719563
7.759929
7.598996
7.736683
7.638931
7.888675
7.763505
7.799864
8.181930
7.805824
7.802844
7.937551
7.363558
8.024573
8.012652
7.113814
7.941723
6.664991
7.279515
6.935596
##ZVALUE=260
0.937581
0.976920
1.155734
1.090765
1.333952
1.530647
1.280904
1.087785
1.525879
1.782775
2.208948
3.236532
11.241436
49.133897
111.522675
265.184641
425.110459
688.842535
897.677541
1015.664935
1015.664935
1015.664935
1015.664935
868.124962
570.006967
386.678576
215.644836
134.145617
86.372495
89.247823
104.906559
132.497549
148.641467
158.707500
150.562525
134.785771
112.544894
85.791945
64.611435
44.354796
33.030510
25.315881
22.282600
22.040606
23.047924
25.717616
27.533770
28.188825
29.370785
31.753778
32.673478
35.241842
36.427975
35.096407
35.586953
38.205981
37.587881
37.199855
36.803484
36.262870
36.223531
35.906434
35.110712
34.030676
32.868981
30.977726
29.991865
29.306412
28.542876
28.656721
27.075410
26.279688
25.111437
24.780631
24.051666
22.223592
21.587610
21.082759
18.901825
17.103553
15.946627
14.616847
13.880730
12.048483
11.617541
11.669993
10.301471
10.197759
10.032654
9.300709
8.613467
7.800460
8.677840
7.806420
7.969737
8.066893
8.375645
7.650852
7.450581
7.320642
6.983876
6.460547
6.908774
6.341934
6.687641
6.593466
6.715655
7.070899
6.369948
6.258488
6.537437
6.822944
6.861687
6.594658
6.212592
5.900860
##ZVALUE=265
1.128912
1.316667
1.001954
0.910759
1.262426
1.391768
1.540780
1.241565
1.365542
1.719594
1.781583
1.804829
1.823902
2.524853
6.840825
34.918785
84.671974
213.609934
370.283723
666.163564
902.722478
1015.892029
1015.892029
1015.892029
1015.892029
987.678766
775.049925
557.102561
300.321579
179.989934
93.057752
76.656938
89.319944
115.895867
143.489838
158.511996
163.309574
158.822536
139.634609
122.691989
94.716549
74.314475
53.381920
43.423772
35.304427
34.165978
35.334826
35.791993
37.862659
40.396452
43.119788
43.147802
45.948625
46.829581
48.429966
49.661994
47.731996
47.954917
48.896670
46.606660
45.885444
44.716597
44.697523
42.840838
41.548610
39.935708
38.487911
37.632585
35.737753
34.657717
31.799674
31.273961
30.467510
29.518604
27.897954
26.748776
25.486946
23.141503
21.284819
20.055771
18.469691
18.092990
17.128587
15.500784
14.116764
12.520552
12.833476
11.863708
11.200905
10.882616
10.419488
9.681582
9.152889
8.898973
8.398890
8.359551
8.224845
7.686615
8.404851
7.210970
7.582903
7.172823
7.458925
7.155538
6.722808
7.241964
6.730556
6.862879
7.272959
6.735921
6.396770
6.426573
6.323457
6.457567
5.897880
5.785823
##ZVALUE=270
1.110435
1.247525
1.221895
1.318455
1.379848
1.246929
1.218915
1.209974
1.458526
1.302958
1.582503
1.505613
1.738667
1.558661
1.943707
1.980662
3.313422
16.769767
49.384832
151.604414
290.476680
564.457774
833.945870
1015.892029
1015.892029
1015.892029
1015.892029
1015.892029
991.283655
748.279691
434.988737
265.784860
129.275918
78.512430
73.224902
90.914965
121.957660
146.814585
166.901946
170.719624
166.351795
155.094862
132.907629
109.313726
85.297823
69.740415
56.454539
50.650835
50.399899
49.266815
53.207874
53.321719
56.522489
57.855844
61.059594
58.954954
59.270859
60.020685
58.558583
57.813525
56.706667
56.147575
55.631995
53.503513
51.031709
48.401952
45.867562
46.152472
41.889548
41.223764
38.883686
37.494898
36.225915
34.849644
32.843947
31.569600
28.358698
27.329922
23.725629
23.148656
21.282434
20.109415
18.530488
17.096996
16.290545
15.322566
14.248490
13.647676
12.162924
12.088418
11.385679
10.627508
10.050535
9.866953
9.337664
8.633733
8.405447
8.320808
8.528829
8.071661
7.591844
7.064939
7.783771
7.523894
7.188916
7.198453
7.238984
7.406473
6.790757
6.773472
6.346703
5.688667
6.059408
6.013513
6.037951
5.770922
##ZVALUE=275
1.073480
0.859499
0.869632
0.805855
1.120567
1.035929
0.933409
1.206994
1.011491
1.045465
1.090765
1.348853
1.374483
1.848936
1.212955
1.758933
2.030730
1.863837
2.630949
7.916689
28.021932
103.564858
220.274925
477.862954
737.223029
1015.892029
1015.892029
1015.892029
1015.892029
1015.892029
1015.892029
942.422748
602.652431
369.009972
173.005462
99.000931
65.948963
73.106885
101.958513
127.904415
151.133537
174.174905
181.371570
173.951983
166.026950
142.545700
120.859742
100.542903
84.818602
74.958801
66.845417
62.307715
64.886808
65.107942
65.347552
65.996647
67.721605
66.796541
65.732598
67.399740
64.638853
64.153671
59.699416
58.518648
57.214499
54.053664
54.156780
50.599575
47.819614
46.180487
44.972897
41.968822
39.588809
39.149523
36.228895
34.516454
31.670928
30.787587
28.532743
25.919676
23.615956
22.292733
20.710826
19.863844
17.814636
16.745925
15.789866
14.983416
14.349818
12.923479
12.405515
10.923743
11.024475
10.811687
10.185838
9.920597
9.425879
9.153485
8.911490
8.413792
8.062720
8.267760
7.816553
7.756948
7.274747
7.205606
7.559657
7.569790
7.046461
7.345676
6.739497
6.545782
5.950928
6.088614
5.894899
5.611777
##ZVALUE=280
0.980496
0.919700
1.058578
1.052618
1.103878
0.799894
0.905991
0.894666
0.802875
1.137853
0.848770
1.007915
0.936985
1.229644
1.329780
1.339912
1.481771
1.735687
1.971722
1.558661
2.266765
4.166961
16.701818
75.005889
164.972544
380.897522
599.178672
865.525007
1015.890837
1015.890837
1015.890837
1015.890837
1015.890837
1015.890837
728.773475
481.192470
245.169997
135.619640
69.191456
62.112808
79.199672
104.184747
135.507584
161.326528
180.107951
189.110637
184.260607
173.081756
148.386955
130.472779
108.968616
96.232891
81.039667
76.013803
72.407722
70.347786
67.914724
68.793893
68.043470
68.966746
68.573952
64.252615
61.955452
60.867667
60.415864
57.708621
55.772662
53.734779
50.592422
47.771931
45.861602
43.104887
41.800737
39.376616
37.347674
35.985708
33.067465
31.549931
28.544664
27.000904
24.207830
23.832917
21.765828
20.054579
18.634796
17.579794
16.300678
15.285611
14.344454
13.918877
12.659431
12.106895
10.665655
11.227727
10.437965
9.782910
9.403825
9.175539
9.229779
8.872747
8.789897
8.148551
8.250475
8.116961
7.758737
7.338524
7.352829
7.131696
7.214546
6.919503
7.038713
6.632805
6.468892
5.857944
5.880594
5.931854
##ZVALUE=285
0.673532
0.715852
0.782609
0.926852
0.905991
0.709891
0.786781
0.919700
1.035929
0.893474
0.933409
0.923872
0.813603
1.174808
0.930429
1.154542
1.157522
1.416802
1.314878
1.580715
1.759529
2.051592
2.302527
2.381802
8.854866
31.027794
106.949806
220.894814
472.398400
724.681020
1015.890837
1015.890837
1015.890837
1015.890837
1015.890837
1015.890837
944.698453
653.187633
343.393683
197.752714
91.345906
59.020519
59.494972
77.207685
106.251836
131.983757
160.817504
175.905824
188.117623
187.162757
173.009634
155.834556
131.042004
113.446712
92.092752
79.748631
70.157647
65.260530
62.909722
62.551498
61.401725
59.965849
58.795810
55.891871
54.556727
53.267479
50.985813
49.333572
46.593547
44.503808
42.845607
40.856600
38.565993
36.439896
35.340786
33.173561
31.256676
28.757453
26.801825
25.524497
22.806525
21.288991
20.626783
19.151568
17.767549
16.735792
16.088486
15.424490
14.424920
13.414621
12.319684
12.403727
11.530519
11.036992
10.182858
9.827614
9.918809
9.345412
8.959770
8.877516
8.928776
8.510947
8.206964
7.651448
7.538795
7.656813
7.613897
7.240772
7.189512
7.013679
7.132888
6.729960
6.918907
6.272793
6.147623
6.259680
##ZVALUE=290
0.710487
0.809431
0.766516
0.812411
0.908971
0.750422
0.984669
0.827909
0.697970
0.659823
0.664592
0.848770
0.860691
0.969768
1.036525
1.157522
1.028776
1.149774
1.291633
1.279712
1.431704
1.465678
1.661777
1.456738
2.043843
2.255440
3.801584
13.258457
63.209534
143.571496
334.863663
569.128990
869.718790
1015.892029
1015.892029
1015.892029
1015.892029
1015.892029
1015.892029
770.037770
501.388907
250.875950
132.933855
59.678555
46.220422
56.288838
72.903633
99.729896
123.792887
153.399706
169.086456
179.872513
178.625584
165.442824
147.373676
121.140480
98.907948
77.197552
67.205429
56.686997
51.879883
47.380924
46.007633
46.057701
43.717623
42.367578
40.422678
38.867593
38.279891
36.409497
34.645796
32.973886
32.781959
30.236840
28.934479
27.229786
25.728941
24.235845
22.713542
21.161437
20.502806
18.581748
18.045902
17.043948
15.817881
15.109777
14.152527
13.649464
13.083816
12.653470
11.268854
10.687709
10.586977
9.997487
9.674430
9.517670
8.793473
9.169579
8.884668
8.545518
8.115768
7.896423
7.857680
7.138848
7.464886
7.475615
7.583499
7.251501
7.152557
6.661415
6.859899
6.458759
6.412864
6.305575
6.597638
6.234646
##ZVALUE=295
0.677705
0.605583
0.529885
0.626445
0.963807
0.647902
0.778437
0.764728
0.782609
0.802875
0.948906
0.682473
0.781417
0.805855
0.686646
1.048446
0.935793
1.062751
1.047850
1.000762
0.981688
1.275539
1.248717
1.488924
1.372695
1.793504
1.871586
2.192855
2.699494
4.984736
29.547811
82.595944
228.949785
434.330702
809.144974
1015.890837
1015.890837
1015.890837
1015.890837
1015.890837
1015.890837
967.679024
663.612485
342.592597
186.849833
72.584748
42.251945
36.831498
47.015548
62.684417
87.358952
107.555985
136.551857
150.315762
160.652995
159.854889
143.738985
127.909780
102.687478
84.000826
60.991645
48.563480
38.741827
33.138990
29.190779
27.862787
26.893616
25.919676
25.199652
24.385452
23.564696
22.157431
22.348762
21.170974
20.122528
19.280910
19.194484
17.714500
16.875863
15.597939
15.022755
14.093518
13.570786
12.712479
12.062788
11.549592
11.168718
10.391474
10.386705
9.957552
9.536743
8.884668
8.697510
8.572936
8.543730
8.077621
8.213520
7.651448
7.946491
7.896423
7.328987
7.669926
7.462502
7.636547
7.047653
7.044673
6.872416
6.304979
6.509423
6.250739
6.660819
6.643534
6.052852
6.096959
6.012917
5.449653
##ZVALUE=300
0.643730
0.658631
0.589490
0.677705
0.696778
0.654459
0.614524
0.758767
0.586510
0.617504
0.755787
0.782609
0.721812
0.687838
0.707507
0.800490
0.866652
0.834465
0.871420
1.072884
0.971556
1.087785
1.112819
1.188517
1.226664
1.386404
1.245737
1.742840
1.893640
2.011657
2.035499
2.934933
13.705492
47.478676
160.343647
312.975645
631.233454
939.797759
1015.890837
1015.890837
1015.890837
1015.890837
1015.890837
1015.890837
776.003599
496.485829
243.401527
126.703978
47.042966
27.291775
26.823878
35.395622
53.425431
70.031881
95.240474
113.830566
133.191943
140.039921
138.128996
129.397511
107.953548
90.398788
65.425634
50.424933
34.277439
25.311708
19.878745
17.030835
14.822483
14.358759
14.700890
14.304519
13.570786
13.077855
13.549924
12.498498
12.339950
11.746883
11.327863
11.366606
10.216832
9.939671
9.690523
9.630919
9.318590
9.013414
8.464456
8.172989
7.977486
7.592440
7.384419
7.534623
7.086992
6.908774
7.007718
7.203817
6.604791
6.715655
6.963611
6.368756
7.071495
6.502867
6.623864
6.372929
6.120801
6.248951
6.294847
6.304979
6.012917
6.084442
5.941987
5.553961
5.970597
5.540848
5.560517
5.210638
##ZVALUE=305
0.436902
0.529885
0.333786
0.579953
0.656843
0.505447
0.441670
0.583529
0.557899
0.622869
0.552535
0.621676
0.701547
0.555515
0.700951
0.553727
0.786781
0.707507
0.703931
0.937581
0.848770
1.085997
0.992417
1.076460
1.041889
1.121759
1.285672
1.341701
1.366735
1.559854
1.690984
2.018809
2.098680
2.636909
5.459785
32.202005
90.591908
254.641771
456.614494
821.875930
1015.890837
1015.890837
1015.890837
1015.890837
1015.890837
1015.890837
970.830917
590.667725
364.108682
166.471004
80.498457
27.306676
17.733574
21.709800
29.836893
46.433806
63.311458
87.199807
103.207827
118.305683
127.053857
124.368668
114.820600
96.501708
79.058409
56.288838
40.754676
25.824904
18.429756
13.154745
11.253953
10.018945
9.718537
9.767413
9.015799
8.837581
8.968711
8.356571
8.061528
7.862449
8.072853
7.604957
7.395744
7.378459
6.945729
6.992817
6.744862
6.721616
6.440878
6.462932
6.154776
6.161928
6.205440
6.015897
6.169677
5.812645
6.061792
5.651712
6.206632
5.902648
5.716681
5.890727
5.727410
5.774498
5.850792
5.370975
5.509853
5.564690
5.652905
5.706549
5.593896
5.305409
5.148649
5.107522
5.290508
4.687905
##ZVALUE=310
0.495911
0.565648
0.545979
0.600815
0.610948
0.555515
0.495911
0.475645
0.482798
0.729561
0.824928
0.608563
0.598431
0.810623
0.658631
0.592470
0.602603
0.697970
0.644922
0.861883
0.871420
0.837445
1.034737
0.889897
0.863671
0.943542
1.018643
1.213551
1.077652
1.171827
1.444817
1.365542
1.567602
1.675487
2.004504
2.399683
3.124475
10.926723
57.531595
140.826106
285.440683
597.554445
911.931992
1015.890837
1015.890837
1015.890837
1015.890837
1015.890837
1015.890837
887.730718
505.748987
291.352868
118.102431
50.907731
16.677976
13.032556
17.041564
23.648739
37.847757
51.889420
74.040890
90.892911
108.469725
116.519928
114.703774
107.658505
91.384649
74.913502
51.509738
38.514733
24.294853
17.179847
10.781884
9.151697
7.540584
7.136464
6.776452
6.334782
6.013513
5.793571
5.854964
5.752444
5.738735
5.472898
6.042719
5.467534
5.616546
5.322695
5.376935
5.220771
5.206466
4.988909
4.863739
4.994869
4.971623
4.607439
4.935861
4.709959
4.894733
4.857779
5.144477
5.014539
4.656911
5.027652
5.151629
4.853606
4.759431
4.898906
4.844666
4.902482
4.745722
4.589558
4.448891
4.572868
4.560947
4.387498
##ZVALUE=315
0.456572
0.535846
0.535846
0.470877
0.614524
0.485778
0.432730
0.618696
0.587702
0.494719
0.408888
0.558496
0.583529
0.504851
0.524521
0.563860
0.651479
0.734925
0.816584
0.799894
0.553727
0.700951
0.703931
0.832677
0.996590
0.884533
0.837445
0.910759
1.032948
0.923872
1.107454
1.343489
1.189709
1.123548
1.575947
1.634955
1.970530
2.011657
2.595782
5.153418
21.024942
92.968941
210.669041
472.121835
758.469701
1015.890837
1015.890837
1015.890837
1015.890837
1015.890837
1015.890837
1006.824970
638.369918
383.700728
163.448453
74.506998
23.180842
11.712909
11.457801
14.157891
21.895766
31.793714
50.321817
64.873695
86.854696
100.339651
111.293793
110.088587
99.455714
86.339712
68.336725
52.578449
34.213662
23.328662
14.336705
9.851456
7.115602
6.022453
5.100965
4.781485
4.645586
4.474521
4.570484
4.484653
4.407763
4.499555
4.350543
4.572868
4.291534
4.438758
4.382730
4.312992
4.218817
4.230738
4.044771
4.365444
4.254580
4.064441
4.007816
4.086494
4.120469
4.349947
4.203916
4.178882
4.333854
4.082918
4.034638
4.030466
3.892779
4.082918
4.153848
4.038811
3.833771
3.806949
3.924966
3.948808
##ZVALUE=320
0.406504
0.271797
0.526905
0.538826
0.552535
0.640750
0.535846
0.567436
0.472665
0.476837
0.594854
0.663996
0.598431
0.637770
0.622869
0.497699
0.473857
0.689626
0.626445
0.613928
0.666976
0.574589
0.628829
0.729561
0.735521
0.754595
0.802875
0.814795
0.851750
0.886917
1.093745
1.039505
1.108646
1.132488
1.282692
1.263618
1.472831
1.547933
1.721978
1.982450
2.259612
2.523661
13.030767
44.881701
155.402422
306.313634
606.126785
898.316503
1015.890837
1015.890837
1015.890837
1015.890837
1015.890837
1015.890837
815.155506
514.998436
226.989985
112.159848
37.446618
15.782714
8.841753
9.628534
13.441443
18.391609
30.004978
42.025447
61.859488
76.810718
95.422864
102.051497
102.593899
96.683502
81.983805
66.275001
47.722459
34.618974
20.848513
13.573766
7.741451
5.797744
4.453659
4.148483
3.946424
3.744960
3.687739
3.538728
3.615618
3.550649
3.619790
3.488660
3.369451
3.566742
3.713965
3.643632
3.752708
3.565550
3.667474
3.354549
3.506541
3.696680
3.584623
3.680587
3.579855
3.584623
3.291965
3.642440
3.572702
3.515482
3.573895
3.347993
3.401637
3.492832
3.400445
3.243685
3.104806
3.182888
##ZVALUE=325
0.358820
0.288486
0.356436
0.435710
0.533462
0.349879
0.642538
0.535846
0.365973
0.539422
0.394583
0.460744
0.372529
0.547767
0.548959
0.483990
0.499487
0.458956
0.567436
0.585914
0.537634
0.704527
0.584722
0.706911
0.757575
0.665784
0.749826
0.631809
0.672936
0.813603
1.033545
1.109838
1.056790
1.032948
1.019835
0.977516
1.221895
1.112819
1.298785
1.482964
1.635551
1.812577
2.087951
2.216697
6.867647
26.281476
101.499557
216.348767
477.745533
751.563907
1015.892029
1015.892029
1015.892029
1015.892029
1015.892029
1015.892029
853.184462
577.092767
294.554830
157.545805
54.724813
21.504760
8.941889
7.840991
8.673668
11.472702
17.989874
26.623607
43.142438
58.139563
76.622963
88.284612
95.198750
94.642639
87.140799
75.376630
56.707859
42.154789
27.270913
19.045472
11.060834
7.754564
5.297661
4.140735
3.581643
3.119707
3.036857
3.189445
3.041625
3.018975
3.043413
3.062487
2.832413
3.089905
3.036857
3.062487
3.026724
2.855659
3.141761
3.284812
2.863407
3.087521
3.133416
3.119707
2.986789
3.039837
2.932549
2.894998
3.065467
2.938509
3.023744
3.024936
3.058910
2.975464
2.838969
2.567768
##ZVALUE=330
0.465512
0.304580
0.464916
0.210404
0.510812
0.441670
0.341535
0.392795
0.445843
0.452995
0.615716
0.425577
0.599623
0.405908
0.578761
0.647902
0.533462
0.535846
0.356436
0.678897
0.429749
0.363588
0.533462
0.554919
0.592470
0.573993
0.793934
0.676513
0.735521
0.717640
0.832677
0.790954
0.852942
0.971556
0.827909
0.923872
0.976920
1.015663
0.948906
1.145601
1.299977
1.522899
1.379848
1.642704
1.957417
2.161860
3.122687
15.935898
51.350594
161.377788
309.204459
610.968471
901.292562
1015.890837
1015.890837
1015.890837
1015.890837
1015.890837
1013.293862
679.440498
422.842503
185.548663
89.758635
29.367805
12.340546
7.458925
7.124543
8.024573
10.447502
17.084479
25.124550
39.880872
53.071976
71.444511
81.655979
90.114474
88.438988
81.411600
69.945455
53.725839
40.689707
26.187897
17.774701
10.462999
7.399917
4.753470
3.941655
3.131628
3.153682
2.869964
2.896786
2.706647
2.758503
2.709627
2.680421
2.830625
2.756715
2.764463
2.630949
2.784729
2.704859
2.840757
2.942681
2.671480
2.814531
2.794862
2.726912
2.748966
2.756715
2.601743
2.645850
2.558827
2.584457
2.417564
2.444983
2.125502
##ZVALUE=335
0.376701
0.208616
0.350475
0.410676
0.191927
0.382662
0.359416
0.395775
0.304580
0.381470
0.284910
0.472665
0.598431
0.372529
0.250936
0.182986
0.451803
0.314713
0.420809
0.384450
0.629425
0.480413
0.385642
0.398755
0.545979
0.531673
0.458956
0.520945
0.586510
0.443459
0.552535
0.521541
0.628829
0.545979
0.762939
0.714660
0.811815
0.937581
0.958443
0.989437
0.948906
1.084805
1.000762
1.366735
1.359582
1.557469
1.655817
1.716614
2.170801
6.815791
25.770664
101.131797
211.615562
465.689898
739.602447
1015.819907
1015.819907
1015.819907
1015.819907
1015.819907
1015.819907
791.270733
525.498986
265.051723
135.019422
42.939782
16.507506
7.999539
6.750822
6.759763
7.296801
10.068417
14.495850
24.494529
35.613775
51.627755
64.511895
77.344775
81.726909
82.241893
76.914430
63.404441
52.411556
38.558841
27.969480
17.298460
11.341572
7.029772
4.917979
3.621578
3.016591
2.476573
2.585649
2.501607
2.657771
2.486706
2.459884
2.479553
2.208948
2.446771
2.351999
2.274513
2.320409
2.424717
2.479553
2.473593
2.570748
2.723932
2.577901
2.169609
2.390742
2.542734
2.335906
2.221465
2.207756
2.220869
##ZVALUE=340
0.405908
0.300407
0.450611
0.270605
0.337958
0.294447
0.324845
0.447631
0.317693
0.370741
0.301600
0.396967
0.448823
0.494719
0.408888
0.517964
0.506639
0.390410
0.380874
0.459552
0.621676
0.631809
0.479817
0.559688
0.592470
0.490546
0.553727
0.553727
0.532866
0.648499
0.659823
0.681877
0.696778
0.766516
0.682473
0.846982
0.823736
0.853539
0.878572
0.714660
0.886917
0.814795
0.971556
1.154542
1.246929
1.102686
1.354814
1.534820
1.585484
1.763701
1.966953
2.860427
15.265942
51.971674
170.030594
324.434638
635.789037
930.605531
1015.890837
1015.890837
1015.890837
1015.890837
1015.890837
976.683497
596.514940
363.579988
160.647631
72.978735
19.587874
8.854866
6.777644
6.135702
6.587505
7.092953
9.583831
14.085770
22.848845
32.400489
48.059821
59.759617
71.828961
76.175928
75.790882
72.010756
61.575770
51.013827
36.952496
27.112961
16.681552
11.606812
7.148981
4.655719
3.268719
2.845526
2.640486
2.429485
2.329946
2.444983
2.408624
2.416968
2.381802
2.370477
2.275705
2.429485
2.440810
2.425909
2.442598
2.349615
2.376437
2.678633
2.337694
2.377629
2.439618
2.419949
2.220869
2.318621
##ZVALUE=345
0.321865
0.376701
0.308752
0.435710
0.575781
0.369549
0.397563
0.399947
0.306964
0.433922
0.525713
0.376701
0.423789
0.452995
0.312924
0.291467
0.531673
0.322461
0.537634
0.297427
0.587702
0.381470
0.514984
0.492930
0.513792
0.300407
0.429749
0.765920
0.442863
0.477433
0.507832
0.443459
0.621676
0.589490
0.617504
0.707507
0.601411
0.821948
0.783801
0.808835
0.861883
0.780821
0.802875
0.907779
1.026988
1.008511
0.895858
1.186728
1.291633
1.362562
1.522899
1.371503
1.948476
2.257824
6.446838
26.849508
108.339787
223.692656
472.646952
726.397634
1015.892029
1015.892029
1015.892029
1015.892029
1015.892029
1015.892029
730.189681
469.226837
206.628442
97.921491
30.101538
12.857914
7.082820
6.524920
6.062984
5.576611
6.536841
8.057952
13.660789
19.651651
31.136870
41.524768
54.515600
63.120723
70.161819
71.078539
66.840649
60.362816
47.738552
37.831664
24.721622
17.519593
10.843873
7.447600
4.918575
3.523827
2.941489
2.600551
2.615452
2.589822
2.595782
2.398491
2.458692
2.436638
2.407432
2.392530
2.539754
2.492666
2.328753
2.358556
2.361536
2.302527
2.272725
2.319813
2.272725
2.240539
##ZVALUE=350
0.396967
0.325441
0.402927
0.383854
0.260472
0.500679
0.292659
0.400543
0.382662
0.304580
0.349879
0.231862
0.383854
0.397563
0.267625
0.382662
0.436902
0.450611
0.388622
0.370741
0.298619
0.548959
0.585914
0.326633
0.317693
0.441670
0.590682
0.428557
0.419617
0.540614
0.524521
0.507832
0.576973
0.631809
0.593662
0.557899
0.663996
0.617504
0.606775
0.614524
0.626445
0.821948
0.693798
0.786781
0.987649
0.772476
0.937581
1.070499
1.012683
1.152754
1.171827
1.399517
1.450777
1.526475
1.727939
1.962781
3.540516
13.281703
63.494444
144.428611
350.306630
578.792691
945.602655
1015.892029
1015.892029
1015.892029
1015.892029
1015.891433
823.839903
550.441742
285.365582
148.530602
48.108697
18.260479
7.716417
5.992651
5.495548
5.055666
4.982948
5.602837
7.613897
11.560917
17.943978
25.160909
37.164688
46.451688
57.919621
63.056946
65.487623
62.725544
54.847002
46.824813
34.619570
26.112795
16.459823
11.764765
7.312894
5.256534
3.587604
3.074408
2.544522
2.601743
2.440810
2.305508
2.369881
2.446771
2.255440
2.302527
2.408624
2.441406
2.280474
2.208948
2.083778
2.171993
2.169609
2.198815
##ZVALUE=355
0.414848
0.434518
0.320673
0.231862
0.398755
0.283718
0.375509
0.463724
0.352859
0.240803
0.361800
0.465512
0.526905
0.484586
0.586510
0.415444
0.249743
0.274777
0.285506
0.475645
0.496507
0.396967
0.491738
0.535846
0.364780
0.497699
0.469685
0.501871
0.450611
0.576973
0.677705
0.691414
0.759959
0.668764
0.716448
0.663996
0.693798
0.640750
0.768900
0.626445
0.704527
0.710487
0.569820
0.697970
1.030564
0.705719
0.977516
1.011491
0.985861
0.958443
1.136661
1.265407
1.052618
1.179576
1.277924
1.478791
1.603961
1.871586
2.426505
5.909801
35.081506
93.670487
249.199867
440.075994
789.725780
1015.890837
1015.890837
1015.890837
1015.890837
1015.890837
949.636698
671.948791
351.121426
186.684728
74.266791
29.670000
8.903742
5.901456
5.213618
4.914999
4.475713
4.591942
5.020499
6.662607
9.850860
14.546514
23.362637
31.178594
41.925907
50.070882
57.038665
59.357882
56.999922
51.762462
42.816997
34.984946
25.155544
18.274784
12.236834
8.544922
5.352497
4.145503
3.082752
2.758503
2.566576
2.593994
2.384782
2.345443
2.201796
2.348423
1.996756
2.334714
2.159476
2.177954
2.201796
2.238750
##ZVALUE=360
0.406504
0.347495
0.404716
0.372529
0.330806
0.429749
0.458956
0.358820
0.311732
0.442863
0.313520
0.572801
0.382662
0.488758
0.325441
0.336766
0.380874
0.353456
0.465512
0.439882
0.418425
0.449419
0.282526
0.250936
0.535846
0.672936
0.522733
0.433922
0.558496
0.652671
0.535846
0.531673
0.497699
0.583529
0.575781
0.574589
0.631809
0.744462
0.814795
0.724792
0.766516
0.537634
0.635982
0.526905
0.852942
0.797510
0.944734
0.862479
0.850558
1.046658
0.966787
1.088977
1.068711
0.938773
1.120567
1.325607
1.401901
1.248717
1.715422
1.877546
2.281666
3.377795
16.101599
49.305558
157.597661
307.042599
604.217649
883.338451
1015.890837
1015.890837
1015.890837
1015.890837
1015.890837
805.011988
471.011996
271.535516
104.840994
42.331815
11.135936
6.096959
5.394816
4.725456
4.326701
4.081726
4.106760
4.525781
5.540848
7.856488
12.412667
18.011928
27.273893
35.043955
44.237971
49.303770
53.480864
53.250790
48.742890
42.959452
33.851862
27.269721
18.697977
13.347864
8.694530
6.074905
4.023910
3.008842
2.795458
2.427697
2.229810
2.229810
2.091527
2.064705
1.967549
2.149940
1.932979
1.862645
##ZVALUE=365
0.304580
0.374913
0.555515
0.300407
0.437498
0.399947
0.462532
0.330806
0.272989
0.277758
0.379682
0.407696
0.490546
0.421405
0.375509
0.526905
0.367761
0.497699
0.399947
0.393987
0.210404
0.395775
0.308752
0.570416
0.439882
0.552535
0.623465
0.562668
0.508428
0.480413
0.571609
0.483990
0.565648
0.501871
0.492930
0.571609
0.455976
0.574589
0.688434
0.694990
0.737906
0.563860
0.603795
0.720620
0.757575
0.756979
0.819564
0.778437
1.047850
0.906587
0.967979
0.873804
0.865459
0.928640
0.906587
1.043677
1.037717
1.155734
1.355410
1.560450
1.683831
1.784563
1.971722
2.513528
6.628633
24.384856
96.213818
208.990574
474.264622
743.860006
1015.890837
1015.890837
1015.890837
1015.890837
1015.890837
927.773714
584.252477
350.392461
150.101781
68.630576
18.550754
7.946491
5.228519
4.710555
4.113913
3.905892
3.683567
3.609657
3.859997
4.486442
6.521940
9.374619
15.474558
21.238923
30.628443
37.097931
44.153929
47.683716
49.014688
47.510862
41.340590
34.597516
27.011633
20.416975
13.545752
9.407997
6.056428
4.231930
3.131628
2.624989
2.414584
2.286434
2.178550
1.949668
1.771450
1.902580
##ZVALUE=370
0.338554
0.321865
0.411868
0.293851
0.183582
0.285506
0.283718
0.462532
0.414848
0.369549
0.311732
0.249743
0.445843
0.309944
0.349879
0.363588
0.355840
0.498891
0.311732
0.360608
0.362992
0.251532
0.398755
0.378489
0.471473
0.450611
0.560880
0.396967
0.465512
0.498891
0.467896
0.503659
0.677705
0.572801
0.559688
0.516772
0.521541
0.581741
0.461936
0.562668
0.541806
0.550747
0.667572
0.617504
0.585914
0.671744
0.662804
0.912547
0.797510
0.833869
0.714660
0.633597
0.760555
0.832677
0.883937
0.841618
0.721812
1.216531
0.987649
1.153946
1.433492
1.475811
1.533628
1.480579
1.633763
1.999736
2.995729
16.538501
54.399967
173.318982
323.817730
609.773993
881.970525
1015.892029
1015.892029
1015.892029
1015.892029
974.681973
709.396601
386.144519
213.387609
80.748796
34.720898
10.863543
5.568862
4.496574
4.105568
3.794432
3.719926
3.416538
3.393888
3.398657
3.993511
5.656481
8.310676
12.864470
18.233657
26.718974
32.678843
39.730668
44.022799
46.363473
44.935942
39.533973
34.427643
26.344657
20.809770
13.929605
10.559559
6.513000
4.803538
3.158450
2.532601
2.247691
1.985431
1.881719
##ZVALUE=375
0.311732
0.338554
0.257492
0.216961
0.212789
0.293851
0.282526
0.505447
0.392795
0.312924
0.296831
0.339746
0.320673
0.233650
0.257492
0.519753
0.337958
0.362992
0.412464
0.391603
0.415444
0.347495
0.422597
0.489950
0.415444
0.381470
0.408888
0.415444
0.362992
0.300407
0.390410
0.354648
0.481606
0.360608
0.540614
0.533462
0.514984
0.388622
0.470877
0.276566
0.591874
0.599623
0.696778
0.469685
0.665784
0.619888
0.554919
0.532866
0.641942
0.557899
0.583529
0.795722
0.861883
0.637770
0.703931
0.905991
0.860691
0.855923
0.775456
1.132488
1.016855
1.095533
0.999570
1.202822
1.028776
1.336932
1.626611
1.912713
2.158880
7.839799
28.988719
106.061697
224.215984
491.140485
754.329562
1015.890837
1015.890837
1015.890837
1015.890837
1015.890837
841.898918
499.084592
302.355886
134.054422
63.875914
19.172430
7.710457
4.519820
4.081726
3.626943
3.459454
3.355742
3.043413
2.945662
2.951622
3.501773
4.323721
6.865859
9.566545
15.674829
21.136999
29.043555
35.579801
41.249990
43.129921
42.495728
40.357709
34.664869
29.229522
21.695495
16.611814
10.940433
7.874966
5.114675
3.663898
2.576709
##ZVALUE=380
0.302792
0.223517
0.236630
0.135899
0.330806
0.319481
0.101924
0.356436
0.322461
0.294447
0.281930
0.301600
0.275970
0.326633
0.301600
0.209808
0.145435
0.243783
0.150800
0.365973
0.325441
0.354648
0.383854
0.340939
0.408888
0.464916
0.447631
0.512600
0.364780
0.545979
0.355840
0.442863
0.457764
0.481606
0.462532
0.444651
0.595450
0.349879
0.539422
0.747442
0.506639
0.637770
0.529885
0.553727
0.501871
0.543594
0.511408
0.576973
0.438690
0.553727
0.526905
0.635982
0.706911
0.656843
0.678897
0.536442
0.548959
0.703931
0.898838
0.793934
0.784993
0.867844
0.904799
1.059771
0.949502
1.083612
1.197457
1.426935
1.577735
1.892447
2.080798
4.230738
16.343594
75.387955
172.701478
398.433805
632.462502
972.318649
1015.890837
1015.890837
1015.890837
1015.890837
950.101614
623.777509
408.169627
194.605589
99.170804
36.213994
12.832880
4.805923
4.100800
3.666878
3.547668
3.344417
3.257990
2.880692
2.794862
2.791882
2.945662
4.175901
5.303621
9.010434
13.260841
20.062923
25.180578
32.721758
37.666559
40.612817
40.972829
38.139820
34.529567
28.066635
22.870898
16.073585
11.871457
7.682443
##ZVALUE=385
0.265837
0.245571
0.221729
0.322461
0.193715
0.342727
0.377893
0.332594
0.262856
0.305772
0.282526
0.429749
0.388622
0.367761
0.293851
0.257492
0.248551
0.270605
0.167489
0.325441
0.472665
0.431538
0.433922
0.183582
0.235438
0.288486
0.369549
0.410676
0.374913
0.456572
0.520945
0.386834
0.361800
0.478625
0.482798
0.450611
0.450611
0.455976
0.514984
0.635982
0.598431
0.516772
0.587702
0.491738
0.504851
0.623465
0.515580
0.583529
0.725985
0.753999
0.615716
0.716448
0.735521
0.659823
0.750422
0.661612
0.895858
0.861883
0.806451
0.790954
0.971556
0.821948
0.932813
0.902414
0.951886
0.991821
1.164675
1.185536
1.246929
1.622438
1.724958
1.697540
2.185702
2.666712
7.665753
39.920807
106.284618
278.952718
484.070778
827.128887
1015.890837
1015.890837
1015.890837
1015.890837
1015.890837
789.563656
548.556447
289.175510
160.080791
61.920881
23.455620
6.054640
3.970861
3.582835
3.558993
3.320575
3.146529
3.082752
2.931952
2.584457
2.541542
2.780557
3.347993
4.941821
6.990433
11.033416
15.679598
21.539927
26.820898
32.914877
36.371946
37.548542
37.239790
33.848882
29.127598
22.887588
##ZVALUE=390
0.169873
0.408888
0.271797
0.296831
0.174642
0.214577
0.227690
0.327826
0.243783
0.200868
0.177622
0.139475
0.131726
0.244975
0.199676
0.233650
0.241995
0.235438
0.339746
0.229478
0.351667
0.460744
0.340939
0.247955
0.410676
0.295639
0.377893
0.293851
0.337958
0.274777
0.483990
0.566840
0.397563
0.408888
0.461936
0.559688
0.431538
0.735521
0.559688
0.755787
0.671744
0.619888
0.701547
0.656843
0.572801
0.737906
0.631809
0.743866
0.642538
0.738502
0.797510
0.774860
0.640750
0.762939
0.843406
0.863671
0.934601
0.745654
0.902414
0.899434
0.786781
0.785589
0.889897
0.826716
0.845790
0.974536
0.971556
1.157522
1.266599
1.487732
1.605749
1.635551
1.815557
1.859665
1.843572
1.813769
4.227757
17.667413
80.228448
183.499455
418.689847
653.088689
972.374678
1015.892029
1015.892029
1015.892029
1015.892029
987.351537
669.198036
434.527993
201.774836
100.395679
32.513738
11.999607
4.679561
3.791451
3.626943
3.498793
3.324747
3.227592
3.134608
2.796650
2.703667
2.586842
2.489686
3.062487
4.198551
6.206632
8.786917
13.111830
17.661452
23.917556
28.326511
32.888651
35.448670
35.037994
##ZVALUE=395
0.369549
0.342727
0.055432
0.250936
0.187755
0.050664
0.100732
0.237823
0.170469
0.214577
0.131726
0.253916
0.271797
0.320673
0.326633
0.335574
0.375509
0.279546
0.233650
0.245571
0.466704
0.230670
0.250936
0.386834
0.277758
0.297427
0.478625
0.382662
0.438690
0.414848
0.473857
0.534654
0.386834
0.474453
0.469685
0.446439
0.617504
0.675917
0.720620
0.760555
0.685453
0.759959
0.719428
0.807643
0.644922
0.797510
0.692606
0.875592
0.773668
0.881553
0.804663
0.787973
0.806451
0.715852
0.777841
0.669956
0.779629
0.817776
0.879765
0.988841
0.942945
0.935793
0.815988
1.031756
0.948906
1.020432
1.073480
1.013875
1.274943
1.323819
1.361966
1.442432
1.451969
1.487732
1.559854
1.316667
1.418591
1.955628
2.772808
9.838939
53.025484
128.545761
302.604437
505.644679
845.385790
1015.890837
1015.890837
1015.890837
1015.890837
1015.890837
837.149024
572.495461
290.670991
151.830912
53.495765
21.641850
6.309748
4.118681
3.719926
3.708601
3.565550
3.433824
3.419518
3.179908
2.898574
2.726912
2.612472
2.424717
2.646446
3.289580
4.861951
6.934404
10.977983
14.913678
21.148920
26.789904
##ZVALUE=400
0.305772
0.384450
0.302792
0.326633
0.413656
0.173450
0.255704
0.240803
0.309944
0.393987
0.296831
0.213981
0.203848
0.276566
0.284910
0.315905
0.159740
0.351667
0.368953
0.323653
0.398755
0.359416
0.207424
0.345707
0.197887
0.278950
0.339746
0.363588
0.366569
0.452995
0.409484
0.318885
0.528693
0.494719
0.600815
0.591874
0.690818
0.564456
0.554919
0.595450
0.803471
0.732541
0.715852
0.664592
0.730753
0.685453
0.800490
0.933409
0.837445
0.881553
0.906587
0.800490
0.833869
0.956655
0.911951
0.917912
0.981688
0.815988
1.004934
0.817776
1.034737
0.722408
0.916719
1.050830
0.980496
0.952482
1.054406
1.237988
1.254678
1.259446
1.142621
1.300573
1.308918
1.338720
1.319647
1.481771
1.228452
1.638532
1.615882
1.716614
2.298951
4.738569
27.177930
75.942874
212.237835
383.492708
702.806711
960.346460
1015.892029
1015.892029
1015.892029
1015.892029
931.080580
670.611858
371.941924
215.973854
89.330673
38.846731
10.279417
4.684925
3.819466
3.543496
3.616810
3.569722
3.536940
3.468990
3.005862
2.977848
2.536774
2.387762
2.304912
2.451539
2.618432
4.125834
5.625486
9.211898
##END
