##TITLE=11-3
##FORMAT=SPECTACLE-ASCII V-1.2
##DATA TYPE=ULTRAVIOLET SPECTRUM
##SECOND TYPE=ULTRAVIOLET SPECTRUM
##DATE=04/11/18
##TIME=11:17:10
##SPECTROMETER/DATA SYSTEM=SPECTACLE
##XUNITS=NM EM
##YUNITS=ENERGY
##YFACTOR=1
##FIRSTX=220
##LASTX=450
##NPOINTS=116
##3DDATA=Equidistant
##ZUNITS=NM EX
##FIRSTZ=210
##LASTZ=400
##ZPOINTS=39
##XYDATA=(Y..Y)
##ZVALUE=210
15.068650
13.824701
12.097955
11.154413
11.038780
10.203719
9.246469
7.548928
7.391572
4.544854
4.499555
3.613830
2.961755
2.904534
3.007650
2.985597
3.262758
3.448725
2.963543
3.033876
2.889633
3.276467
3.306866
3.587604
3.255606
4.185438
4.146695
3.850460
4.537702
4.306436
4.797578
5.586743
5.199909
5.238652
6.676912
6.302595
6.501675
7.599592
7.226467
6.771684
7.092953
7.628798
6.991625
6.938577
8.350611
6.427765
7.065535
7.635951
8.669496
8.174777
7.976890
7.737875
7.947683
8.101463
8.181930
8.673668
8.366704
8.613467
9.190440
8.378625
8.578897
9.189844
7.545948
8.223653
7.859468
7.344484
8.054972
7.834435
8.613467
8.813739
10.714531
12.147427
13.509989
14.504790
15.529990
15.088916
15.709996
16.374588
15.616417
13.647676
14.274716
12.627840
10.582805
10.554790
8.222461
8.294582
7.435679
6.882548
7.067919
9.009838
9.642839
12.839437
16.048551
20.498633
23.945570
30.338764
35.228729
39.818883
42.923689
49.363971
48.970580
50.655603
47.619939
51.372647
47.747493
45.152903
43.956637
35.965443
31.310916
27.022958
23.261905
19.712448
16.514659
14.918447
12.946725
14.359951
##ZVALUE=215
37.595630
36.311746
30.849576
24.551749
20.063519
18.335581
16.414523
16.287565
14.811754
13.493896
11.978745
9.141564
7.550716
6.358624
4.547834
3.303885
3.028512
2.821684
3.264546
3.620982
2.773404
3.632903
3.431439
4.136562
4.830956
4.044771
3.417730
4.131794
4.967451
4.934669
4.984736
5.419850
5.774498
5.971789
6.855726
6.211996
6.594658
7.286668
7.735491
8.574724
7.538795
8.968711
8.906722
8.403659
8.012652
9.085536
9.868741
9.379983
9.715557
8.385777
9.485483
9.585619
9.919405
10.067821
9.525418
10.122657
9.632707
9.879470
10.862947
10.274649
10.182858
10.862947
9.675622
8.983612
9.002686
8.522868
9.489655
9.636879
9.468794
10.590553
10.060668
11.840463
11.538863
12.393594
13.688803
13.575554
12.413859
12.553930
12.764931
12.578964
11.534691
10.889769
9.441972
9.024739
7.809997
7.152557
6.166697
5.844831
5.908608
5.313754
6.051660
5.883574
5.868673
6.002784
8.983612
10.655522
15.335679
20.221472
25.005937
31.113625
37.878752
42.036772
50.681829
60.727000
65.171719
68.240762
68.460703
71.529746
69.688559
64.983964
62.219501
58.231950
54.139495
43.198466
37.551522
30.273795
##ZVALUE=220
77.702999
79.604983
76.259971
67.551732
59.290528
45.095682
33.157468
29.131770
25.148988
26.383996
23.649931
24.175644
23.074746
17.136931
14.512539
10.150671
6.709695
5.773902
4.317760
3.888607
3.732443
3.530979
4.025698
3.563762
4.391670
4.239678
4.160404
4.669428
4.894733
5.394816
5.169511
5.553961
7.093549
5.974770
7.456541
7.757545
8.943677
8.951426
9.000897
9.831786
10.583997
10.275841
10.670424
10.542870
11.206865
10.608435
11.029840
10.920763
10.866523
11.377931
12.485981
12.228489
12.778640
13.169646
14.098883
14.057755
13.541579
14.508963
16.279817
14.148951
13.861656
12.799501
11.274815
12.878776
12.124777
12.617707
12.719631
12.850761
11.906624
11.795759
13.610721
13.216734
13.475418
14.797449
15.730858
15.186667
14.399886
14.873743
14.755726
14.067888
12.158751
10.561943
9.643435
8.785725
8.547902
7.769465
7.871985
6.570816
6.160736
6.091595
6.524920
6.444454
6.399751
5.842447
5.678535
5.824566
6.080866
6.485581
6.472468
9.383559
12.753606
17.809868
24.606586
32.044649
42.141676
54.057837
64.608455
78.317523
89.040995
101.536512
104.230642
112.059712
112.469792
106.408000
105.806589
96.483827
##ZVALUE=225
97.961426
99.335909
124.689937
132.633448
131.576657
122.985840
107.483864
80.746412
63.980818
44.999719
38.786530
37.793517
40.579438
37.980676
37.338734
31.899810
25.672913
19.704700
14.488697
8.855462
7.471442
4.566908
4.493594
4.350543
4.122853
4.951954
5.074739
4.980564
5.299449
5.652905
5.791783
6.557703
7.667542
7.599592
9.124875
9.154677
10.237694
11.336803
11.167526
11.629462
11.882782
12.639761
12.369752
12.388825
13.030767
13.173819
14.765859
13.491511
14.619827
14.549494
15.039444
17.028451
17.377734
16.442537
16.362667
17.386675
16.204715
17.489791
17.934442
15.850663
17.785430
16.167760
16.625524
16.873479
15.210509
13.820529
15.376806
13.482571
14.380813
14.323592
14.929771
16.916990
17.357469
15.786886
16.384721
16.371608
14.513731
14.630556
13.710856
13.275743
11.229515
12.791753
11.276603
10.267496
9.493828
9.656549
7.708669
7.834435
8.438826
7.537603
7.208586
6.314516
7.331967
7.292628
6.033778
7.127523
6.624460
6.777644
6.401539
6.448627
6.326437
5.814433
6.758571
8.459687
10.206699
14.012456
23.760796
35.004616
45.445561
59.179664
71.572661
92.391968
106.522441
129.305720
148.796439
157.994628
##ZVALUE=230
69.725513
68.129897
112.958550
153.443813
188.691616
220.081806
227.229595
216.518641
189.422965
142.543912
109.491944
76.444745
62.114596
58.685541
55.247545
57.760477
60.585737
55.375695
49.598813
38.427711
27.284622
19.774437
12.264848
8.371472
5.858541
5.292892
5.159974
4.974604
6.433725
5.007982
6.321669
6.292462
8.524656
7.845759
8.309484
8.866787
9.991527
10.906458
11.710525
11.422634
12.254715
13.217926
13.467669
12.899637
13.690591
14.407635
13.943911
14.853477
13.568997
14.616847
15.870929
16.953945
17.203689
17.479658
17.949939
15.968680
18.076897
17.967820
17.827749
17.923713
16.572475
16.265512
17.520785
16.396642
16.045570
17.491579
16.757846
13.958812
16.212463
15.971661
16.455650
17.807484
16.958714
17.776489
18.269420
16.821623
15.338659
16.380548
14.679432
13.129711
12.957454
12.603998
12.528896
11.237860
10.356903
9.663701
10.187626
8.567572
8.365512
7.586479
8.368492
8.815527
8.206964
7.679462
8.391738
7.589459
7.365942
6.727576
6.994605
7.455945
7.175803
7.092953
7.437468
6.876588
7.030964
8.119941
7.592440
7.712841
9.162426
13.409853
17.637610
30.607581
43.846965
64.016581
83.957911
111.067891
##ZVALUE=235
22.054911
21.728873
49.058795
88.847876
142.005682
223.440528
280.382633
337.138772
348.266959
343.049765
301.819444
231.004953
172.217488
115.522742
90.951920
75.985789
76.024532
85.500479
87.553859
87.091923
79.883933
65.746903
54.775476
33.469796
24.368763
14.077425
9.655952
7.710457
6.025434
5.818605
6.909966
6.183982
6.448627
7.054806
7.667542
8.616447
9.571910
9.390712
9.581447
11.722445
11.597872
11.110902
11.829734
11.752844
12.192726
11.640787
11.943579
13.159513
11.439919
13.528466
13.918877
13.788939
14.419556
14.736652
15.304685
14.378428
14.411807
14.970899
15.402436
14.818907
15.316606
14.659762
14.346838
15.122890
13.781786
14.944673
14.604926
16.001463
14.245510
15.258789
15.127659
15.574694
18.041730
18.144846
17.713904
19.228458
16.771555
16.367435
15.876889
14.731884
14.780760
13.394952
11.544824
12.882948
10.725856
11.005998
9.781718
9.642839
10.392666
10.672808
8.689761
9.397864
9.288788
8.716583
7.915497
8.391738
8.471608
7.927418
7.994771
8.426905
8.081794
8.118749
8.952618
7.805824
7.991791
8.493662
8.590817
8.559823
8.323789
8.089542
7.454753
7.902980
7.609725
11.361837
15.178919
25.805831
##ZVALUE=240
3.127456
2.553463
7.854700
20.017624
45.294762
102.381706
170.387626
284.541845
364.010930
456.542969
507.602692
506.598949
458.542705
356.689692
287.603736
186.512470
136.387944
100.923777
96.898675
103.275776
112.882853
119.873881
113.527775
100.646615
84.001422
63.316822
47.605634
32.757521
20.408630
13.228655
9.196997
7.163882
6.223917
7.223487
7.827878
8.613467
8.116961
9.585619
8.727908
9.376407
9.445548
10.356903
9.932518
10.876656
10.292530
10.065436
10.585785
11.448860
12.039542
11.253953
11.909604
12.483597
11.493564
11.573434
13.424754
12.795925
11.923909
13.083816
12.702942
12.917519
13.478994
14.247894
13.352633
13.110638
14.118552
13.719797
14.504790
15.487671
13.645887
13.082623
16.363859
16.822815
16.908646
17.895699
17.901659
17.298460
17.741919
16.646981
15.923977
13.684630
14.166832
13.766885
11.679530
12.929440
11.250973
11.858940
11.496544
10.336637
9.239912
10.193586
9.833574
9.242892
8.459687
9.121895
9.710789
10.317564
9.076595
8.966923
9.230971
10.021925
9.033680
10.174513
9.091496
8.955598
8.669496
8.284450
8.107424
10.228753
9.418726
9.545684
8.633733
8.745790
7.769465
8.796453
8.484721
8.742809
##ZVALUE=245
2.303720
1.956820
2.015829
2.367496
3.802776
13.807416
36.296844
93.372464
158.516765
278.393626
382.467508
507.035851
576.442480
594.630837
568.373799
467.278957
384.366512
253.988504
182.496905
117.377639
102.500916
98.909736
109.617710
129.908919
127.633810
121.830702
110.071898
95.008612
71.336627
54.612756
34.482479
22.930503
13.107657
9.783506
7.655621
7.553697
8.312464
8.370876
8.315444
8.968711
8.783937
9.250641
8.806586
10.584593
9.155869
9.645820
10.823607
10.363460
10.020733
10.418892
11.654496
10.947585
11.196733
10.943413
11.574626
10.722876
10.650754
12.098551
12.387633
11.855960
11.226535
11.058450
12.170672
12.240410
11.015534
12.180805
11.990666
11.559725
11.800528
12.415648
13.176799
14.767647
13.544559
14.488697
14.255643
13.948679
14.694929
13.680458
12.920499
13.694763
12.796521
10.890961
10.381937
10.428429
10.055900
10.024905
10.075569
8.336902
9.851456
9.444952
9.102821
8.999705
8.647442
8.716583
8.017421
8.546710
8.331537
7.538795
7.797480
8.267760
8.728504
8.481741
9.122491
8.312464
7.648468
7.494688
7.971525
8.327961
8.582473
8.050799
8.261800
8.318424
8.449554
7.762909
7.655621
7.867813
##ZVALUE=250
1.779795
1.825690
1.856685
1.724958
1.746416
2.208948
2.587438
10.100603
25.627613
71.660876
131.700635
258.102417
374.278426
522.612929
612.772703
678.879619
668.120980
593.764782
510.348678
346.258879
242.176652
143.671632
105.138421
92.919469
102.333426
122.923851
131.797791
138.638616
131.657720
124.268532
98.460913
79.492927
53.796768
39.361715
21.690726
15.371442
10.664463
9.168983
9.133816
10.117888
9.065866
9.950995
10.160804
10.578632
10.067821
11.410713
11.266470
11.286736
11.959672
12.135506
11.289716
11.438727
11.347532
11.495948
11.651516
11.463761
11.935830
11.025667
12.042522
10.943413
10.804534
11.517406
11.055470
10.341406
11.341572
10.777712
11.531711
11.758804
10.989904
11.753440
11.982918
12.248755
12.978911
12.389421
13.602972
13.261437
11.358857
11.716485
11.798739
11.146665
10.087490
10.540485
9.237528
9.582639
8.674860
8.524656
7.998943
7.407665
7.447600
7.060766
7.695556
7.614493
7.229447
6.705523
6.060600
6.066561
7.376671
6.845593
7.346869
7.386804
6.593466
7.125735
6.495714
6.208420
6.754994
6.882548
7.267594
6.649494
6.411672
7.008910
6.899834
6.301999
6.728768
6.643534
6.406903
5.945563
##ZVALUE=255
1.630783
1.582503
1.925826
1.622438
1.829863
1.761913
1.944900
2.038479
2.335906
5.340576
15.321970
51.276684
105.530620
223.877430
331.426859
505.553484
626.748800
740.437508
766.566992
720.132589
632.233024
465.898514
326.837897
186.413527
124.470592
87.116957
85.150599
98.802447
125.449896
137.094855
144.314766
143.588781
127.329826
108.548999
78.620911
60.495734
38.239956
25.917888
16.370416
12.789965
11.503696
10.724664
11.622906
11.625886
11.021495
11.714697
12.428761
12.460947
11.991858
12.596846
12.600422
12.893677
12.522936
13.010502
12.779832
12.453794
12.386441
13.403893
12.442470
12.390614
11.545420
12.140870
11.122823
12.123585
11.430979
12.659431
11.410713
10.814667
10.948777
11.493564
11.961460
11.625886
12.431741
12.927651
12.757778
11.265874
11.360645
10.289550
10.345578
9.663701
9.683967
9.000897
8.594990
7.737875
8.318424
7.259846
7.540584
7.413626
6.654859
6.696582
6.029606
6.503463
6.728768
5.898476
6.807446
6.248951
6.257892
6.033778
6.099939
5.777478
6.476641
6.063581
6.298423
5.776882
6.158948
6.122589
5.810857
6.040931
5.868673
5.868673
5.660653
5.402565
6.207824
5.177855
5.702972
5.700588
##ZVALUE=260
1.641512
1.667738
1.764894
1.480579
1.531839
1.662970
1.483560
1.464486
1.768470
1.743436
1.654625
3.199577
9.195805
34.472942
73.711872
172.767639
276.292562
457.378626
595.940948
771.888494
837.371945
828.964710
751.239657
574.584603
426.898003
254.406929
169.364810
106.431842
76.965690
82.115531
105.094910
124.077797
148.272514
155.369639
150.287747
138.923526
113.873482
89.374781
62.151551
44.443607
28.855801
21.009445
15.550852
14.693737
13.781786
14.686584
13.693571
14.341474
14.091730
14.689565
15.174747
14.741421
14.626980
14.571548
15.071630
13.916492
13.938546
14.647841
13.872981
13.941526
13.282895
13.915896
12.789965
12.403727
12.735724
12.576580
12.298822
12.311935
12.339950
11.213422
11.657476
12.343526
11.579990
11.762977
10.915995
11.340976
10.847449
11.059642
10.019541
9.142756
8.645654
8.836985
8.213520
7.735491
7.439852
7.485747
6.762743
6.784797
6.424785
6.398559
6.159544
5.902648
5.605817
5.741715
5.384684
5.377531
5.301833
5.678535
5.429983
6.243587
5.315542
5.631447
5.127788
5.240440
5.648732
5.122423
5.381703
5.451441
5.318522
5.174875
5.430579
4.785657
4.778504
5.163550
4.877448
5.015731
##ZVALUE=265
1.365542
1.393557
1.211762
1.556873
1.368523
1.485944
1.504421
1.387596
1.468658
1.534820
1.737475
1.572967
1.792908
2.372861
4.466772
20.644665
50.005913
126.017928
222.579837
421.457887
586.271882
744.065642
894.374847
922.579765
842.285752
717.818737
530.830622
372.588634
210.504532
129.964948
86.068511
69.039464
81.469417
114.016533
134.550929
151.194930
161.289573
156.427622
142.165422
115.309954
95.167756
65.422654
48.095584
33.130646
24.082661
19.266605
17.981529
17.466545
18.119812
17.756820
17.703772
16.959906
17.918944
17.207861
17.986894
17.681718
18.201470
17.137527
16.876459
16.670823
16.008615
15.903711
15.353560
14.805794
13.940930
13.812780
14.126897
13.477802
12.984872
13.438463
13.352633
12.944937
13.322830
12.325644
12.857914
12.905598
11.772513
10.975599
10.042787
10.567904
9.498596
9.105802
9.003878
8.051991
7.978678
7.849932
6.745458
6.631613
6.640553
6.160736
6.364584
6.475449
5.866885
5.523562
5.688667
5.877614
5.392432
5.416870
5.266666
5.432963
5.478859
5.408525
5.408525
5.156994
4.657507
5.145669
5.380511
5.106926
4.716516
4.433990
4.722476
5.091429
4.506707
4.777908
4.726648
4.441738
##ZVALUE=270
1.315475
1.286864
1.134872
1.186728
1.686811
1.389980
1.343489
1.421571
1.404881
1.347661
1.553893
1.628995
1.537800
1.557469
1.815557
2.137423
2.563000
10.617971
29.519796
95.168948
179.341435
356.959701
528.032780
758.984685
895.502567
974.313617
957.559943
829.920769
693.601966
474.097729
322.446823
168.187618
102.266669
63.579679
64.313412
89.534521
112.486482
141.212940
162.913799
168.707967
166.708827
145.718455
126.927495
97.545981
73.918700
51.357746
39.177537
27.997494
23.986697
21.427870
20.975471
20.603538
20.151734
20.383000
19.491911
20.387769
20.244718
19.673705
19.405484
19.309521
17.614961
17.492771
18.462539
17.087460
15.981793
15.278459
15.442967
15.475750
14.931560
14.709830
14.196634
13.661981
13.623834
13.450980
13.090968
12.280941
12.500882
11.490583
11.024475
11.035800
10.537505
8.902550
9.561777
8.519888
8.654594
7.819533
7.690787
7.924438
6.701946
6.396770
6.548762
6.659627
6.462932
5.831718
6.028414
5.970597
5.596876
5.370975
5.210638
5.058646
5.123615
5.231500
5.247593
4.738569
5.282760
5.413890
4.939437
5.173683
4.703999
4.903674
4.534721
4.914999
5.079508
4.434586
4.539490
4.419684
##ZVALUE=275
1.171827
1.239777
1.288652
1.108646
1.421571
1.279712
1.236796
1.167655
1.384616
1.236796
1.130700
1.336932
1.540780
1.493692
1.428723
1.764894
1.658797
1.809597
2.163649
4.829764
17.065406
64.222813
136.171579
295.082927
464.668870
692.117810
843.562484
981.751680
1013.720036
939.427614
813.272595
593.189597
419.638753
232.782960
138.368607
71.580410
56.437850
68.865418
89.859962
120.125413
143.257976
160.755515
167.710781
162.352920
148.889422
123.662949
101.741552
73.851943
55.321455
40.402412
31.467676
24.681687
22.453666
21.283627
20.546913
20.721555
20.057559
20.508766
19.924641
19.689798
19.382834
18.487573
18.927455
17.606616
16.705990
17.064810
16.429424
15.728474
15.303493
15.198588
15.650988
14.676452
15.453696
14.091730
14.133453
13.468862
12.596846
12.381673
11.444688
10.691881
10.450482
9.401441
9.343624
8.501410
8.958578
7.825494
8.220673
7.707477
7.534623
6.519556
6.749630
6.309748
6.340742
6.378889
6.005764
6.012917
5.709529
5.298853
5.115867
5.320907
5.453825
5.220771
5.087852
5.332828
4.916787
4.906654
5.123615
4.739761
4.659891
4.749894
4.257560
4.614592
4.520416
4.186630
4.511476
4.590750
##ZVALUE=280
1.075864
1.042485
1.058578
1.158714
1.044869
1.240969
1.264811
1.158714
1.425743
1.345873
1.468658
1.242757
1.372695
1.401901
1.404881
1.476407
1.316667
1.884699
1.707673
1.769662
1.907945
2.871752
10.143518
46.985745
107.191801
237.804651
376.810431
545.130968
769.831538
922.553539
1015.712619
1014.706492
888.927579
726.734996
483.531952
320.865512
166.117549
95.297694
53.305626
50.059557
67.960620
89.153647
116.405487
137.441754
158.697963
162.657499
158.706903
143.254995
119.384527
96.764565
71.278811
54.236650
36.858916
28.899908
23.428798
21.165609
19.557476
19.197464
18.765926
18.786788
18.625855
18.204451
17.304420
17.234683
17.288923
16.182661
16.393661
16.147494
15.499592
14.430881
14.500618
13.808608
13.390779
13.687611
13.178587
12.545586
12.258887
11.492968
11.296868
11.013746
9.759665
9.623766
9.085536
9.288788
8.776784
8.107424
8.369684
7.590652
7.142425
7.145405
6.824732
6.609559
6.356835
6.377697
5.744696
5.741715
5.727410
6.027818
5.526543
5.426407
5.561709
5.425811
5.348921
5.341768
5.593896
5.143881
4.906654
5.333424
4.860759
5.002618
4.749894
4.693866
4.626513
4.132986
4.663467
4.316568
##ZVALUE=285
1.125932
1.012683
0.974536
1.100898
1.088977
1.167655
0.989437
0.998974
1.159906
1.146793
1.127720
1.169443
1.226664
1.317859
1.279712
1.241565
1.268983
1.505613
1.616478
1.419783
1.546741
1.716614
1.883507
2.265573
4.662871
25.093555
61.049461
125.205517
269.366503
429.242849
670.362711
840.382576
1001.608968
1015.712023
975.221992
842.214823
612.469912
424.245000
226.915479
135.324001
63.053966
41.573644
43.643713
57.867765
83.734989
106.374621
130.807757
148.417950
156.093836
154.172778
136.163831
120.241642
91.712475
71.828961
49.568415
36.045909
23.621917
19.877553
17.210841
15.764832
15.596747
15.013814
14.952421
15.019774
14.682412
14.011860
14.061928
13.509989
13.500452
13.234615
13.730526
13.039708
12.604594
12.460947
12.557507
12.113452
11.259913
10.774732
10.026693
9.891987
9.452701
9.333491
8.771420
8.347631
8.029938
7.988811
7.826686
7.587671
7.293820
7.062554
6.640553
6.351471
6.446838
6.540418
6.180406
6.220937
5.533695
5.399585
5.722642
5.794764
5.684495
5.418658
5.337000
5.506873
5.205870
5.324483
5.081892
5.135536
5.423427
5.191565
4.914999
4.717708
4.590750
4.366636
4.244447
4.600883
##ZVALUE=290
1.007915
0.985861
1.188517
1.002550
0.896454
1.012683
1.028776
1.022816
1.009703
1.160502
0.919700
1.197457
1.106858
1.166463
1.231432
1.146793
1.258850
1.263618
1.258850
1.477599
1.502633
1.567602
1.493692
1.843572
1.908541
2.050996
2.740622
7.447600
33.203959
79.834461
193.744898
327.941775
559.924841
750.554800
958.336592
1015.712619
1015.712619
926.472545
703.448653
527.609587
308.719873
184.275508
82.203746
43.519735
28.194785
35.103559
53.545833
72.183609
100.662708
121.935606
141.249895
149.117708
145.112872
133.711696
110.738873
90.547800
62.638521
47.117472
31.255484
22.800565
16.474724
13.881922
12.552738
12.150407
11.594892
11.369586
11.372566
11.385679
11.537671
11.383891
11.404753
11.087656
10.642409
11.312962
10.862947
10.711551
10.059476
9.120703
9.214878
8.652806
8.447766
8.870959
7.968545
8.148551
7.948875
7.529855
7.053614
7.183552
6.867647
7.041693
6.824732
6.241798
6.042719
5.605817
5.963445
5.957484
5.819798
5.779862
5.808473
5.457997
5.306602
5.493760
5.322695
5.453825
5.126595
5.405545
5.383492
5.254745
5.067587
5.003810
4.828572
4.793406
5.095601
4.605651
4.668832
4.500747
##ZVALUE=295
0.974536
0.779629
0.786781
0.946522
0.912547
1.042485
1.020432
0.968575
0.980496
0.960827
1.098514
0.927448
1.070499
1.285672
1.130700
1.018643
1.110435
1.276731
1.335740
1.118779
1.267791
1.295805
1.510978
1.694560
1.651645
1.521707
1.653433
1.893640
2.248883
3.516674
18.707514
52.221417
142.533779
268.473625
497.210622
684.479475
906.636715
1015.712023
1015.712023
1004.477739
820.430517
641.169548
397.379994
246.721506
111.629963
55.629611
24.978518
22.333860
32.887459
45.950413
70.019960
89.949965
116.293430
129.530430
139.620900
137.303472
124.728680
106.670856
82.910657
64.328909
42.603612
29.048920
18.978715
14.193654
11.175871
10.147691
9.523630
9.631515
9.354949
9.135604
9.075999
9.051561
9.531975
9.226799
8.919835
9.083748
9.128451
8.724928
8.504987
7.474422
7.931590
7.707477
7.451773
7.001758
6.855726
7.162690
6.948709
6.652474
6.713867
6.375909
6.218553
5.758405
5.635619
5.689859
5.841851
5.272627
5.457997
5.447865
5.491972
5.457997
5.255938
5.286932
5.234480
5.030632
5.023479
5.226731
5.325675
5.118847
5.165935
5.190969
4.956722
4.981756
4.760623
4.670620
4.490614
4.440546
##ZVALUE=300
0.928640
0.949502
0.870824
1.011491
0.847578
0.653863
0.919700
0.875592
0.839829
1.126528
0.984669
1.067519
1.168847
0.933409
1.011491
1.210570
1.178980
0.946522
1.164675
1.136661
1.136661
1.288652
1.304746
1.368523
1.354814
1.658797
1.436472
1.475811
1.683831
1.823902
1.851916
2.138615
10.152459
34.491420
111.663938
210.894942
414.173007
608.637929
857.383013
996.828675
1015.712023
1015.712023
909.971595
739.794970
489.803553
321.495533
160.652995
86.467862
33.841729
18.991828
19.948483
27.050972
43.277740
60.227513
83.784461
103.193521
123.974681
129.774809
130.108595
119.399428
100.803971
82.821846
58.950782
43.710470
26.117563
18.118620
11.911988
9.388924
8.021593
8.107424
7.424951
7.611513
8.111596
8.047819
7.831454
8.022785
7.554889
6.853938
7.137656
7.475615
7.090569
6.566644
6.336570
6.534457
6.272793
5.982518
6.185770
6.151795
5.894899
5.783439
5.545616
5.525947
5.455613
5.284548
5.670786
5.496740
5.205870
5.651712
4.902482
5.290508
5.179644
5.085468
5.229712
5.243421
5.317926
5.014539
4.951954
4.729629
5.048513
4.897714
5.181432
4.956722
4.978776
4.509687
4.560947
4.789829
##ZVALUE=305
0.948906
0.904799
0.744462
0.924468
0.894666
0.954866
0.997782
0.900626
0.908971
1.006722
0.906587
1.018643
0.863671
0.952482
0.930429
0.881553
1.112819
0.870824
1.003742
1.069903
1.072884
1.133680
1.159906
1.152754
1.202822
1.165867
1.393557
1.434684
1.474619
1.320839
1.677871
1.804829
2.058744
2.000928
5.151629
21.252632
86.056590
183.354616
381.698608
568.379760
820.450783
984.276533
1015.712023
1015.712023
984.819531
823.220015
583.627820
405.314565
212.236643
117.088556
46.998858
22.207499
14.142990
16.601682
25.576949
37.781596
60.146451
76.529980
100.225806
113.706589
123.313665
123.294592
111.662745
97.474456
74.749589
56.983829
37.791729
25.921464
15.581846
11.088848
8.021593
7.719994
7.004738
6.937981
6.535649
6.663799
6.387830
6.286502
6.321669
6.189942
5.875826
6.047487
5.615950
5.902648
6.156564
5.883574
5.898476
5.458593
5.267859
5.415678
5.270839
4.847646
5.088449
5.264878
5.234480
5.084872
5.126595
5.012751
5.124807
4.953742
5.027652
4.764795
4.660487
4.756451
4.657507
4.877448
4.883409
4.849434
4.605651
4.833937
4.817843
4.750490
4.321933
4.566908
4.355907
4.234910
##ZVALUE=310
0.900626
0.855923
0.992417
0.800490
0.791550
0.975728
0.755787
0.736713
0.822544
0.943542
1.100898
0.982881
0.980496
0.872612
1.144409
0.886917
0.973940
0.842810
1.019835
1.047850
1.057982
1.028776
1.228452
1.047850
1.059771
1.054406
1.176000
1.224875
1.381636
1.329780
1.448989
1.513958
1.481771
1.722574
1.871586
2.040863
2.551675
7.303953
44.770837
111.767650
275.050998
455.906987
748.131871
951.906443
1015.712023
1015.712023
1015.712023
969.845653
722.832680
527.651906
305.866599
180.988908
77.825785
36.488771
14.282465
11.802912
15.382767
21.619797
35.072565
48.674941
70.419908
87.642670
105.636716
113.819838
115.747452
108.628869
92.012882
76.332688
52.865744
37.443638
23.290515
16.646981
10.912418
8.410811
6.363988
6.282926
5.756617
5.444884
5.261898
5.277991
5.065799
5.071759
4.929900
5.383492
5.029440
5.118847
5.099773
4.771948
5.120635
4.798770
4.633665
4.797578
4.524589
4.523993
4.454851
4.559755
4.500747
4.349947
4.325509
4.264712
4.479885
4.483461
4.582405
4.599690
4.520416
4.569888
4.411936
4.400611
4.520416
4.804730
4.645586
4.296899
4.412532
4.185438
4.302859
3.951788
##ZVALUE=315
0.874996
0.932813
0.761747
0.888705
0.755787
0.692606
0.916719
0.913739
0.854731
0.910759
0.815988
1.015663
0.978708
0.791550
1.044869
0.957847
0.978708
0.950694
0.818968
1.031756
1.028776
1.051426
0.776649
1.125932
1.261830
1.184940
1.025796
1.236796
1.207590
1.302958
1.365542
1.245737
1.330972
1.423955
1.515746
1.794696
1.773834
1.980662
2.177954
3.757477
14.040470
70.795417
173.533559
404.468775
643.153787
983.389616
1015.712619
1015.712619
1015.712619
1015.712619
874.514580
667.824745
406.317711
249.181986
110.460520
53.055882
18.620491
10.715723
10.804534
13.036728
20.600557
29.724836
46.930909
61.845779
83.966851
98.217726
109.189749
110.506415
100.342631
89.196563
69.263577
53.585768
34.693480
23.943782
14.737844
10.385513
7.088780
5.842447
4.620552
4.655719
4.759431
4.565716
4.628897
4.578829
4.539490
4.439950
4.400611
4.374981
4.413724
4.453659
4.311800
4.275441
4.017949
4.237890
4.182458
3.991723
3.951788
3.920794
4.290938
4.346967
4.267693
4.225969
4.209876
4.283786
4.145503
3.991723
4.114509
4.246831
4.133582
3.976822
3.924966
3.912449
3.519654
3.826618
3.867745
3.636479
##ZVALUE=320
0.770688
0.820756
0.850558
0.854731
0.929832
0.822544
0.814795
0.868440
0.780821
0.927448
0.847578
0.894666
0.907779
0.994802
0.887513
0.969768
0.880957
0.924468
0.865459
0.894666
0.934601
1.039505
1.053810
0.964999
1.125932
0.979900
1.085997
1.033545
1.099706
1.080632
1.101494
1.147985
1.420975
1.261830
1.455545
1.366735
1.672506
1.819730
1.639724
1.992583
2.214909
2.559423
6.287694
34.056902
97.397566
288.334489
494.773984
826.007724
1015.712023
1015.712023
1015.712023
1015.712023
1015.712023
821.538568
512.898564
327.863693
157.635808
79.697967
28.225780
13.630986
8.811951
9.251833
12.239814
17.275810
28.478503
40.410757
59.620738
74.061751
94.155669
100.168586
102.347732
96.179843
81.365705
66.916943
49.259663
36.063790
21.844506
14.844537
8.956790
6.328821
4.865527
4.440546
4.185438
4.083514
3.948808
3.971457
3.805757
3.718734
3.839731
4.036427
3.823638
3.729463
3.523827
3.816485
3.573895
3.813505
3.970861
3.950000
3.837943
3.833771
3.780723
3.826618
3.783703
3.690720
3.825426
3.805757
3.686547
3.515482
3.604889
3.453493
3.797412
3.653765
3.276467
3.535748
3.568530
3.265738
##ZVALUE=325
0.842810
0.923872
0.700951
0.777841
0.932813
0.838637
0.806451
0.877976
0.761747
0.795722
0.861883
0.827909
0.786781
0.963807
0.871420
0.737906
0.734925
0.895858
0.825524
1.025796
1.028776
0.976920
0.873804
0.879765
0.820756
0.977516
1.078844
1.102686
0.893474
0.987649
1.048446
1.151562
1.153946
1.157522
1.265407
1.316667
1.374483
1.510978
1.635551
1.712441
1.717806
2.096891
2.142787
2.229810
4.658699
15.370846
61.554909
143.272877
364.473462
611.168742
981.345773
1015.712619
1015.712619
1015.712619
1015.712619
984.846950
636.822581
416.168571
212.761760
114.302635
42.390823
18.304586
8.845925
7.987618
8.459687
10.854602
17.308593
25.729537
41.596889
56.184530
75.850487
86.682439
96.609592
96.574426
89.293718
78.195930
59.560537
45.292974
29.140711
19.921660
12.201667
8.061528
5.418658
4.658699
4.187822
3.722906
3.363490
3.742576
3.425479
3.276467
3.381968
3.475547
3.615618
3.548861
3.419518
3.445745
3.491640
3.377795
3.426671
3.561974
3.568530
3.547668
3.421903
3.268719
3.505945
3.436804
3.344417
3.377795
3.427863
3.640652
3.400445
3.304482
3.239512
3.202558
3.173947
3.204942
##ZVALUE=330
0.835657
0.724792
0.721812
0.691414
0.827909
0.860691
0.746846
0.763535
0.757575
0.760555
0.886917
0.894666
0.908971
0.850558
0.695586
0.860691
0.747442
0.921488
0.788569
0.890493
0.867844
0.931621
1.047850
1.049638
0.959635
1.006722
1.005530
0.996590
0.934601
0.979900
1.083612
1.055598
1.002550
1.170635
1.327991
1.275539
1.081824
1.274943
1.289845
1.529455
1.348853
1.502633
1.805425
1.794696
2.082586
2.140999
2.840757
7.511973
34.544468
83.986521
223.620534
403.337479
754.837990
1013.128757
1015.712619
1015.712619
1015.712619
1015.712619
883.788466
607.118607
308.152437
163.491964
61.112642
27.928948
10.606647
7.687807
7.264614
7.843971
10.881424
16.247630
27.104616
37.102699
53.490996
66.994429
81.546903
87.778568
88.809729
81.962943
69.936514
57.802796
41.419864
29.700994
18.581748
13.036728
7.989407
5.681515
4.255772
3.827810
3.634691
3.484488
3.466606
3.372431
3.148913
3.314614
3.432631
3.152490
3.212690
3.129840
3.398657
3.348589
3.253818
3.361702
3.514886
3.240705
3.175735
3.371835
3.386736
3.218651
3.056526
3.211498
3.280640
3.018975
3.112555
2.914667
3.043413
2.851486
##ZVALUE=335
0.770688
0.634789
0.530481
0.850558
0.783801
0.900626
0.768900
0.709891
0.795722
0.781417
0.736713
0.857711
0.710487
0.725985
0.903606
0.749826
0.765920
0.854731
0.813603
0.848770
0.987649
0.874996
0.997782
0.896454
0.954866
0.929832
0.892878
0.959635
0.823736
0.874996
1.000762
1.095533
0.943542
1.008511
1.155734
1.083612
1.086593
1.388788
1.143813
1.183748
1.424551
1.486540
1.281500
1.384616
1.526475
1.650453
1.731515
2.009869
2.202988
3.398657
15.737414
44.995546
133.458972
258.201957
535.385013
800.275803
1015.712619
1015.712619
1015.712619
1015.712619
1015.712619
805.225968
451.460481
257.547498
98.584890
42.256713
14.078617
7.909536
6.461740
6.632805
7.452965
9.955764
15.773773
23.258924
35.438538
46.676993
64.391494
74.553490
82.730651
83.424449
76.097846
67.938566
53.378940
41.880608
27.752519
20.180941
12.221932
8.250475
5.208850
4.424453
3.402829
3.027916
3.107786
3.050566
3.098845
3.015995
3.034472
3.150702
2.918839
2.840757
3.139973
3.013611
3.131628
2.977848
3.158450
3.010631
2.990961
2.868772
3.046989
2.965927
2.936721
3.010631
3.097653
3.224611
2.792478
2.792478
##ZVALUE=340
0.725985
0.655651
0.655651
0.529885
0.663996
0.763535
0.833869
0.754595
0.585914
0.699759
0.712872
0.768900
0.763535
0.695586
0.803471
0.728965
0.784993
0.701547
0.802875
0.780821
0.957847
0.866652
0.797510
0.843406
0.867844
0.811815
0.944734
0.915527
0.928640
0.869632
0.886917
0.845790
0.873804
1.016855
1.122952
1.060963
1.116991
0.866652
1.199841
1.148582
1.012683
1.044869
1.297593
1.251698
1.291633
1.336932
1.532435
1.514554
1.579523
1.832843
1.995564
2.526641
9.439588
28.760433
92.106462
186.603665
399.522781
601.717830
907.596946
1015.712619
1015.712619
1015.712619
1015.712619
901.665688
565.391779
344.051719
145.807862
65.922737
17.889738
8.709431
6.776452
6.436706
6.493926
7.112622
9.798408
13.540983
23.144484
32.810569
47.575831
58.845878
70.983768
75.554848
77.076554
72.322488
62.971711
52.686930
39.063692
29.223561
18.214583
12.459755
7.441640
5.384684
3.756881
3.467798
3.207922
2.994537
2.892613
2.827644
2.733469
2.908707
2.846718
2.839565
2.754927
2.728701
2.746582
2.926588
2.905726
2.874732
2.894998
2.931952
2.735853
2.701879
2.853870
2.582669
2.557635
2.577901
##ZVALUE=345
0.741482
0.689626
0.756979
0.696778
0.778437
0.802875
0.673532
0.639558
0.819564
0.486970
0.752807
0.655651
0.667572
0.781417
0.697970
0.738502
0.793934
0.558496
0.920892
0.744462
0.695586
0.902414
0.657439
0.750422
0.911951
0.855923
0.789762
0.851750
0.928640
0.971556
0.872612
0.977516
0.835657
0.907779
0.828505
1.016855
0.855923
1.017451
1.029968
1.070499
1.187921
1.031756
1.029968
1.176596
0.996590
1.108646
1.269579
1.296997
1.311898
1.273751
1.568794
1.565814
1.630783
2.034903
4.325509
14.847517
60.352683
123.349428
268.475413
422.706008
675.053596
866.852999
1015.712023
1015.712023
1015.563607
881.093740
620.144606
406.104922
186.036825
89.379549
28.240681
11.609793
6.871819
5.931854
5.762577
5.790591
6.098747
7.806420
12.845993
18.888712
30.629635
40.226579
52.708983
61.801672
69.191456
70.722699
67.464709
61.035752
48.796535
39.367676
27.219653
19.490719
11.927485
8.072853
4.947782
3.983974
3.208518
2.906919
2.919436
2.676845
2.725720
2.560616
2.699494
2.681613
2.626777
2.517700
2.808571
2.576709
2.618432
2.564788
2.361536
2.673864
2.404451
2.549887
2.561808
2.476573
##ZVALUE=350
0.698566
0.786781
0.495911
0.647902
0.681877
0.812411
0.689626
0.725985
0.677705
0.721812
0.528693
0.957847
0.675917
0.677705
0.600815
0.821948
0.721812
0.875592
0.793934
0.719428
0.726581
0.707507
0.638962
0.818968
0.751615
0.704527
0.675917
0.775456
0.858903
0.996590
0.999570
0.836849
0.937581
0.947714
0.845790
0.785589
0.902414
0.865459
0.943542
0.905991
0.828505
0.981688
0.992417
0.921488
1.173615
0.925660
1.016855
0.923872
1.127720
1.196861
1.188517
1.148582
1.450777
1.633763
1.727939
1.571774
2.490878
7.736683
33.192635
77.331662
190.252662
327.761769
548.622608
710.680485
886.108875
951.714516
916.388631
803.657770
568.079948
386.055708
198.427439
109.711885
41.695833
16.678572
6.452799
5.618930
5.060434
4.785657
4.665852
5.179644
7.443428
10.578632
17.319918
24.561882
36.434531
45.433640
56.900978
61.974525
64.950585
63.738823
56.192875
48.156977
35.558939
27.282834
17.379522
12.426972
8.097887
5.473495
3.793836
3.188848
2.726912
2.690554
2.527833
2.698898
2.621412
2.382994
2.410412
2.435446
2.438426
2.709627
2.382994
2.379417
2.448559
2.343655
2.312660
2.286434
##ZVALUE=355
0.705719
0.644922
0.646710
0.711679
0.546575
0.660419
0.641942
0.751615
0.652671
0.657439
0.729561
0.617504
0.858903
0.788569
0.760555
0.763535
0.722408
0.812411
0.699759
0.589490
0.744462
0.718832
0.769496
0.821948
0.755787
0.768900
0.769496
0.662804
0.810623
0.804663
0.806451
0.897646
0.708699
0.787973
0.807643
0.899434
0.777841
0.747442
0.931621
0.818968
0.825524
0.960827
0.865459
1.022816
0.891685
1.165867
1.116991
1.032948
1.026988
1.096725
1.025796
1.180768
1.057982
1.298785
1.177788
1.315475
1.496673
1.635551
2.035499
3.710985
18.735528
50.528646
133.748651
236.310959
436.915755
595.662594
775.802732
863.824487
862.304568
775.067806
596.792698
433.767438
235.688686
129.942894
53.662658
23.288727
8.038878
5.377531
4.793406
4.444718
4.259944
4.324913
4.964471
5.994439
9.644628
13.915896
22.151470
29.965639
41.994452
49.044490
55.914521
58.044791
57.225823
52.591562
43.297410
36.058426
25.767684
19.417405
12.998581
9.212494
5.478859
3.930926
3.231764
2.965927
2.495646
2.536774
2.221465
2.411604
2.126694
2.176762
2.391934
2.167821
2.256632
2.351999
2.087951
2.052784
##ZVALUE=360
0.675917
0.618696
0.644922
0.765920
0.661612
0.651479
0.624657
0.636578
0.790954
0.707507
0.718832
0.754595
0.820756
0.634789
0.729561
0.824928
0.756979
0.730753
0.865459
0.717640
0.689626
0.674725
0.794530
0.869632
0.832677
0.881553
0.793934
0.838637
0.832677
0.723600
0.683665
0.800490
0.711679
0.836849
0.754595
0.696778
0.874996
0.809431
0.871420
0.758767
0.955462
0.923872
0.922680
0.886917
0.860691
0.914931
0.837445
0.990629
1.099706
1.083612
1.180768
1.019835
1.195669
1.082420
1.146793
1.205802
1.393557
1.293421
1.343489
1.488924
1.880527
2.140999
8.509755
26.464462
87.413788
166.814923
329.557657
487.504005
703.218579
814.473629
857.727528
813.786983
642.774701
488.559008
300.133824
178.026557
73.802471
32.392740
9.785891
5.543828
4.686713
4.479885
4.377961
3.686547
3.948808
3.957748
5.191565
7.280707
11.835694
16.710758
25.814772
33.408403
43.009520
48.746467
52.962899
52.831769
49.429536
44.541955
35.849810
28.866529
20.079613
14.250875
8.425713
5.944967
4.100800
3.256798
2.810955
2.509952
2.376437
2.263784
2.138615
2.153516
2.068877
2.140999
2.068877
1.928806
##ZVALUE=365
0.718832
0.717640
0.706911
0.626445
0.668764
0.648499
0.638962
0.652671
0.673532
0.807643
0.820756
0.662804
0.595450
0.667572
0.642538
0.642538
0.686646
0.793934
0.717640
0.689626
0.668764
0.658631
0.712872
0.825524
0.640750
0.747442
0.687838
0.736713
0.766516
0.640750
0.739694
0.781417
0.786781
0.706911
0.805855
0.848770
0.768900
0.788569
0.757575
0.889897
0.912547
0.701547
0.890493
0.990629
0.899434
0.923872
0.904799
0.990629
0.999570
0.981688
1.068711
1.094937
0.996590
1.188517
0.971556
1.093745
0.982881
1.250505
1.299977
1.196861
1.530647
1.502633
1.718998
1.932979
3.928542
13.514757
52.989721
113.658905
260.175467
410.801768
618.757606
745.109916
842.327476
839.729905
715.835690
569.956899
357.366800
216.691494
95.734596
45.374632
15.081763
6.942749
4.874468
4.471540
4.130602
3.834963
3.426671
3.582835
3.597736
4.498959
6.289482
9.321570
14.765859
20.919442
29.245615
36.677718
43.968558
47.448874
48.950911
47.629476
42.554736
36.406517
26.989579
21.665692
14.129877
8.846521
6.333590
4.214644
3.469586
2.810955
2.447963
2.331734
2.147555
2.012849
1.928806
1.902580
##ZVALUE=370
0.616908
0.536442
0.583529
0.553727
0.573993
0.685453
0.555515
0.735521
0.667572
0.633597
0.782609
0.715852
0.672936
0.641942
0.683665
0.527501
0.562668
0.617504
0.665784
0.724792
0.821948
0.642538
0.731945
0.732541
0.668764
0.723600
0.690818
0.767708
0.604987
0.880957
0.703931
0.673532
0.744462
0.735521
0.790954
0.731945
0.741482
0.810623
0.649691
0.661612
0.659823
1.046658
0.928640
0.940561
0.873804
0.720620
0.761747
0.848770
0.862479
0.864863
0.997782
0.932813
0.905991
1.091957
1.033545
1.034737
1.204610
1.007915
1.061559
1.097918
1.113415
1.182556
1.478791
1.511574
1.554489
1.610518
2.489686
7.700920
37.129521
86.709857
193.623900
320.780873
528.434515
671.598911
802.140832
836.559534
772.635937
648.104548
444.276929
294.156671
140.949488
73.594451
25.896430
10.417700
4.731417
4.183650
3.884435
3.467798
3.376603
3.222823
3.028512
3.167987
3.853440
5.551577
8.510947
12.006760
18.305779
24.165511
32.234788
38.182735
44.289827
46.169758
44.722557
41.053891
33.739805
28.220415
20.748973
15.528798
9.989738
7.373691
4.763603
3.440976
2.586842
2.301931
2.219677
1.893640
##ZVALUE=375
0.608563
0.769496
0.595450
0.523925
0.753999
0.671744
0.667572
0.617504
0.770688
0.724792
0.521541
0.570416
0.685453
0.652671
0.702739
0.695586
0.512600
0.712872
0.610948
0.728965
0.505447
0.673532
0.658631
0.741482
0.706911
0.710487
0.600815
0.698566
0.759959
0.720620
0.557899
0.679493
0.821948
0.919700
0.902414
0.771880
0.589490
0.758767
0.807643
0.666976
0.636578
0.718832
0.854731
0.786781
0.887513
0.819564
0.874996
0.873804
0.869632
0.772476
0.808835
0.776649
0.947714
0.943542
0.777841
0.864863
0.856519
0.969768
0.986457
0.894666
1.019835
1.085997
1.080632
1.131892
1.078844
1.223683
1.347661
1.536608
1.922846
4.177690
21.535754
53.610802
137.623549
245.055556
430.978537
581.435561
745.787024
808.234811
781.080723
687.782764
512.959957
367.228985
204.858780
116.846561
46.849847
20.007491
6.197691
4.069805
3.754497
3.509521
3.281832
3.039837
2.922416
3.034472
3.136992
3.343821
4.601479
6.254911
9.911656
14.260411
21.664500
28.102994
34.878850
40.345788
43.642521
43.425560
40.428638
34.451485
29.246807
22.875667
17.402768
11.650920
8.350611
5.347729
3.849864
2.767444
##ZVALUE=380
0.640750
0.619888
0.735521
0.567436
0.513792
0.584722
0.488758
0.436902
0.514984
0.752807
0.534654
0.638962
0.660419
0.725985
0.703931
0.620484
0.603795
0.631809
0.565648
0.699759
0.615716
0.734925
0.640750
0.713468
0.789762
0.482798
0.672936
0.635982
0.675917
0.733733
0.639558
0.663996
0.643730
0.850558
0.931621
0.787973
0.758767
0.600815
0.705719
0.652671
0.709891
0.726581
0.813603
0.804663
0.786781
0.750422
0.733733
0.865459
0.673532
0.739694
0.872612
0.790954
0.848770
0.846982
0.737906
0.829697
0.905991
0.798702
0.962615
0.910759
0.976920
1.049638
1.032948
1.111627
1.058578
1.277924
1.230836
1.227856
1.365542
1.463890
1.776814
2.586842
11.068583
34.920573
102.826953
194.579959
378.903747
539.346933
716.311932
800.970793
806.726813
731.630921
565.910935
427.709818
252.250433
150.061846
63.834786
28.886795
8.590817
4.637837
3.792644
3.554821
3.347993
3.105998
3.013611
2.850890
2.910495
2.807975
2.971888
3.841519
5.805492
8.437634
13.286471
18.129945
25.574565
32.683611
37.269592
40.611625
41.391850
39.143562
35.644770
29.354692
24.418831
17.025471
12.465715
8.296967
##ZVALUE=385
0.618696
0.584722
0.799894
0.673532
0.790954
0.522733
0.730753
0.721812
0.744462
0.634789
0.590682
0.692606
0.476837
0.609756
0.787973
0.490546
0.702739
0.605583
0.557899
0.614524
0.593662
0.784993
0.685453
0.668764
0.651479
0.572801
0.551939
0.493526
0.572801
0.652671
0.695586
0.534654
0.633597
0.625849
0.627637
0.804663
0.707507
0.704527
0.870824
0.793934
0.896454
0.841618
0.744462
0.849962
0.861883
0.775456
0.782609
0.897646
0.799894
0.749826
0.851750
0.882745
0.908971
0.945926
1.028776
0.932813
0.901818
0.784993
1.123548
0.956655
0.883937
1.018643
0.961423
1.040697
1.111627
1.004934
0.936985
1.143813
1.294613
1.166463
1.494884
1.359582
1.722574
1.777411
5.054474
18.332601
70.860982
148.734450
305.814743
448.550582
630.801916
738.651752
793.092847
760.491490
636.354685
504.897833
320.085883
203.421712
93.931556
44.514537
13.311505
5.789995
3.738999
3.365874
3.432631
3.413558
3.215671
2.989769
2.787709
2.754927
2.464652
2.859831
3.345609
4.330873
6.748438
11.217594
15.661716
22.022724
26.799440
32.270551
35.515428
38.207769
37.377477
33.926964
30.117631
24.165511
##ZVALUE=390
0.630617
0.631809
0.460744
0.574589
0.574589
0.556707
0.605583
0.685453
0.677705
0.634789
0.641942
0.691414
0.676513
0.614524
0.650883
0.579953
0.576973
0.634789
0.598431
0.591874
0.740886
0.656843
0.766516
0.684857
0.630617
0.796914
0.792742
0.674725
0.738502
0.742674
0.674725
0.679493
0.721812
0.815988
0.959635
0.870824
0.944734
0.996590
0.866652
0.845790
0.906587
1.017451
0.879765
0.945926
0.956655
0.884533
0.873804
0.842810
0.879765
0.765920
1.028776
0.788569
0.848770
0.987649
0.944734
0.876784
1.022816
0.881553
0.960827
1.002550
0.937581
0.950694
0.955462
0.918508
1.018643
0.971556
1.168847
1.129508
1.223683
1.272559
1.279712
1.392961
1.381636
1.575947
1.650453
1.574755
2.465844
10.098815
46.792626
107.134581
245.401859
381.272435
568.941832
697.194934
801.458955
806.233883
713.087916
599.781871
411.813855
278.153419
143.007636
73.782802
24.763942
9.696484
4.200935
3.681779
3.582835
3.330708
3.305674
3.184676
3.168583
2.836585
2.851486
2.655983
2.683997
2.894998
4.186630
6.038547
8.766651
12.238622
18.115640
22.758842
28.883815
32.883883
35.445690
35.772920
##ZVALUE=395
0.617504
0.528693
0.532866
0.563860
0.614524
0.665784
0.654459
0.798702
0.539422
0.512600
0.673532
0.626445
0.632405
0.595450
0.488758
0.491738
0.490546
0.626445
0.676513
0.618696
0.637770
0.728965
0.503659
0.533462
0.630617
0.755787
0.688434
0.494719
0.716448
0.687838
0.574589
0.742674
0.714660
0.694990
0.821948
0.838637
0.906587
0.811815
0.851750
0.883937
1.057982
0.977516
0.961423
0.876784
0.978708
0.962615
0.939965
0.757575
0.844598
0.847578
0.857711
1.037717
0.992417
1.030564
0.794530
0.910759
0.742674
0.909567
1.060963
0.853539
0.901818
0.982881
0.865459
1.041889
0.905991
1.113415
1.093745
1.061559
1.218915
1.149774
1.189709
1.387596
1.242757
1.386404
1.399517
1.201630
1.418591
1.593828
2.031922
5.759001
27.926564
70.883632
172.264576
289.371610
484.156609
632.864833
779.865980
829.707980
786.979795
677.298903
482.141972
335.244536
177.161694
96.679926
38.806796
16.378760
5.572438
3.719926
3.420711
3.515482
3.370643
3.475547
3.273487
3.145933
3.017783
2.623796
2.620816
2.342463
2.715588
3.508925
4.655719
7.295609
9.891987
15.211701
19.885898
25.964975
##ZVALUE=400
0.729561
0.623465
0.654459
0.622869
0.439882
0.691414
0.621676
0.628829
0.648499
0.637770
0.681877
0.615716
0.542998
0.581741
0.455976
0.666976
0.618696
0.509620
0.681877
0.632405
0.691414
0.651479
0.731945
0.552535
0.576973
0.572801
0.589490
0.648499
0.792742
0.625849
0.733733
0.708699
0.734925
0.857711
0.967979
0.910759
0.769496
0.827909
0.786781
0.906587
0.998974
0.943542
0.772476
1.139641
0.899434
0.912547
0.802875
0.946522
0.836849
1.011491
0.885725
0.775456
0.907779
0.964999
0.846982
0.932813
0.940561
0.909567
0.838637
0.924468
0.919700
0.831485
1.082420
1.072884
0.894666
1.073480
1.238585
1.102686
1.215935
1.197457
1.189709
1.153946
1.411438
1.134872
1.368523
1.321435
1.192689
1.224875
1.388788
1.671910
1.554489
2.988577
14.541745
41.245818
117.973685
216.040611
397.910476
549.458861
729.106665
805.343986
805.125833
721.760988
549.511909
399.985909
227.257609
135.105848
57.788491
26.663542
8.161664
4.381537
3.534555
3.329515
3.428459
3.412962
3.485680
3.188848
3.294945
3.091693
3.024936
2.623796
2.345443
2.480745
2.773404
4.068613
5.792975
9.153485
##END
