##TITLE=12-1
##FORMAT=SPECTACLE-ASCII V-1.2
##DATA TYPE=ULTRAVIOLET SPECTRUM
##SECOND TYPE=ULTRAVIOLET SPECTRUM
##DATE=04/11/18
##TIME=10:59:10
##SPECTROMETER/DATA SYSTEM=SPECTACLE
##XUNITS=NM EM
##YUNITS=ENERGY
##YFACTOR=1
##FIRSTX=220
##LASTX=450
##NPOINTS=116
##3DDATA=Equidistant
##ZUNITS=NM EX
##FIRSTZ=210
##LASTZ=400
##ZPOINTS=39
##XYDATA=(Y..Y)
##ZVALUE=210
14.318824
14.674664
11.907816
10.415912
10.067821
10.224581
9.213686
7.862449
7.105470
5.969405
4.311800
3.207922
3.048778
2.615452
2.380610
3.337860
2.521873
2.834797
3.289580
2.862811
3.270507
3.422499
3.523827
3.418922
3.587604
4.496574
3.648996
4.186630
3.964901
4.596710
4.404783
4.285574
4.758835
5.383492
5.147457
4.826784
4.845858
5.900860
5.529523
5.899668
6.243587
6.222725
6.065965
7.079840
5.947948
7.299781
5.684495
6.355643
6.676912
7.218719
6.305575
7.721782
7.293820
7.357597
7.519722
6.807446
6.762743
7.384419
8.088946
6.842613
6.387830
6.768703
7.337928
6.403923
6.031990
6.783605
6.965995
6.780624
7.459521
8.061528
9.776950
10.173917
11.265874
12.901425
13.494492
12.249947
13.138652
13.143420
13.562441
11.443496
9.900928
10.620952
9.805560
8.222461
7.553697
6.425977
5.513430
6.122589
6.742477
6.713867
9.250641
12.308955
15.664697
20.047426
24.408698
29.405951
34.444928
37.245750
44.828653
46.189427
49.788952
51.458478
53.578615
47.378540
48.811436
42.097569
40.459633
39.760470
32.631755
28.368831
25.174618
19.494891
16.629696
13.550520
13.946891
12.579560
##ZVALUE=215
40.850639
40.115714
30.597448
24.693608
20.797849
18.030405
16.247630
16.214848
14.973879
13.591647
10.842681
9.787679
6.555915
5.045533
4.196763
3.601909
2.944469
2.243519
3.213882
3.595948
3.028512
2.991557
3.635883
4.017949
3.562570
3.341436
4.221797
4.456639
3.969669
4.132986
5.017519
5.672574
5.603433
5.499721
4.828572
5.410910
6.281734
5.258918
6.891489
6.051660
6.153584
6.056428
7.110834
6.144643
7.739663
6.324649
6.255507
7.396936
7.670522
8.046627
8.077621
8.683801
8.833408
8.842945
9.528995
8.531809
8.539557
8.895993
8.018613
8.222461
7.221699
9.532571
8.272529
7.631779
7.935762
7.282495
8.158684
7.886887
8.560419
9.126663
9.483695
10.935664
11.710525
12.274981
13.850927
11.309981
12.714863
11.754632
12.065768
9.546876
9.762645
9.675622
7.831454
7.439852
7.387996
6.721616
4.693866
5.248785
5.051494
4.421473
5.482435
5.339980
5.424619
6.162524
7.418990
10.621548
14.848709
20.600557
26.740432
32.036901
40.521622
48.989654
55.641532
60.247779
67.700744
71.279407
71.847439
74.092746
70.534945
70.917606
65.704584
58.703423
54.834485
47.155619
38.453937
30.262470
##ZVALUE=220
78.163743
78.641772
73.586702
67.207813
59.774518
44.336915
36.690831
29.466748
25.675893
25.082827
23.202896
22.714734
22.024512
18.233657
14.036894
9.963512
8.612871
5.387664
3.600717
3.623962
3.330708
3.731847
3.412962
4.478693
3.358722
4.405975
3.990531
4.115701
4.368424
4.222989
5.353689
6.165504
5.276799
6.387830
5.252957
6.600618
6.441474
6.338954
8.075833
6.862879
7.399917
7.308722
8.318424
6.702542
7.602572
8.157492
7.758737
8.082986
9.825826
8.331537
9.858608
9.190440
10.693669
11.874437
11.054873
12.369752
11.345744
10.306835
12.017488
10.288954
11.894703
10.736585
9.932518
10.494590
9.342432
7.684827
9.522438
9.250641
9.841919
10.101795
11.579990
11.261702
12.279749
13.876557
13.554692
13.647676
12.248755
12.308955
12.440681
12.455583
10.000467
9.419918
8.475780
7.534623
7.121563
6.792545
6.015897
5.628467
5.221963
5.955696
5.551577
5.247593
5.138516
5.312562
4.482865
4.690886
5.359650
5.720854
6.024837
7.963777
13.701916
15.201569
25.141835
31.479001
42.405725
50.933957
64.712763
80.870986
87.016821
100.383759
106.519461
113.428831
117.480755
115.777850
111.629963
102.725625
##ZVALUE=225
99.787712
106.821656
123.382807
131.668448
138.578415
122.029781
105.699897
78.500509
58.654547
47.040582
38.194656
38.795471
38.033724
37.452579
36.218762
32.135844
25.613904
20.561814
15.994906
9.692907
6.348491
5.295873
4.566908
4.134774
3.883839
4.855990
3.792644
4.875660
5.445480
4.487634
5.143881
5.177855
5.480647
5.852580
6.444454
7.647872
7.621646
7.033944
6.807446
6.994605
9.063482
7.497668
8.271933
8.603930
8.223653
8.146763
9.687543
10.395646
10.266900
9.794831
10.692477
11.078715
13.987422
13.302565
12.980700
13.122559
13.664961
12.352467
12.783408
14.025569
13.772845
12.739897
12.386441
11.932850
11.634827
12.131929
11.504889
10.176897
11.479855
10.937452
11.378527
12.862682
12.354851
13.104677
13.547540
14.088750
12.431741
12.143850
11.133552
11.198521
9.570718
9.226799
8.525848
8.107424
7.204413
7.587671
6.353855
6.267428
6.356835
6.479621
7.072687
6.836653
5.941987
6.647706
5.579591
4.864931
5.244613
5.634427
5.413890
5.298853
4.970431
5.359650
5.832911
7.529855
11.924505
16.458631
22.476912
34.154654
44.866800
62.470436
74.054599
102.213621
109.995604
136.041641
149.548650
157.460570
##ZVALUE=230
66.610575
73.787570
115.667582
151.965618
193.210840
222.943425
226.484537
213.318467
181.963444
136.325955
105.901957
71.781874
60.192943
53.242445
58.775544
59.045553
59.296489
54.636002
46.378970
37.785769
28.226972
21.843910
11.734962
8.785725
5.292892
4.816651
4.891753
4.963875
5.480647
5.704761
6.034970
5.795956
5.554557
5.974770
5.802512
7.190704
7.728934
7.638931
8.066893
8.521676
7.856488
8.808970
8.970499
8.848906
9.332895
10.761619
9.981990
9.817481
11.650920
11.974573
12.722611
12.817979
12.854934
13.434887
12.353659
13.386607
13.351440
14.195442
14.281869
13.405681
13.450980
12.904406
13.788939
13.095737
12.982488
12.756586
11.674762
11.259913
12.968779
13.909936
11.566877
13.919473
13.723969
14.024973
15.186667
14.607906
14.672875
13.237596
12.518764
11.142492
11.203885
10.216832
10.496974
8.133650
8.797646
8.905530
8.388758
7.574558
7.277727
8.116961
6.579757
7.623434
7.360578
7.788539
6.569624
7.256866
6.128550
5.492568
6.645918
6.841421
6.865859
7.484555
6.348491
6.303787
5.852580
6.681681
6.257892
7.600784
9.041429
12.496710
19.846559
31.328797
39.471984
63.013434
83.205700
110.790730
##ZVALUE=235
18.972754
22.315979
49.402714
91.992617
149.344802
225.151777
279.572606
344.688892
365.251899
346.731544
297.739506
228.843689
176.208615
115.817785
93.475580
77.153444
78.095794
83.302855
90.002418
88.035464
80.323815
130.564570
51.056743
40.539503
21.089911
14.487505
9.023547
6.431937
7.028580
5.622506
5.505681
5.573630
5.973577
6.278753
7.239580
7.132888
7.501841
8.187890
7.297993
7.756948
8.811951
8.900762
9.051561
8.422732
9.673834
9.534955
9.168983
10.783672
10.047555
10.880828
11.280775
10.574460
10.915995
11.770725
11.835694
11.251569
12.474656
12.633801
11.852980
13.324618
12.746453
11.007786
11.533499
11.503696
11.264682
11.596680
13.288856
12.252927
11.500716
12.184978
14.022589
14.039874
15.691519
14.303923
15.148520
14.861822
15.098453
14.454722
12.775660
13.644695
12.312531
10.403991
11.672974
10.917783
9.929538
10.174513
9.755492
8.706450
7.711649
8.516908
8.083582
8.786917
8.611679
7.046461
7.147789
8.038878
8.412600
7.226467
7.084608
8.089542
6.513596
6.653666
6.853938
7.712841
7.515550
7.571578
6.973743
7.722974
7.028580
7.516742
6.705523
7.971525
7.317662
9.882450
13.775826
24.218559
##ZVALUE=240
2.475977
2.538562
8.180737
21.169782
43.980479
99.536777
170.867443
277.310610
363.854766
464.546680
503.828526
488.934517
446.838737
346.005559
271.665454
179.504752
129.371881
97.126961
92.560649
107.375979
110.367537
123.069882
118.149519
98.214746
83.619952
61.181784
46.182871
32.977462
18.687844
11.171699
7.508993
7.117987
7.162690
6.140471
6.605983
7.278919
6.060600
7.180572
7.265806
8.081794
8.234978
8.010864
8.945465
8.939505
9.694695
9.182692
9.299517
10.530949
9.545684
11.055470
10.854602
9.891987
11.018515
10.538697
11.804700
12.012720
10.897517
11.277795
10.835528
10.297894
10.714531
12.119412
10.745525
11.005998
12.056828
12.040734
11.454821
11.922717
11.635423
12.310743
13.087988
14.973879
14.221668
14.012456
16.198754
15.950799
14.887452
14.367700
14.615655
13.839602
13.334751
12.102723
11.925697
12.448430
10.809898
9.954572
9.252429
9.684563
9.707808
8.510947
9.006858
7.838607
8.957982
7.278919
7.827878
7.870793
8.178949
8.502603
6.863475
8.415580
7.195473
7.514954
7.395744
8.224845
7.651448
7.507801
7.875562
7.992983
7.993579
7.594824
6.888509
7.732511
7.653832
7.016659
7.108450
7.809997
##ZVALUE=245
1.738667
1.771450
2.019405
1.927614
4.528761
14.841557
35.042763
89.398623
155.653954
274.720788
379.136801
503.891706
574.447513
585.042834
551.481843
457.387567
365.881920
244.846940
176.329613
114.276409
100.541711
98.868608
110.553503
123.943686
126.404762
124.755502
112.330914
92.022419
66.511631
51.667690
31.722784
21.710992
12.485981
9.574890
7.144809
6.891489
6.929636
7.745624
8.157492
8.082986
8.052588
8.435845
8.508563
8.908510
8.588433
8.872747
9.773970
9.609461
9.754896
10.216832
9.894967
9.358525
8.639693
10.238886
10.512471
10.254979
9.111762
9.152889
9.167790
9.642839
9.907484
9.273887
10.026693
10.405779
9.517670
10.048747
9.739995
10.229945
10.203719
10.171533
10.716915
12.222528
12.469888
12.841821
12.577772
13.313890
11.950731
12.627840
10.739565
10.032654
10.855794
10.794997
9.610653
9.120703
8.405447
7.972717
7.611513
7.924438
8.400679
7.584691
7.442832
7.156730
7.548928
7.172823
7.216930
6.642938
6.747842
7.151961
6.707907
7.277727
7.095933
7.076859
7.115602
6.706715
7.217526
7.235408
7.465482
7.132888
5.851984
7.288456
6.491542
7.419586
7.189512
6.835461
7.455945
6.664991
##ZVALUE=250
1.580715
1.870990
1.595616
1.817942
1.801848
2.085567
2.453923
9.011626
25.276542
70.297718
130.705833
258.027911
367.530584
512.539744
601.919889
660.749674
654.906034
575.268865
484.563708
337.406993
234.316587
142.971873
102.189779
91.084838
102.311969
120.225549
134.407878
137.537718
134.099722
122.298002
97.898841
77.173710
52.510500
35.181642
19.537807
13.972521
8.947849
7.374883
8.147955
8.298755
7.957816
8.630753
8.821487
8.743405
9.133816
9.373426
8.915663
9.864569
9.126663
9.449720
9.488463
9.682775
9.827614
9.227991
9.194613
9.488463
9.686947
9.459853
9.458661
8.817911
8.953810
10.163784
8.257627
8.196831
8.731484
8.561611
8.302927
9.060502
8.988976
9.225607
9.338856
9.581447
10.563731
9.955764
10.704994
11.290908
10.637641
9.638667
8.979440
9.456873
8.866787
8.679628
7.561445
8.092523
8.268952
6.609559
6.795526
6.520748
5.911589
5.797744
6.527901
6.132722
6.376505
5.870461
5.869865
5.863905
6.462932
6.338954
5.912781
5.945563
6.680489
5.981922
5.483627
5.497932
5.998611
5.604625
6.172657
5.862713
6.342530
6.123781
6.747842
6.211996
5.584955
6.384850
6.121993
5.386472
##ZVALUE=255
1.344681
1.571774
1.608729
1.491904
1.753569
1.588464
1.672506
1.822710
2.171993
4.851818
15.976429
54.669976
106.462836
220.218897
329.888463
489.732623
613.763928
717.880726
743.683577
690.194964
596.192479
439.858437
309.559703
178.311467
116.720796
87.153912
87.862611
98.534822
122.817755
138.865709
140.533447
141.004920
124.303699
103.969574
74.772835
58.219433
36.102533
24.103522
13.281703
10.380745
8.702874
8.537769
9.230971
9.461641
9.437799
9.921789
9.776950
9.973645
10.042787
10.500550
11.126995
10.433793
10.332465
10.017753
9.764433
9.545684
9.038448
9.876490
9.282827
9.196997
8.846521
7.897615
8.840561
8.235574
8.426905
8.140802
8.064508
8.123517
8.531809
8.060932
8.560419
9.064674
8.987784
8.812547
9.163618
9.012818
8.705854
8.501410
7.895827
7.263422
6.814599
6.609559
6.486773
5.934834
5.976558
5.840659
5.409718
5.591512
5.146861
5.656481
5.247593
5.138516
5.047917
4.932880
5.369782
5.025864
5.351901
5.285740
4.900694
4.591942
5.597472
4.937649
4.631877
4.929900
4.861951
5.106926
5.033612
4.959702
4.844666
5.200505
5.160570
5.143881
4.903674
4.709959
5.345941
4.718900
##ZVALUE=260
1.713634
1.415610
1.586676
1.357794
1.398921
1.366735
1.623631
1.686811
1.618862
1.612902
2.183914
3.119707
8.829832
32.377839
71.525574
171.085000
272.195935
447.487831
582.379699
752.578974
809.464455
805.055499
725.142956
559.263825
411.204696
244.014859
161.879659
92.964768
75.841546
79.107881
103.817582
118.070841
142.427683
148.683786
144.978762
130.427480
108.564496
83.626509
57.858825
42.045712
27.936697
17.991662
13.052821
10.452867
10.908842
10.939837
10.833740
11.052489
11.327863
11.159778
10.878444
10.492802
10.895729
10.634661
11.012554
10.728836
10.483861
10.289550
10.011792
9.924769
9.860992
9.005666
9.470582
9.114742
8.422732
8.205771
8.359551
8.688569
8.115768
7.974505
8.261800
8.261800
8.310676
8.170605
8.091927
8.044839
8.020997
7.700920
7.602572
7.143617
6.718636
6.191730
5.893707
6.138682
4.946589
5.490780
4.574656
4.979968
5.041957
4.860759
4.975796
4.422665
4.472733
4.374981
4.747510
4.465580
4.636645
4.667640
3.773570
4.544854
4.247427
4.784465
4.348755
3.979802
4.521608
3.903508
4.119873
4.812479
4.685521
4.676580
4.377961
4.396439
4.237890
4.268885
4.022717
4.034638
##ZVALUE=265
1.268983
1.245737
1.475811
1.237988
1.089573
1.199841
1.386404
1.443624
1.551509
1.528859
1.600981
1.849532
1.788735
2.136827
4.424453
21.864772
52.656531
132.123828
230.380893
420.389771
570.966005
760.365725
862.862468
884.449482
804.150701
685.182810
506.772995
357.237458
200.098753
126.351714
75.787902
68.454742
84.152818
107.414722
135.249496
149.406791
157.103539
150.053501
129.965544
113.453865
82.891583
63.210726
41.892529
28.854609
18.342733
14.376640
12.383461
12.610555
12.100935
12.402534
12.474656
12.380481
12.245774
12.568831
11.488795
12.050867
11.430979
11.492968
10.707974
10.579824
10.716915
10.497570
9.629726
9.463429
9.145737
9.007454
8.925796
8.469820
8.520484
8.195639
8.244514
8.375645
7.977486
7.992983
8.039474
8.419752
7.384419
7.525682
6.725788
6.796718
6.592870
5.987883
5.717874
5.410910
5.268455
5.084872
4.924536
5.054474
4.636645
4.425645
4.156828
4.515648
4.132986
4.300475
4.439950
4.492998
4.437566
4.391670
4.226565
4.224777
4.643798
4.059672
4.058480
4.386902
4.206896
3.894567
4.458427
3.746748
3.927946
3.602505
3.825426
3.852844
3.612638
3.941655
3.931522
3.965497
##ZVALUE=270
1.196861
1.057982
1.160502
1.166463
1.322627
1.492500
1.342893
1.351833
1.427531
1.557469
1.456738
1.414418
1.567602
2.044439
1.814961
1.851916
2.556443
10.270476
29.546618
92.450976
177.567601
347.052813
507.889986
728.201866
859.823823
943.439603
925.699472
836.771727
652.501583
491.851568
296.467543
183.732510
94.430447
63.627958
65.045953
82.214475
112.556815
133.253932
152.812004
159.194469
153.587461
140.678883
114.475489
95.332861
63.829422
45.407414
30.508637
22.565722
16.708970
14.743805
13.833642
13.914704
13.722777
13.055801
14.037490
12.802482
12.907982
12.977719
12.626648
12.329817
11.175871
11.160970
10.473728
10.471940
10.010600
9.401441
9.244680
9.266734
8.614659
8.953810
8.798838
8.498430
9.135604
8.611679
8.031726
8.579493
7.872581
8.100867
6.706715
6.365776
6.046891
5.745888
5.827546
5.295873
5.372763
4.908442
5.139709
4.934669
4.477501
4.909635
4.601479
4.657507
4.557967
4.179478
4.689693
3.844500
4.214644
4.096627
4.121661
4.022717
4.108548
4.339814
3.578663
3.826618
4.228950
4.034638
3.806949
3.859997
3.878474
3.972650
3.966689
3.536940
3.661513
3.988743
3.961921
3.618598
##ZVALUE=275
1.050830
1.203418
1.083612
1.113415
1.132488
1.131892
1.149774
0.985861
1.323819
1.371503
1.141429
1.490712
1.342893
1.568794
1.548529
1.452565
1.691580
2.004504
1.794696
5.286932
18.127561
62.940717
135.056973
289.041400
451.487899
665.511489
816.605687
921.598673
968.942642
917.079449
759.747028
608.277917
391.135812
245.736837
119.421482
72.495937
51.591992
60.632825
86.431503
110.361576
136.390924
153.080821
159.700513
157.400966
135.786533
118.158460
88.941455
68.641901
45.886636
34.075975
22.183657
17.538667
15.244484
14.461875
13.716817
13.812780
13.539791
13.515949
12.993813
12.190938
12.126565
12.215972
10.812879
10.910630
10.131598
9.665489
9.465814
9.088516
9.397864
9.154677
9.048581
8.978844
8.916855
8.819699
8.703470
8.548498
7.911921
7.385612
7.250905
6.489754
6.126761
6.288886
6.472468
5.940795
5.173683
5.256534
5.258918
4.828572
4.575849
4.902482
4.693866
4.704595
4.587770
4.121661
3.927946
4.033446
4.162788
4.241467
4.164577
4.152656
4.078746
4.474521
4.062653
3.662705
3.926754
3.839731
4.227757
4.151464
4.173517
3.943443
3.910661
4.088879
4.014969
4.226565
3.663898
3.716946
##ZVALUE=280
1.217723
0.978708
1.222491
0.937581
1.058578
1.244545
1.185536
1.154542
1.176000
1.299977
1.180768
1.343489
1.235604
1.274943
1.276731
1.243949
1.443624
1.733899
1.523495
1.672506
1.907945
3.040433
10.783672
46.294928
104.079843
234.213471
369.978547
537.711978
755.558014
893.724561
1001.163721
986.472964
860.827565
698.989630
461.466908
306.304693
157.295465
87.990761
47.785640
44.831634
60.545802
79.421997
109.857917
129.755735
150.218606
157.255530
149.044991
136.258602
110.508800
89.563727
63.291788
46.237707
30.534863
21.355748
16.872883
14.415979
12.783408
11.930466
12.192726
11.734962
11.228919
10.937452
10.383725
10.672808
10.194778
9.760857
9.442568
9.170771
9.450912
9.012818
8.457899
8.736849
8.545518
8.373857
8.470416
8.161664
7.170439
7.557869
7.011890
6.976724
6.203651
6.045699
6.047487
5.681515
5.418658
5.448461
5.582571
4.951954
5.093813
4.860759
4.398823
4.670620
4.435778
4.573464
4.332662
4.094839
4.239678
4.391670
4.201531
4.097819
4.395843
4.193783
4.403591
4.065633
4.070997
4.136562
4.125834
3.950596
3.948808
3.966689
3.712773
3.937483
3.940463
4.043579
3.593564
3.267527
##ZVALUE=285
1.155734
1.054406
0.931621
0.929832
0.847578
0.784993
1.002550
0.930429
1.062751
1.032948
1.198649
1.167655
1.029968
1.120567
1.213551
1.206994
1.184940
1.329780
1.406670
1.375675
1.332760
1.465678
1.751781
1.839995
5.262494
18.682480
63.852668
133.414865
281.772614
432.204604
653.617978
818.256736
969.993472
1009.144783
941.161513
811.998844
581.882596
404.239893
218.796730
127.749443
57.763457
36.474466
39.181709
51.652789
79.934001
101.630688
126.671791
140.254498
149.381757
144.389868
132.242441
114.103556
85.929632
64.250827
43.637753
31.176805
18.752813
14.223456
12.044907
10.746717
10.357499
10.165572
9.834766
9.339452
8.907914
8.933544
8.543730
8.780956
8.622408
8.205771
8.708835
8.459687
7.873774
8.400679
7.585883
7.909536
7.397532
7.241964
7.040501
6.697774
6.285906
6.122589
5.892515
5.991459
5.685687
5.503893
4.805923
5.170703
5.249977
4.974604
5.065799
4.703999
4.533529
4.906654
4.550815
4.659891
4.612803
4.547834
4.461408
4.034638
4.351735
4.170537
4.048944
3.939867
3.861785
4.393458
4.177690
3.794432
4.319549
4.037619
4.065633
3.764629
4.077554
3.686547
3.843904
3.634691
##ZVALUE=290
0.865459
0.927448
0.952482
0.873804
0.902414
0.864863
1.016855
1.020432
0.898838
0.993609
1.038909
1.141429
1.012683
1.058578
1.074672
1.218915
1.073480
1.154542
1.094937
1.108646
1.399517
1.299977
1.374483
1.660585
1.799464
1.935959
2.508759
6.954670
32.091737
75.096488
185.855627
313.599706
534.241796
724.309683
926.364660
1009.360552
996.162891
891.086459
681.817532
508.959889
296.837687
177.504420
77.955723
40.725470
25.804639
31.904578
51.102638
68.895817
98.865628
116.272569
137.116909
144.073963
141.910911
130.334496
108.353496
84.181428
58.046579
43.361783
26.726723
18.820763
12.903810
9.880662
8.324981
7.955432
7.745624
7.730722
7.704496
8.031726
7.795691
7.875562
7.509589
7.717609
7.848740
7.396936
7.361770
7.007718
7.014871
6.497502
6.335974
6.410480
6.149411
5.928874
5.849600
5.843639
5.715489
5.278587
5.342960
5.383492
4.923940
5.214810
5.077720
4.569888
4.721880
4.797578
4.467964
4.555583
4.453659
4.395843
4.247427
4.643798
4.487634
4.374981
4.384518
4.102588
4.155636
4.561543
4.338622
4.054904
4.083514
4.178882
3.883839
4.158616
4.240870
3.768802
3.973842
3.484488
##ZVALUE=295
0.877976
0.839829
0.902414
0.895858
0.839829
0.827909
0.977516
1.216531
1.029968
1.081824
1.081824
1.064539
1.025796
1.042485
0.970960
0.996590
0.987649
0.976920
1.079440
1.110435
1.240969
1.056790
1.390576
1.447797
1.370907
1.642704
1.813769
1.900792
2.245903
3.148913
16.670823
45.521855
127.589703
238.744020
450.911522
624.696016
847.600698
970.439911
1010.904908
942.182541
814.150572
587.219000
404.474735
215.129852
117.193460
44.473410
25.130510
21.431446
30.065775
42.330623
65.381527
86.759925
111.367702
127.003789
137.239695
134.557486
118.357539
102.164745
76.601505
59.432983
37.915707
26.065707
16.340613
11.232495
8.126497
7.211566
6.905794
6.554723
6.404519
6.627440
6.953478
6.961823
6.840825
6.960630
6.637573
6.873608
6.762743
6.345510
6.367564
5.885959
5.625486
5.753636
5.924702
5.590916
5.367994
5.389452
5.166531
5.113482
5.007982
4.858971
4.821420
4.555583
4.593730
4.780889
4.545450
4.617572
4.738569
4.453659
4.664660
4.499555
4.819632
4.290938
4.479885
4.204512
4.355907
4.330873
4.373789
4.175901
4.207492
4.179478
4.248619
4.023910
4.101992
4.081726
3.892779
3.582835
##ZVALUE=300
0.826716
0.948906
0.949502
0.917912
0.862479
0.960827
0.853539
0.824928
0.885725
0.915527
1.010895
0.843406
1.049638
0.942945
0.930429
1.028776
1.097918
1.026988
1.025796
1.075864
1.282692
1.274943
1.224875
1.109838
1.161695
1.286864
1.353621
1.554489
1.649857
1.633763
1.916885
2.155900
7.735491
26.175976
88.176727
169.305801
345.472693
522.958636
761.458874
900.549889
1010.403633
1003.686786
870.643854
714.119673
473.766923
310.475826
158.499479
84.496737
32.770634
17.782450
18.573999
25.649667
40.547848
57.432652
81.581473
100.864768
120.211840
126.647949
125.618577
116.946697
97.373724
79.965591
56.450963
40.209889
24.430752
16.434789
10.228753
7.731915
6.559491
5.773902
5.985498
6.426573
6.260872
6.038547
5.732775
6.383657
5.786419
5.782843
5.751848
5.917549
5.394816
5.643964
5.164742
5.271435
5.365610
5.232692
5.154610
5.089641
4.640818
4.847646
4.812479
4.540682
4.549623
4.551411
4.344583
4.094839
4.122853
4.221797
4.146695
4.421473
4.340410
4.303455
4.255772
4.228950
4.109740
4.471540
4.142523
4.176497
4.128814
4.374981
4.169941
3.907681
4.109740
4.080534
3.936887
3.747940
##ZVALUE=305
0.834465
0.844598
0.833869
0.859499
0.703931
0.773668
0.929832
0.760555
0.873804
0.877976
0.970960
0.967979
0.924468
0.876784
0.970960
1.001954
0.847578
0.890493
0.835657
0.947714
1.073480
0.898838
1.139641
1.106858
1.130700
1.240969
1.257658
1.507998
1.461506
1.420975
1.423955
1.641512
1.916885
1.821518
4.252791
14.130473
56.124926
121.254921
272.760987
429.014564
611.053705
843.032598
963.770747
1013.039947
942.819715
749.726892
583.485961
372.124910
229.201913
126.919746
49.074888
21.913648
12.883544
15.663505
24.680495
37.677884
56.816936
75.390935
97.077489
111.366510
120.455623
119.746923
109.301805
94.754696
73.091984
54.555535
35.922527
24.743676
13.872981
9.226799
7.270575
6.303787
5.593896
5.948544
5.546808
5.508661
5.417466
5.347729
5.133748
5.174875
5.027652
5.090833
4.891753
4.727840
4.882812
4.826784
4.393458
4.682541
4.419684
4.315972
4.363656
4.338622
4.492998
4.112720
4.274845
4.284978
4.482865
4.388690
4.122853
4.126430
4.150867
3.937483
4.025698
4.153848
3.993511
4.235506
3.811717
4.064441
4.194975
3.974438
4.030466
3.630519
3.753901
3.903508
3.877878
3.816485
##ZVALUE=310
0.759959
0.926852
0.886917
0.868440
0.902414
0.804663
0.771880
0.966787
0.793934
0.729561
0.906587
0.748634
1.021624
0.886917
0.864863
0.885725
0.853539
0.885725
0.981688
0.794530
0.875592
1.004934
1.172423
1.147985
1.238585
1.120567
1.094937
1.182556
1.202822
1.179576
1.129508
1.392961
1.491904
1.636744
1.643896
1.709461
2.209544
6.172657
30.551553
73.124766
179.911852
308.500528
541.389585
722.417831
922.772884
1005.210876
987.342596
887.157917
678.154826
502.953529
292.334557
174.256563
74.535608
34.845471
13.602972
10.427833
14.774799
20.788908
33.371449
46.667457
67.998767
85.725784
105.157495
111.996531
112.703443
107.232928
90.641975
74.781775
51.625967
36.979914
22.553802
15.639663
9.791851
7.088780
5.819798
5.061626
4.847646
4.722476
4.576445
4.600883
4.271865
4.456639
4.334450
4.226565
4.548430
4.360676
4.246831
4.244447
4.034638
4.014969
4.266500
4.127622
3.698468
3.882647
3.835559
3.813505
3.781915
3.792644
3.688931
3.841519
3.808737
3.832579
3.785491
3.791451
3.929734
3.508925
3.890991
3.721714
3.672838
3.800988
3.828406
3.733635
3.853440
3.518462
3.475547
3.276467
##ZVALUE=315
0.770688
0.827909
0.764728
0.747442
0.656843
0.721812
0.753999
0.701547
0.736713
0.743866
0.764728
0.918508
0.806451
0.758767
0.978708
0.969768
0.848770
0.860691
0.990629
0.957847
0.999570
0.873804
0.945926
0.887513
0.920892
1.048446
1.123548
1.234412
1.136661
1.334548
1.157522
1.169443
1.407862
1.242757
1.392961
1.515746
1.684427
1.779795
1.883507
3.213882
11.478662
50.034523
112.023950
256.150961
415.609479
667.302608
827.245712
968.469977
1001.921892
952.507854
782.029033
607.934594
376.834869
232.859850
104.006529
50.559640
17.442703
10.317564
9.836555
12.443662
19.489527
28.585792
46.002865
60.456991
82.174540
95.134974
105.118752
105.633736
98.176003
86.117983
66.883564
51.178932
32.543540
22.857785
13.675690
9.180903
5.974770
4.838705
4.386902
4.075766
3.851652
3.684759
3.547668
3.624558
3.599524
3.683567
3.517866
3.591776
3.441572
3.629923
3.558993
3.386736
3.391504
3.700852
3.476739
3.535748
3.428459
3.369451
3.338456
3.278852
3.394485
3.416538
3.447533
3.314614
3.324747
3.448725
3.525615
3.308654
3.222823
3.340840
3.328919
3.249645
3.403425
3.185868
3.280640
3.075600
##ZVALUE=320
0.828505
0.836849
0.819564
0.942945
0.701547
0.823736
0.724792
0.828505
0.904799
0.777841
0.787973
0.681877
0.769496
0.736713
0.857711
0.851750
0.766516
0.745654
0.865459
0.865459
0.732541
0.724792
0.920892
1.101494
0.916719
1.124740
0.957847
1.108646
1.116991
0.992417
1.105666
1.185536
1.063943
1.116991
1.377463
1.219511
1.414418
1.494884
1.500845
1.565814
1.741648
2.027750
7.460713
24.085641
84.381700
168.797970
336.356759
505.661964
735.902786
879.432559
985.602736
980.430841
845.213532
690.049529
462.929606
299.549699
138.431787
73.279738
27.053952
12.637973
7.777810
8.076429
11.381507
16.239882
26.599765
38.716793
56.778789
72.404742
90.513825
99.342465
99.464655
93.946457
80.454946
65.865517
47.276616
34.183860
19.923449
12.782812
7.473826
5.318522
4.413724
3.669858
3.626943
3.294945
3.139973
3.197789
3.266931
3.284812
3.232956
2.895594
2.866983
3.063679
2.983809
3.154874
2.956986
3.137589
2.855659
2.922416
3.027916
2.993941
2.902746
2.853870
3.168583
3.016591
3.272891
3.068447
2.990961
2.975464
2.916455
3.038645
2.883673
2.792478
2.605915
2.710819
2.873540
2.764463
##ZVALUE=325
0.809431
0.759959
0.863671
0.841618
0.821948
0.720620
0.786781
0.722408
0.878572
0.664592
0.646710
0.697970
0.700951
0.769496
0.923872
0.698566
0.814795
0.857711
0.964999
0.850558
0.833869
0.808835
0.828505
0.828505
1.137853
0.935793
0.883937
0.927448
0.927448
0.971556
0.979900
1.006722
1.015663
0.991821
0.889897
1.092553
1.218915
1.317859
1.252890
1.385808
1.449585
1.584888
1.635551
1.823902
4.049540
14.619827
55.188537
119.164586
266.094804
418.048501
655.732751
810.917616
956.921577
980.076790
893.909931
752.768517
514.304638
357.264876
189.848542
105.145574
39.661527
16.549826
7.538795
7.081628
7.895827
10.168552
16.325712
24.250746
40.005445
55.423975
73.105693
84.857941
92.788935
93.529820
87.145567
75.979829
58.901906
44.333935
27.927756
18.994808
10.626912
7.138848
4.812479
3.673434
3.125668
3.013611
2.707839
2.953410
2.832413
2.764463
2.525449
2.653599
2.653599
2.596974
2.685785
2.636909
2.650619
2.717972
2.654791
2.858639
2.838969
2.772808
2.854466
2.784729
2.941489
2.754927
2.759695
2.652407
2.800822
2.767444
2.520680
2.435446
2.630949
2.679825
2.744794
2.615452
##ZVALUE=330
0.788569
0.713468
0.713468
0.798702
0.656843
0.618696
0.560880
0.669956
0.887513
0.845790
0.742674
0.679493
0.792742
0.713468
0.727773
0.673532
0.728965
0.604987
0.818968
0.927448
0.884533
0.915527
0.982881
0.764728
0.751615
0.862479
0.938773
1.080632
0.835657
0.748634
0.719428
0.915527
0.936985
0.988841
0.946522
1.162887
1.174808
1.053810
1.112819
1.238585
1.264811
1.157522
1.302958
1.473427
1.598597
1.427531
2.462864
6.796718
32.956600
79.056621
190.438628
317.949653
537.540913
702.326894
880.926847
950.610638
910.280943
806.846619
609.495640
443.958640
247.641802
137.750506
53.789616
24.900436
9.045601
6.684661
6.304979
7.047653
10.024905
15.252829
25.053620
35.321712
51.512718
65.143704
79.750419
84.888935
86.780787
80.653429
66.844821
55.480599
39.164424
28.104782
17.811656
11.962652
7.005930
5.261898
3.420711
3.058910
2.908707
2.880692
2.594590
2.478957
2.493858
2.676845
2.534986
2.663732
2.475977
2.386570
2.611876
2.277493
2.700686
2.438426
2.490878
2.900958
2.623796
2.724528
2.531409
2.654791
2.612472
2.440810
2.590418
2.297759
2.315640
2.290606
2.160668
2.121925
##ZVALUE=335
0.643730
0.709891
0.547767
0.568628
0.661612
0.682473
0.640750
0.714660
0.638962
0.646710
0.798702
0.625849
0.784993
0.635982
0.711679
0.615716
0.745654
0.625849
0.777841
0.727773
0.812411
0.862479
0.703931
0.906587
0.724792
0.653863
0.890493
0.964999
0.888705
0.926852
0.884533
0.927448
0.966787
0.838637
1.025796
1.076460
0.946522
0.967979
1.057982
1.155734
1.151562
1.158714
1.171827
1.139641
1.394749
1.499653
1.407862
1.647472
1.732707
2.991557
14.852881
43.826699
128.335953
234.685540
438.661575
606.365800
806.294680
909.984708
930.395722
861.550570
690.117478
522.163510
313.017964
186.693668
80.068707
36.379695
12.355447
7.042885
6.162524
5.853772
6.797910
9.075403
14.472604
22.108555
33.973455
45.681000
61.797500
71.396828
80.785751
80.771446
75.073838
65.146685
51.617622
40.186644
26.858449
18.954873
11.069775
7.643700
4.624724
3.522635
2.939701
2.745986
2.502799
2.543926
2.291799
2.345443
2.181530
2.397895
2.480745
2.351999
2.206564
2.574921
2.246499
2.488494
2.488494
2.477765
2.555847
2.487898
2.464652
2.366900
2.330542
2.364516
2.206564
2.081990
2.143979
2.190471
##ZVALUE=340
0.684857
0.717640
0.731945
0.813603
0.732541
0.677705
0.774860
0.504851
0.661612
0.678897
0.519753
0.855923
0.894666
0.796914
0.755787
0.702739
0.637770
0.708699
0.922680
0.932813
0.755787
0.790954
0.763535
0.569820
0.891685
0.763535
0.723600
0.792742
0.789762
0.824928
0.750422
0.677705
0.934601
0.839829
0.853539
1.118779
0.975728
0.943542
1.028776
0.816584
1.079440
0.951886
1.087785
1.203418
1.045465
1.146793
1.348853
1.182556
1.355410
1.427531
1.702905
1.974702
9.023547
27.746558
88.997483
177.237988
362.072587
519.937873
721.969604
844.278932
918.861628
880.905986
731.152892
583.215952
372.829437
234.375000
104.991794
50.157905
15.457869
7.516742
5.996823
5.839467
5.787611
6.530881
8.944869
12.651682
21.007657
30.763745
45.600533
56.540966
69.794655
74.685812
75.378418
71.163774
61.583519
51.140785
37.247539
27.933717
16.977787
11.454821
6.768703
4.684925
3.166795
2.825856
2.483726
2.417564
2.202988
2.279878
2.319813
2.167821
2.221465
2.408624
2.349615
2.382994
2.494454
2.143979
2.298951
2.337694
2.362728
2.173781
2.320409
2.235770
2.115965
2.145767
2.226830
2.131462
##ZVALUE=345
0.811815
0.617504
0.668764
0.637770
0.698566
0.826716
0.584722
0.644922
0.747442
0.700951
0.649691
0.772476
0.618696
0.719428
0.759959
0.770688
0.677705
0.703931
0.680685
0.768900
0.824928
0.771880
0.888705
0.750422
0.589490
0.658631
0.672936
0.808835
0.768900
0.755787
0.755787
0.736713
0.901818
0.938773
0.884533
0.881553
0.699759
0.897646
0.983477
0.808835
1.037717
0.810623
1.066923
1.143813
0.850558
1.018643
1.226664
1.163483
1.260638
1.292825
1.327991
1.297593
1.443624
1.596808
4.102588
14.491677
59.311986
123.098493
260.257721
401.789546
617.142916
763.586760
880.112648
888.915658
785.719752
652.012825
442.654490
290.209651
134.824514
66.129565
22.170544
10.217428
6.265640
5.471706
5.151629
5.192757
5.802512
7.588863
12.590885
18.470883
29.362440
39.052963
52.274466
60.817599
67.348480
69.015622
65.456629
59.986711
47.537684
37.821531
25.884509
17.840862
11.144876
7.509589
4.900694
3.566742
2.669692
2.625585
2.167821
2.348423
2.271533
2.252460
2.120733
2.225637
2.176762
2.196431
2.123713
2.184510
2.165437
2.333522
2.268553
2.293587
2.271533
2.148747
2.210736
2.038479
##ZVALUE=350
0.697970
0.612736
0.626445
0.709891
0.644922
0.635982
0.680685
0.812411
0.535846
0.643730
0.662804
0.669956
0.765920
0.745654
0.639558
0.681877
0.543594
0.671744
0.587702
0.577569
0.692606
0.741482
0.727773
0.691414
0.644922
0.768900
0.806451
0.810623
0.817776
0.818968
0.690818
0.673532
0.832677
0.776649
0.665784
0.764728
0.894666
0.891685
0.796914
0.736713
0.807643
0.831485
0.895858
0.941753
0.992417
0.987649
1.173615
1.143813
1.172423
1.181960
1.146793
1.212955
1.329780
1.468658
1.376867
1.420975
2.238750
7.408857
34.068823
78.170896
188.434720
311.906934
515.042543
668.240786
826.953650
870.325565
820.122957
704.005957
491.553545
335.304737
180.533528
96.811652
33.143759
13.949871
6.167889
5.451441
4.763603
4.535913
4.467964
4.998446
7.025599
10.819435
17.256737
24.401546
35.368800
44.137836
54.987669
60.932636
63.158870
61.038733
54.106712
46.873689
35.090446
26.322603
17.163754
11.590719
7.161498
5.227923
3.695488
2.913475
2.538562
2.392530
2.354980
2.280474
2.225637
2.238750
2.158880
2.128482
2.156496
2.031922
2.022982
2.143979
2.089739
2.011657
2.239943
2.053976
##ZVALUE=355
0.556707
0.758767
0.742674
0.687838
0.685453
0.707507
0.706911
0.636578
0.701547
0.619888
0.527501
0.516772
0.670552
0.779629
0.661612
0.583529
0.605583
0.761747
0.667572
0.664592
0.810623
0.757575
0.733733
0.767708
0.820756
0.693798
0.898838
0.738502
0.810623
0.771880
0.860691
0.590682
0.707507
0.889897
0.829697
0.808835
0.846982
0.779629
0.898838
0.810623
0.893474
0.900626
0.806451
0.782609
0.946522
0.927448
0.894666
1.148582
0.839829
0.979900
1.003742
1.014471
1.151562
1.111627
1.289845
1.104474
1.419783
1.580715
1.690984
3.376603
18.429756
48.996806
132.818818
235.169530
429.795980
587.894917
766.619444
846.629739
836.309791
734.549761
541.540980
397.688746
226.620436
126.337409
47.811866
21.011829
7.255673
5.057454
4.924536
4.410744
4.222989
4.081726
4.574656
5.775690
9.227991
13.833642
21.946430
29.564500
40.344596
48.143864
54.901838
57.795644
55.605769
51.871538
42.258501
34.866929
25.116801
18.945932
12.039542
8.183718
5.157590
3.723502
2.925992
2.676845
2.323985
2.245903
2.173781
2.217889
2.116561
2.073646
2.195835
2.032518
2.058744
2.040863
1.830459
2.095699
##ZVALUE=360
0.665784
0.724792
0.772476
0.677705
0.757575
0.872612
0.681877
0.781417
0.639558
0.682473
0.717640
0.647902
0.652671
0.661612
0.652671
0.759959
0.850558
0.609756
0.760555
0.741482
0.628829
0.696778
0.759959
0.711679
0.860691
0.824928
0.771880
0.735521
0.711679
0.681877
0.604987
0.805855
0.598431
0.634789
0.767708
0.779629
0.829697
0.823736
0.753999
0.826716
0.922680
0.667572
0.929832
0.784993
0.838637
0.896454
0.945926
0.954866
0.948906
0.959635
1.056790
0.933409
1.087785
1.073480
1.137853
1.298785
1.268983
1.255870
1.352429
1.469851
1.789927
2.136827
8.155704
26.220679
86.263418
166.987777
327.592492
483.179688
687.873960
792.882442
829.664469
777.806640
610.404611
465.969443
285.665989
171.059966
72.065592
31.349659
9.644628
5.543828
4.519820
4.282594
4.038811
3.837943
3.704429
3.973842
5.010962
7.074475
11.679530
16.308427
24.765730
32.940507
42.447448
48.337579
52.244663
52.254796
47.638416
43.028593
35.204887
28.093457
19.073486
13.777614
8.510947
5.707741
3.775954
2.829432
2.582669
2.273917
2.124906
2.127886
1.858473
2.209544
1.776814
1.810789
1.815557
1.823902
##ZVALUE=365
0.531673
0.527501
0.651479
0.545979
0.648499
0.606775
0.665784
0.660419
0.612736
0.620484
0.576973
0.681877
0.703931
0.582933
0.709891
0.743866
0.706911
0.608563
0.589490
0.691414
0.638962
0.763535
0.779629
0.756979
0.798702
0.675917
0.662804
0.715852
0.824928
0.824928
0.606775
0.711679
0.767708
0.706911
0.653863
0.794530
0.769496
0.909567
0.893474
0.789762
0.982881
0.845790
0.822544
0.883937
0.817776
0.826716
0.755787
0.836849
0.829697
0.994802
0.802875
0.936985
1.031756
1.101494
1.016855
1.021624
1.206994
1.156926
1.227856
1.264811
1.353621
1.512766
1.420975
1.822710
3.814697
12.895465
52.688718
112.521648
254.298449
399.474502
597.537756
714.841485
795.939565
786.103010
673.022866
538.094640
336.918831
206.666589
90.938807
44.355989
14.543533
6.475449
4.506707
4.337430
3.876686
3.577471
3.346801
3.358722
3.517866
4.117489
6.305575
9.116530
14.909506
20.366907
29.023886
35.125613
42.405725
46.469569
48.780441
46.809912
41.346550
35.672784
27.408600
20.905733
13.681650
9.798408
6.369948
3.863573
3.268719
2.388954
2.259612
2.054572
1.945496
1.886487
1.992583
1.989603
##ZVALUE=370
0.537634
0.669956
0.689626
0.617504
0.717640
0.689626
0.653863
0.665784
0.588894
0.689626
0.643730
0.611544
0.582933
0.801682
0.722408
0.681877
0.653863
0.776649
0.707507
0.652671
0.566840
0.743866
0.511408
0.689626
0.583529
0.729561
0.631809
0.751615
0.616908
0.708699
0.713468
0.725985
0.547767
0.700951
0.773668
0.707507
0.733733
0.611544
0.828505
0.782609
0.813603
0.890493
0.838637
0.737906
0.903606
0.652671
0.843406
0.863671
0.842810
0.773668
0.824928
0.958443
1.015663
0.884533
0.875592
0.942945
0.971556
0.867844
1.064539
0.959635
1.165867
1.285672
1.259446
1.190901
1.368523
1.642704
2.099872
9.696484
29.819608
91.258883
175.183415
335.541964
485.940576
670.865774
760.803819
782.991648
717.886686
564.650893
422.706008
241.294503
138.521791
54.646730
24.707913
8.039474
4.586577
4.024506
3.665686
3.379583
3.356934
3.064871
3.012419
3.162622
3.716946
5.250573
7.594824
12.242794
17.318726
24.585724
31.198859
38.899779
42.978525
45.440793
44.155717
39.525628
34.394860
26.658773
20.592809
14.014840
10.287762
6.477833
4.979968
3.437996
2.600551
2.140999
1.875758
1.819730
##ZVALUE=375
0.667572
0.623465
0.698566
0.673532
0.651479
0.699759
0.779629
0.607967
0.666976
0.644922
0.638962
0.633597
0.644922
0.580549
0.559688
0.537634
0.622869
0.601411
0.652671
0.651479
0.755787
0.601411
0.701547
0.663996
0.548959
0.654459
0.678897
0.694990
0.697970
0.655651
0.725985
0.743866
0.831485
0.727773
0.696778
0.730753
0.755787
0.714660
0.739694
0.900626
0.690818
0.699759
0.647902
0.757575
0.724792
0.862479
0.741482
0.742674
0.696778
1.002550
0.709891
0.828505
0.924468
1.205802
0.846982
0.857711
0.951886
1.027584
1.082420
1.026988
1.049638
0.996590
1.062751
1.034737
1.179576
1.531839
1.209974
1.483560
1.885891
3.922582
20.333529
51.256418
132.515430
238.544941
422.118902
563.455820
719.326735
779.856443
746.868849
650.211573
465.302467
328.042507
182.511806
103.523731
40.484667
17.260909
5.768538
4.254580
3.688931
3.555417
3.291965
3.126860
2.794862
2.824664
2.912879
3.298521
4.371405
6.065965
10.004640
13.970733
21.169782
27.261972
34.294724
39.001703
42.256713
42.675734
39.644837
33.763647
29.076934
21.708608
16.959906
11.494756
8.135438
5.144477
3.795624
2.582669
##ZVALUE=380
0.549555
0.553727
0.462532
0.548959
0.654459
0.624657
0.544786
0.546575
0.482798
0.641942
0.725985
0.616908
0.755787
0.657439
0.645518
0.732541
0.796914
0.608563
0.492930
0.484586
0.589490
0.634789
0.693798
0.685453
0.771880
0.603795
0.738502
0.742674
0.668764
0.594854
0.683665
0.609756
0.747442
0.600815
0.495911
0.648499
0.788569
0.745654
0.756979
0.623465
0.806451
0.775456
0.700951
0.852942
0.746846
0.789762
0.977516
0.683665
0.821948
0.839829
0.727773
0.839829
0.910759
0.846982
0.869632
0.846982
0.836849
0.871420
0.706911
0.932813
0.838637
0.952482
0.963807
0.931621
0.963807
1.096725
1.131892
1.282692
1.269579
1.601577
1.674891
2.371669
10.722876
33.066869
98.430514
185.948610
348.678827
506.523848
685.685873
763.770938
768.272877
695.982575
542.691946
406.918526
239.099860
140.827894
58.698654
26.677847
8.045435
4.407763
3.664494
3.289580
3.173947
3.100634
2.777576
2.836585
2.731681
2.806783
3.116727
3.592968
5.659461
8.044839
12.996793
17.825961
25.243759
30.679703
36.565661
40.024519
39.919615
38.197637
34.596920
29.068589
23.657680
16.489625
12.298822
8.027554
##ZVALUE=385
0.521541
0.518560
0.543594
0.623465
0.459552
0.554919
0.551939
0.459552
0.538826
0.481606
0.699759
0.668764
0.644922
0.590682
0.616908
0.571609
0.588894
0.531673
0.612736
0.556707
0.635982
0.639558
0.603795
0.568628
0.774860
0.673532
0.730753
0.574589
0.748634
0.547767
0.718832
0.857711
0.555515
0.686646
0.744462
0.694990
0.701547
0.790954
0.677705
0.902414
0.822544
0.755787
0.657439
0.548959
0.791550
0.779629
0.765920
0.878572
0.769496
0.699759
0.808835
0.972748
0.874996
0.809431
0.834465
0.899434
0.826716
0.822544
0.912547
0.788569
0.803471
0.883937
0.903606
0.747442
0.885725
0.906587
1.140833
1.098514
1.026988
1.158714
1.367927
1.550913
1.677871
1.795888
4.875660
17.353892
65.135956
138.889551
289.125443
427.500606
601.732731
710.325837
763.927698
736.184716
612.635016
487.016439
308.517814
197.465420
90.562701
43.694973
13.285875
5.518794
3.477931
3.244877
3.352761
3.186464
3.191829
2.967715
2.712607
2.754927
2.620816
2.650619
3.349781
4.223585
6.767511
9.802580
15.084743
21.638870
26.132464
32.055974
35.415888
37.511587
36.968589
33.742785
29.662848
23.229718
##ZVALUE=390
0.494719
0.534654
0.549555
0.639558
0.320673
0.627637
0.610948
0.493526
0.640750
0.784993
0.687838
0.589490
0.584722
0.646710
0.571609
0.652671
0.659823
0.704527
0.562668
0.552535
0.593662
0.511408
0.618696
0.594854
0.649691
0.694990
0.654459
0.620484
0.594854
0.592470
0.810623
0.701547
0.756979
0.770688
0.897646
0.822544
0.687838
0.763535
0.744462
0.708699
0.743866
0.775456
0.801682
0.858903
0.778437
0.851750
0.751615
0.973940
0.787973
0.803471
0.879765
0.804663
0.845790
0.846982
0.852942
0.720620
0.863671
0.819564
0.824928
0.904799
0.842810
0.903606
0.785589
0.882745
0.818968
0.964999
0.801682
0.980496
1.188517
1.227856
1.329780
1.229644
1.281500
1.303554
1.382828
1.598597
2.573729
9.434819
42.713881
97.407699
225.085616
352.285504
534.667969
653.649569
762.512684
772.114992
690.558553
576.562881
396.126509
267.090797
136.792660
70.833564
24.232864
9.279847
4.054904
3.533959
3.391504
3.290772
2.978444
2.965927
2.902746
3.013611
2.586842
2.581477
2.607703
2.885461
3.913641
6.101727
8.536577
11.828542
17.893910
22.364855
28.525591
32.044649
35.375953
35.129786
##ZVALUE=395
0.580549
0.706911
0.621676
0.672936
0.711679
0.546575
0.592470
0.677705
0.530481
0.671744
0.648499
0.582933
0.611544
0.603795
0.623465
0.552535
0.702739
0.507832
0.727773
0.645518
0.592470
0.553727
0.709891
0.526905
0.584722
0.664592
0.641942
0.511408
0.576973
0.658631
0.683665
0.715852
0.692606
0.700951
0.684857
0.609756
0.836849
0.747442
0.883937
0.806451
0.844598
0.760555
0.837445
0.839829
0.815988
0.711679
0.830889
0.868440
0.795722
0.875592
0.830889
0.825524
0.881553
0.839829
0.929832
0.800490
0.836849
0.786781
0.812411
0.996590
1.011491
0.935793
0.942945
0.892878
0.947714
0.880957
1.039505
1.141429
1.084805
1.254678
1.288652
1.308918
1.082420
1.155734
1.141429
1.328588
1.407862
1.441836
1.945496
5.436540
26.139617
65.838695
158.383846
265.977979
447.447896
585.863590
730.495453
779.144764
749.085546
652.499795
467.233658
326.160789
173.202753
96.112490
37.675500
16.375780
5.345941
3.746748
3.269911
3.324747
3.457665
3.344417
3.218651
3.205538
2.972484
2.747774
2.647638
2.498627
2.449751
3.192425
4.432797
6.966591
9.570718
14.720559
19.405484
25.292635
##ZVALUE=400
0.753999
0.819564
0.665784
0.531673
0.884533
0.704527
0.644922
0.564456
0.516772
0.554919
0.675917
0.637770
0.559688
0.525713
0.610948
0.715852
0.516772
0.672936
0.600815
0.599623
0.681877
0.597835
0.619888
0.527501
0.562668
0.680685
0.589490
0.575781
0.634789
0.665784
0.652671
0.521541
0.737906
0.670552
0.737906
0.568628
0.802875
0.769496
0.815988
0.767708
0.827909
0.843406
0.741482
0.743866
0.851750
0.875592
0.794530
0.878572
0.818968
0.862479
0.895858
0.914931
0.675917
0.797510
0.871420
0.908971
0.849962
0.789762
0.848770
0.837445
1.047850
0.913739
0.900626
0.879765
0.906587
0.927448
0.898838
0.930429
1.091957
1.070499
1.223683
1.230836
1.233816
1.042485
1.170635
1.252890
1.157522
1.256466
1.369715
1.351833
1.557469
2.884865
13.925433
38.515925
109.459758
198.164582
368.330479
508.107543
676.513910
755.559802
763.642788
694.162846
532.669425
395.254493
225.967765
134.986639
58.108568
26.901960
8.173585
4.081726
3.373623
3.287792
3.512502
3.436804
3.447533
3.247857
3.230572
2.869964
2.686977
2.543926
2.472997
2.442598
2.853870
4.067421
5.638599
8.824468
##END
