##TITLE=12-3
##FORMAT=SPECTACLE-ASCII V-1.2
##DATA TYPE=ULTRAVIOLET SPECTRUM
##SECOND TYPE=ULTRAVIOLET SPECTRUM
##DATE=04/11/18
##TIME=11:06:47
##SPECTROMETER/DATA SYSTEM=SPECTACLE
##XUNITS=NM EM
##YUNITS=ENERGY
##YFACTOR=1
##FIRSTX=220
##LASTX=450
##NPOINTS=116
##3DDATA=Equidistant
##ZUNITS=NM EX
##FIRSTZ=210
##LASTZ=400
##ZPOINTS=39
##XYDATA=(Y..Y)
##ZVALUE=210
13.478994
14.485717
10.977983
11.008978
11.004806
10.688901
8.962750
8.121729
6.090999
5.158782
4.534721
3.963709
3.086925
2.581477
3.439784
2.980828
3.256798
2.812743
3.023744
3.422499
3.179908
3.661513
3.569722
3.270507
3.852844
3.784895
4.511476
4.413724
4.682541
4.949570
5.420446
5.395412
5.923510
5.822778
7.382631
7.438660
7.053614
7.089972
7.891655
8.067489
9.065866
9.125471
8.734465
8.135438
8.818507
9.936690
9.358525
8.456707
8.404851
9.727478
10.454655
9.033680
10.166764
9.914637
10.149479
9.504557
9.250641
11.177659
10.296702
8.999705
9.692907
8.762479
10.130405
9.821653
9.440780
10.890961
9.292960
10.147691
11.805892
12.538433
13.540983
14.116764
18.009543
17.971992
19.806623
20.927787
20.230412
20.484924
19.631982
18.030405
18.706918
13.913512
12.579560
11.188984
9.037852
8.817911
7.407665
6.667972
7.794499
8.025765
10.829568
12.873411
17.000437
18.954873
25.673509
31.391978
36.442876
38.159490
43.557882
46.095848
49.882531
52.098632
51.201582
47.982931
46.171546
45.620799
42.735934
36.872625
33.112764
28.209686
22.634864
21.338463
18.277764
15.838742
15.996695
14.778972
##ZVALUE=215
37.911534
38.354993
26.775599
23.867488
19.215941
17.544627
16.046762
16.697645
15.554428
13.615489
11.884570
9.040833
8.096695
5.700588
4.144907
3.532767
3.423691
2.745986
3.348589
3.312826
3.615618
3.246665
3.851652
4.042983
3.782511
3.990531
4.004836
4.577637
6.039739
4.821420
5.745888
5.979538
6.645918
6.440878
7.530451
8.146763
9.595752
9.666681
9.908676
10.663867
9.435415
10.888577
10.249615
11.123419
10.945797
11.790991
10.381937
11.563897
12.275577
11.382699
12.806654
11.734962
12.564659
14.553666
13.796687
13.725758
12.098551
13.271570
14.328957
13.754964
13.945699
13.038516
12.731552
12.646914
13.235807
12.252927
11.777878
12.619495
13.753772
14.345646
15.927553
16.668439
20.192862
20.261407
22.171736
19.095540
20.919442
19.733906
18.987656
15.932918
14.701486
13.194680
13.181567
11.958480
11.713505
9.452701
8.233786
7.943511
8.488894
7.754564
6.987453
6.602407
7.998943
8.050799
10.172725
11.541843
16.703606
19.967556
27.094483
31.942725
37.437677
49.266815
58.101416
63.455701
69.391727
74.247718
73.550940
70.956945
71.735978
67.191720
64.881444
61.651468
53.718686
46.326518
40.773749
32.674670
##ZVALUE=220
78.951716
82.487464
82.762837
72.310567
63.423514
48.439503
35.424829
30.632615
25.121570
23.716688
23.489594
21.868944
21.965504
16.938448
15.134811
9.732842
8.822680
6.215572
4.277825
3.322959
3.832579
3.505945
4.320741
4.288554
4.092455
4.909635
5.024672
4.775524
5.439520
5.614758
7.049441
6.954670
8.569956
8.431673
10.181665
10.578632
11.678934
11.383891
13.759732
13.930798
13.212562
15.028715
14.873743
16.830564
14.689565
14.721751
15.388727
16.366839
15.796423
17.254949
17.785430
17.852783
17.918944
17.422438
18.550754
17.327666
19.853711
19.784570
17.897487
18.416643
18.697977
17.462969
18.648505
17.112494
16.860962
18.265843
17.201900
17.414689
17.700791
19.238591
20.776987
20.147562
22.646785
22.722483
22.965670
22.908449
22.922754
21.692514
21.188855
20.427704
17.184615
15.602708
16.028881
14.112592
11.793971
10.980964
11.479855
11.128783
9.584427
9.482503
8.161664
9.231567
8.242726
7.331967
7.550716
7.836819
8.527637
8.105636
9.813905
10.963678
14.472604
19.483566
25.851727
33.448935
45.044422
55.010915
67.496896
85.980892
93.930960
106.821656
110.593438
110.246539
113.352537
109.938979
108.610988
99.592805
##ZVALUE=225
105.335712
108.279586
132.068992
140.399933
140.591860
127.885938
109.516978
76.120496
61.208606
47.302842
39.279461
35.860538
39.665699
39.142966
36.643744
32.101870
26.771426
19.851923
14.656782
10.608435
6.644726
4.678965
4.105568
4.794598
5.528927
4.954934
5.331635
5.390644
5.748868
6.231666
6.923676
7.482767
8.931756
9.407997
10.727644
13.295412
14.152527
15.040636
16.042590
18.085837
17.956495
18.332601
18.854737
21.176934
18.843412
20.681620
18.902421
18.841624
20.160675
21.223426
21.411777
21.370649
22.901893
22.399426
23.019910
23.936629
22.821426
23.143888
23.199916
24.295449
22.159815
24.368763
22.539496
21.307468
21.497607
21.027923
20.869970
21.595955
19.995570
21.939874
21.332502
22.210479
23.892522
26.669502
25.471449
22.401810
23.082495
23.468733
22.899508
21.354556
17.923713
17.743707
15.226603
15.270710
13.552904
11.822581
11.651516
10.254979
10.183454
9.578466
9.825826
8.946657
9.396672
9.853840
9.250641
8.239746
7.992983
8.534789
9.243488
8.723736
7.095933
8.822680
9.362698
10.503531
13.871789
16.715527
25.989413
40.942430
50.514936
65.824986
84.514618
106.242895
128.544569
155.379772
168.760419
183.871984
##ZVALUE=230
80.762506
80.840588
141.077638
181.579590
219.862461
251.053572
257.279873
234.476924
195.096731
146.170855
112.909675
74.650645
62.331557
57.197809
58.961511
59.759617
60.212612
58.910847
49.933791
38.365722
32.390952
19.390583
12.640953
9.326935
6.027818
6.081462
5.483627
5.181432
6.387830
6.900430
7.209778
8.638501
8.268952
10.812879
11.417866
12.660623
15.290976
15.000701
18.413663
18.275976
18.132925
19.659996
22.150874
19.865632
21.648407
21.421909
20.184517
21.619797
19.739866
22.428632
23.886561
21.132827
23.655891
25.116801
22.726655
24.130940
24.735928
24.569631
25.634766
24.200678
26.923418
24.531484
23.630857
23.732781
23.110509
23.581982
21.868944
23.189783
23.479462
23.700595
23.319721
26.832819
28.811693
25.912523
27.718544
30.751824
28.012991
28.425455
27.085543
25.757551
23.613572
19.355416
19.405484
16.212463
15.488863
13.819933
13.701916
13.700724
12.541413
11.735559
11.031628
10.401607
11.032820
11.062622
11.209846
11.131763
10.486841
10.657907
9.873509
10.154843
9.839535
9.158850
9.918809
10.448694
10.193586
10.393858
9.057522
10.104775
13.670921
19.252896
25.706887
44.318438
62.866807
94.505548
120.536685
163.697600
##ZVALUE=235
32.239556
35.991669
82.893968
147.457719
235.497952
348.205566
420.110822
476.160645
482.130647
429.334641
361.816883
271.211863
195.003748
123.732686
95.906854
79.560876
79.906583
86.585879
89.515448
87.282658
79.953671
68.190694
53.597689
38.288832
26.703477
17.206669
12.068748
10.223985
8.264780
8.237958
9.609461
8.749962
9.451509
11.823773
12.317896
13.875961
13.397932
16.620755
15.415549
16.616583
19.110441
17.896891
19.318461
20.184517
18.417835
19.804835
20.926595
21.541715
20.914674
21.415949
19.306540
20.699501
22.737980
24.912953
23.157597
21.843910
22.961497
23.300648
23.389459
23.148656
23.812652
25.346875
22.721887
24.273992
22.653937
24.001598
22.247434
24.815798
25.431514
25.166869
28.384924
31.138659
32.782555
36.037564
33.976436
35.301447
32.893419
35.935640
32.344460
28.441548
25.302768
24.069548
22.235513
19.868612
17.882586
17.317533
15.652776
14.750957
14.795661
14.422536
13.874769
13.078451
12.863874
14.081597
12.651682
13.359785
13.182759
13.167858
12.575984
11.926889
13.874769
12.320876
11.315942
10.983944
12.032986
12.426972
11.209846
11.500716
12.368560
10.022521
11.012554
12.908578
15.253425
23.446679
40.985942
73.898435
##ZVALUE=240
3.670454
4.809499
26.060939
66.348910
131.171942
251.051784
392.790437
605.269670
725.309849
832.556486
848.702788
753.683448
612.518787
451.914668
328.681469
199.880600
140.338540
107.824802
99.073648
110.857487
114.145875
120.955706
116.874576
110.197663
85.054636
66.590905
50.161481
35.645962
23.307800
16.168952
11.751652
11.475682
12.155771
11.943579
11.930466
13.807416
14.423728
15.714765
15.373826
16.620755
16.147494
16.696453
17.877817
18.337965
17.381907
18.445849
20.158887
20.022988
21.038651
19.399524
20.785928
22.218823
21.916628
21.117926
22.210479
21.641850
22.544861
21.588802
23.781657
23.105741
23.223758
22.465587
21.730661
22.218823
23.824573
21.236539
24.715662
24.625659
26.630759
28.413534
29.155612
31.937957
37.329793
33.985972
37.461519
36.146641
35.765767
34.802556
31.632781
32.616854
27.674437
23.923516
23.586750
21.294951
18.268824
19.071698
17.542839
16.869903
16.326904
16.377568
14.905930
14.862418
14.739633
16.011596
13.561845
15.146732
15.957952
14.314651
15.632510
14.716983
14.437437
14.782548
15.260577
13.004541
15.326738
15.227795
14.983416
14.500618
13.360977
14.070868
13.280511
13.212562
14.197826
13.653636
14.284849
13.647676
##ZVALUE=245
2.350807
2.037883
2.181530
2.625585
5.814433
29.649734
85.720420
236.590505
401.901603
691.964030
951.421857
1015.712619
1015.712619
1015.712619
1015.712619
743.365884
530.346632
323.364735
209.046006
125.435591
105.575919
101.864934
117.390752
128.277540
132.268667
129.476786
116.070509
98.649859
72.770715
57.643652
36.870837
25.976896
18.441677
14.776587
12.595654
12.639761
13.749599
14.091730
15.383959
15.681982
15.010834
15.477538
17.176867
17.086864
18.056631
18.031597
18.462539
18.392801
19.564629
19.183755
19.973516
20.688772
20.391941
20.702481
21.429658
21.366477
22.204518
22.419691
20.786524
21.505952
22.579432
21.011829
22.909641
21.866560
22.491813
23.686886
24.289489
24.564862
28.169751
29.057860
30.387640
33.005476
32.776594
33.976436
34.563541
35.328865
33.079982
32.303929
29.738545
27.751923
27.946830
25.720000
22.738576
23.089647
19.266605
20.015836
18.517971
17.551780
17.745495
16.809702
16.328692
15.497804
16.206503
15.043616
16.698837
14.987588
16.246438
15.805960
15.849471
14.993548
15.767813
15.290976
15.933514
14.598966
14.266968
15.556812
14.651418
15.072823
16.011596
15.256405
15.182495
14.996529
14.911890
15.532970
13.601780
13.079643
##ZVALUE=250
1.990795
2.496839
2.044439
2.638698
2.087951
2.758503
3.416538
11.770725
34.131408
129.809976
291.374922
638.635755
950.449705
1015.712023
1015.712023
1015.712023
1015.712023
1015.712023
1015.711427
596.225858
358.772874
185.812712
116.590858
97.970963
104.500651
128.467679
135.157704
142.446756
139.335990
129.111409
106.396675
83.801746
61.912537
43.948889
26.630759
20.410419
15.212893
15.869737
15.765429
14.530420
15.379786
15.797615
17.344952
18.712878
17.420650
18.098950
18.926859
18.740892
18.912554
19.701719
18.953681
20.781755
21.363497
20.206571
21.179914
21.602511
20.185709
20.897985
21.647811
21.374822
21.666884
20.562410
21.661520
21.902919
22.712946
21.226406
24.022460
22.745728
24.124980
24.928451
26.983619
28.335452
31.143427
32.477975
32.382607
31.287670
29.840469
28.072596
27.160645
24.984479
22.311807
20.828843
19.471645
17.922521
17.884970
16.587973
16.749501
14.975667
15.745759
14.725924
15.020967
14.061928
15.734434
14.050603
14.383793
13.763905
14.634728
14.422536
13.752580
14.217496
14.366508
13.694763
13.098717
12.400746
13.072491
12.930632
14.118552
13.049841
13.574958
13.140440
13.552904
13.517737
12.940764
13.408661
12.274981
12.723804
##ZVALUE=255
2.203584
2.171993
2.358556
2.209544
1.968741
2.279878
2.211928
2.907515
3.044605
6.689429
18.252730
64.374804
149.372816
423.740745
731.490850
1015.712619
1015.712619
1015.712619
1015.712619
1015.712619
1015.712619
1015.712619
715.010762
375.214815
165.949464
109.025836
95.978975
107.356906
130.767822
144.196749
152.894855
146.976709
131.028891
113.843679
85.252523
63.554645
43.654442
31.420588
23.318529
19.777417
20.029545
19.377470
20.416975
20.007491
19.464493
20.786524
19.909739
20.177960
21.746755
21.390915
22.362471
22.635460
22.477508
22.446513
21.545887
23.806691
23.278594
23.415685
22.678971
21.968484
22.491813
22.412539
21.939874
21.849871
21.935701
21.890998
23.224950
23.601651
23.583770
24.764538
25.874972
27.307868
29.431581
29.534698
29.926896
28.485656
27.541518
25.079846
22.856593
20.087957
19.199848
19.064546
16.936660
16.290545
15.667677
15.018582
14.511943
14.200807
13.411641
13.621449
13.662577
12.489557
13.172626
12.273788
12.922883
12.656450
12.461543
12.710690
13.211966
11.953712
11.987686
12.765527
12.345910
11.400580
12.387633
12.865663
11.886954
11.500716
11.543632
11.908412
11.251569
11.683702
12.145638
11.273623
11.327863
11.818409
##ZVALUE=260
2.001524
2.016425
2.367496
1.836419
2.121925
1.978874
2.430677
2.574921
2.910495
2.523661
2.987981
4.427433
10.753870
41.300654
89.174509
223.209858
430.767536
895.498991
1015.712023
1015.712023
1015.712023
1015.712023
1015.712023
1015.712023
1015.711427
657.506585
352.789760
149.001479
96.474886
91.368556
111.872554
129.365921
149.761438
159.500837
155.267715
144.014955
120.549798
95.516443
70.801973
53.437948
40.171742
31.170845
25.614500
24.484992
23.528934
23.504496
25.324821
25.013685
24.989843
25.545955
25.233626
26.287436
26.316643
26.661754
26.096702
26.591420
25.965571
25.425553
25.364757
25.847554
26.172996
25.950670
24.833679
25.131702
25.005937
24.517775
24.680495
26.135445
24.686456
25.953650
25.848746
28.207898
30.352473
30.466914
28.777719
28.816462
27.961731
25.206804
23.806691
21.546483
19.234419
17.929673
17.133951
16.272664
15.474558
15.363693
14.845729
14.861822
14.487505
13.804436
14.145970
13.356805
12.880564
13.379455
12.569427
12.162924
12.673736
12.323856
12.085438
12.642741
13.148785
12.536645
12.668967
12.573600
11.445880
12.801886
11.492968
11.552572
11.697412
11.384487
10.888577
10.667443
10.816455
11.384487
10.889769
11.572838
##ZVALUE=265
1.711845
1.999736
1.861453
1.959801
2.161860
1.906753
2.099872
2.251863
2.205968
2.456903
2.263784
2.741814
2.744794
3.152490
7.412434
34.646988
80.165863
185.521841
318.975449
646.418929
991.145968
1015.712619
1015.712619
1015.712619
1015.712619
1015.712619
1015.712619
1015.712619
600.410700
299.167633
117.959976
83.053708
92.368722
115.790963
145.187974
160.646439
169.639587
166.628957
148.022771
130.656958
100.813508
80.667734
57.651997
47.056675
38.235784
33.614635
30.496716
30.676723
31.205416
31.596422
31.273961
30.713677
30.786991
32.391548
32.199621
31.430721
31.618476
30.572414
29.942989
31.347871
30.241609
28.823614
29.770732
29.309988
29.249787
28.549433
27.334690
28.153658
27.955770
27.482510
28.319955
29.481649
30.301809
30.104518
28.894544
28.895736
26.822686
26.059747
23.183823
22.583604
20.031929
18.947721
17.665625
17.740726
16.269684
15.559793
15.453696
15.096664
13.026595
14.773607
14.179945
14.293790
14.109612
14.454722
14.058948
13.997555
14.001727
14.822483
13.820529
13.388991
13.849735
13.114810
14.161468
13.852715
12.809634
13.866425
13.577938
12.650490
13.663769
13.142824
13.874769
13.150573
13.623834
12.883544
12.057424
11.835694
##ZVALUE=270
1.588464
1.646876
1.520514
1.531839
2.150536
1.842976
1.642704
1.857877
1.850724
1.939535
2.009869
2.033710
2.182722
2.729893
2.936721
2.855659
3.572702
13.393760
39.808750
128.567815
243.578553
425.794721
779.574513
1015.712023
1015.712023
1015.712023
1015.712023
1015.712023
1015.712023
1015.712023
806.750655
462.489724
180.940628
92.130899
76.857805
95.203519
127.995610
150.070786
171.140432
178.949833
171.882510
163.505673
137.656927
115.539432
84.939003
65.917969
50.168633
43.616891
36.811829
35.892725
34.202933
34.722686
34.315586
33.875704
34.799576
33.953786
33.485889
32.977462
34.391880
32.873750
32.541752
33.055544
31.574965
31.191707
29.680729
30.203462
29.963851
28.854609
28.119683
29.789805
29.063821
27.987957
29.133558
28.241873
27.399659
26.887655
25.141835
24.760962
21.668673
20.518899
19.087791
18.644929
17.823577
16.622543
15.754700
15.086532
14.601946
14.892817
13.645887
13.949871
13.641715
12.981892
12.994409
12.598634
12.503862
13.571978
13.186932
13.153553
12.535453
12.823939
12.734532
12.284517
12.559891
12.834668
12.127757
12.151599
12.057424
11.859536
12.016892
11.818409
10.848641
11.341572
10.915995
10.720491
10.632873
10.238886
##ZVALUE=275
1.574755
1.345873
1.479983
1.575947
1.442432
1.549721
1.546741
1.461506
1.750588
1.658797
1.662970
1.936555
1.985431
1.779795
2.082586
2.233982
2.344847
2.836585
2.805591
6.630421
22.099614
78.111887
173.078775
386.115909
607.936978
944.196582
1015.712619
1015.712619
1015.712619
1015.712619
1015.712619
1015.712619
1015.712619
1015.712619
681.841969
349.473953
122.059584
82.434416
102.797747
125.387907
157.290697
172.326565
179.269910
175.969601
155.463815
137.852430
108.402967
88.244677
65.630674
52.413940
42.360425
37.684441
34.963489
34.324527
32.904744
33.445954
34.940839
32.968521
32.311678
33.371449
32.009482
30.781627
31.525493
30.918717
29.936433
29.684901
29.510856
28.496981
28.058887
29.031634
28.039813
27.098656
27.603507
26.678443
26.185513
25.034547
23.593903
22.829771
20.912886
20.008683
18.816590
17.501712
16.581416
16.294718
15.578866
14.712811
14.461875
13.583899
12.349486
12.774467
12.324452
11.764765
11.739731
11.688471
11.548996
10.903478
10.687709
11.338592
10.815859
11.353493
10.913610
10.535717
10.744929
10.079741
9.774566
9.871721
10.128617
10.281801
9.705424
9.486675
9.336472
9.218454
9.431839
8.907914
9.255409
8.744597
##ZVALUE=280
1.371503
1.344681
1.279712
1.503825
1.485944
1.214743
1.396537
1.249909
1.518726
1.475811
1.259446
1.338720
1.404881
1.647472
1.779795
1.704693
1.892447
1.868606
2.173781
2.137423
2.243519
3.918409
12.542605
55.336952
125.707984
281.739831
455.519557
761.091709
992.316008
1015.712619
1015.712619
1015.712619
1015.712619
1015.712619
891.357660
714.041591
480.747819
326.943994
151.802897
83.433986
72.760582
99.639893
124.546885
151.171684
166.579485
169.850588
166.606903
150.289536
130.364895
108.465552
81.565976
63.820481
47.510862
38.072467
31.677485
30.961633
29.049516
29.061437
29.216409
29.373765
29.831529
27.475953
27.926564
27.315617
26.913881
26.870966
25.472641
25.665760
24.971962
24.589896
24.703741
23.975968
23.827553
23.470521
23.579597
22.322536
21.578670
19.552708
18.853545
18.322468
17.122626
16.222000
15.458465
14.479756
13.454556
13.553500
13.208985
12.239814
11.367798
11.465549
10.735989
10.555983
10.090470
9.843707
9.817481
9.692907
9.772778
9.606481
8.656979
8.772612
8.692741
8.074641
8.896589
8.547902
8.135438
7.947683
7.856488
7.871985
7.693768
8.190870
7.148981
7.408857
7.131696
7.111430
7.117987
6.593466
##ZVALUE=285
1.184940
1.048446
1.150966
1.134872
0.895858
1.260638
1.178980
1.230836
1.162887
1.182556
1.162887
1.432896
1.234412
1.311898
1.338720
1.341701
1.529455
1.530647
1.692772
1.598597
1.835823
2.095699
2.070665
2.405643
5.418658
27.798414
68.796873
179.843903
313.811898
566.139817
790.989995
1015.712023
1015.712023
1015.712023
1015.712023
1015.712023
859.783888
512.121916
312.465429
143.836737
79.353452
45.569539
47.421455
65.568686
85.649490
116.262436
136.798620
155.146718
161.895752
158.307552
148.290992
122.431517
101.861954
76.352954
59.668422
41.363835
33.769608
27.438998
25.720000
24.010539
23.611784
23.348927
23.866892
23.541451
23.289919
23.982525
22.689700
23.110509
21.820664
21.808743
22.073984
21.673441
21.295547
20.077825
20.591617
19.274950
18.535852
17.456412
16.578436
15.942454
15.609860
14.367700
13.769865
13.633966
13.143420
12.179613
11.741519
11.208653
11.050701
10.056496
9.978414
9.451509
8.878708
8.534789
8.547902
8.071661
8.120537
7.618666
7.837415
7.441640
7.729530
7.655621
7.347465
6.965995
7.197857
7.190704
7.035732
6.911755
6.688833
6.460547
6.265640
6.109476
6.317496
5.984902
5.531907
5.536675
##ZVALUE=290
0.909567
1.087785
1.239777
1.146793
1.116991
0.953674
1.150966
1.252890
1.045465
1.133680
1.267791
1.230836
1.206994
1.269579
1.221895
1.321435
1.344681
1.590848
1.493692
1.544952
1.463890
1.697540
1.823902
1.862645
2.094507
2.072453
3.164411
9.611845
44.200420
101.698637
241.361856
407.772660
698.118806
941.827893
1015.712023
1015.712023
1015.712023
1015.712023
987.654924
757.026672
440.918803
259.447694
106.186867
52.458644
33.197403
38.743615
57.670474
76.441765
105.733871
126.304626
143.335462
152.746439
149.527788
138.311982
116.514564
94.778538
68.268776
52.870512
37.070513
29.840469
22.557974
20.833611
19.315481
18.993616
18.690825
18.805861
18.193722
18.166900
17.974973
18.377900
17.687678
18.008947
17.339587
17.390847
17.113686
15.657544
15.597939
15.146732
14.343858
13.739467
13.073683
12.997985
12.120605
11.814833
11.235476
10.566711
10.274649
9.923577
9.741783
9.613633
8.738637
8.778572
8.584857
8.204579
8.062720
7.639527
7.511973
7.673502
7.453561
6.989837
6.957650
7.080436
6.833673
6.844997
6.559491
6.555915
6.205440
6.650686
6.752610
6.092787
6.189942
6.109476
5.943775
5.815625
5.811453
5.556941
##ZVALUE=295
1.074672
0.876784
1.058578
0.952482
0.882745
1.030564
1.022816
0.890493
1.062751
1.137853
1.129508
1.110435
1.118779
1.110435
1.164675
1.166463
1.267791
1.308918
1.326799
1.407862
1.482964
1.408458
1.520514
1.589656
1.700521
1.644492
1.860857
2.004504
2.381802
4.042387
21.084547
57.983398
162.137747
303.092003
572.113991
796.010494
1015.712023
1015.712023
1015.712023
1015.712023
1015.712023
874.914527
561.559796
356.936455
162.363648
75.983405
29.950738
23.981929
33.762455
48.264861
71.704984
90.923905
117.142797
130.716562
141.505599
139.276981
124.782920
109.880567
85.409880
67.392588
45.634508
33.073425
22.543669
17.779469
14.717579
13.870597
13.590455
12.946725
13.356805
12.689829
13.288856
12.900829
13.242960
13.280511
12.647510
12.326837
12.023449
11.682510
11.067986
10.591745
9.958744
9.752512
9.534955
9.524822
8.595586
8.643866
8.623600
8.456707
8.109808
7.951856
7.607937
7.416606
6.797910
7.196665
6.852746
6.532669
6.886721
6.716847
6.403923
6.373525
6.248951
6.750822
6.251931
6.204844
6.326437
6.303787
6.191730
6.237626
6.182790
6.142855
5.883574
5.687475
5.652905
5.462766
5.481839
4.938841
##ZVALUE=300
0.987649
0.837445
0.966787
0.978708
1.032948
1.153946
0.965595
1.021624
1.057982
0.981688
0.946522
0.879765
1.004934
0.894666
1.129508
1.205802
1.223683
1.208782
1.102686
1.187921
1.316667
1.375675
1.312494
1.478791
1.569986
1.581907
1.517534
1.677871
1.839995
1.969934
2.253652
2.543926
9.792447
35.137534
115.431547
224.029422
452.614427
670.948625
955.089927
1015.712023
1015.712023
1015.712023
1015.712023
929.160714
653.377771
440.062881
231.767893
127.863884
46.198964
21.748543
20.421743
27.894974
44.328570
60.287714
85.676908
105.492473
124.123693
132.035613
129.280686
120.388865
101.310611
83.080530
60.450435
44.418573
28.399825
19.953847
13.349652
11.226535
9.835958
9.321570
9.668469
9.885430
9.688735
9.593964
9.452701
9.291768
9.344816
8.682609
8.311868
8.205771
8.431673
7.947683
7.545948
7.572770
7.498860
7.367730
7.138848
6.867647
6.766915
6.639957
6.400943
6.614923
6.016493
6.128550
6.312728
6.291866
6.156564
5.762577
6.183982
6.084442
5.592704
5.760789
5.721450
5.804896
5.974770
5.630851
5.860925
5.749464
5.534887
5.626678
5.781651
5.714893
5.342960
5.389452
5.128980
5.211830
##ZVALUE=305
0.962615
0.838637
0.852942
0.869632
0.853539
0.938773
0.847578
0.959635
1.115799
0.884533
0.967979
0.785589
0.994802
1.029968
1.088977
1.094937
1.012683
1.004934
1.165867
1.251698
1.085997
1.073480
1.342893
1.408458
1.248717
1.362562
1.407862
1.723766
1.543760
1.521707
1.819730
2.027750
2.192855
2.318621
5.203485
18.687844
75.251460
162.674785
355.744958
550.209880
840.140581
1013.162732
1015.712023
1015.712023
1015.712023
919.757485
647.776723
448.397994
236.195922
129.299760
52.500963
24.834871
14.460683
17.013550
27.077794
38.594604
60.601830
77.411532
100.190639
112.800598
124.113560
123.665929
111.424923
97.702742
76.012611
58.277845
38.370490
26.739836
16.134977
11.998415
9.215474
8.300543
7.892847
7.527471
7.521510
7.430911
7.270575
6.989837
6.632805
6.781816
6.953478
6.783605
6.686449
6.405711
6.670952
6.189942
6.119609
5.947948
6.111860
5.678535
5.750656
5.912781
5.666614
5.335808
5.528927
5.546808
5.452633
5.561709
5.464554
5.450845
5.182624
5.643964
5.519986
5.506873
5.605817
5.447865
5.519986
5.220771
5.061626
5.228519
5.540848
4.805923
4.920959
4.697442
4.882812
4.738569
##ZVALUE=310
0.909567
1.006722
0.839829
0.897646
0.759959
0.913739
0.968575
0.795722
0.971556
0.866652
0.912547
0.874996
0.840425
0.984669
0.921488
1.019835
1.119971
0.986457
1.136661
1.109838
1.123548
0.988841
1.154542
1.004934
1.327991
1.095533
1.389980
1.302958
1.214743
1.336932
1.320839
1.581907
1.547933
1.552701
2.153516
1.995564
2.769828
8.003712
40.335655
96.337795
236.395001
401.178002
679.193735
894.789696
1015.712023
1015.712023
1015.712023
996.305943
752.295852
552.378893
315.294862
187.952518
81.111789
39.797425
15.368462
12.259483
16.122460
22.511482
35.168529
48.772693
70.507526
88.166595
105.216503
113.067627
116.339922
108.922720
93.372464
76.462626
52.934885
37.588477
23.690462
16.718507
11.061430
8.767843
7.121563
6.431937
6.242990
5.943775
5.856752
5.732775
5.890727
5.662441
5.416870
5.774498
5.486608
5.395412
5.644560
5.365610
5.394816
4.941821
5.242825
4.962683
5.085468
4.942417
4.952550
4.722476
5.051494
4.748702
4.981756
4.949570
5.023479
4.813671
4.858971
4.927516
5.009770
4.746914
4.860759
4.997849
4.752874
4.759431
4.742742
4.965663
4.740953
4.586577
4.661679
4.340410
##ZVALUE=315
0.791550
0.817776
0.687838
0.913739
0.832677
0.946522
0.834465
0.891685
1.046658
0.887513
0.880957
0.884533
0.955462
0.888705
0.990629
0.849962
0.874996
1.008511
1.005530
1.116991
1.084805
0.957847
1.034737
1.144409
1.130700
0.871420
1.045465
1.260638
1.141429
1.166463
1.334548
1.460910
1.522899
1.402497
1.694560
1.770854
1.745820
2.078414
2.442598
3.593564
19.303560
54.374933
156.806707
284.051895
543.882847
777.784586
1015.712023
1015.712023
1015.712023
1015.712023
895.806551
684.257746
408.404469
250.245929
114.239454
54.161549
17.956495
10.728836
10.844469
13.454556
20.814538
30.771494
47.775507
62.401891
83.401799
96.583962
107.962489
109.931827
100.893974
87.410808
67.745447
52.154660
35.282969
24.484992
15.426874
10.688901
7.100701
5.817413
5.343556
5.063415
4.678965
4.742742
4.847646
4.899502
4.709959
4.729629
4.956722
4.969835
4.845858
5.033612
4.603863
4.604459
4.882812
4.603863
4.499555
4.461408
4.573464
4.551411
4.663467
4.380941
4.630685
4.222989
4.609823
4.509687
4.521608
4.702806
4.639626
4.618764
4.456639
4.587770
4.635453
4.455447
4.478693
4.174709
4.196763
3.845692
##ZVALUE=320
0.778437
0.717640
0.688434
0.801682
0.763535
0.891685
0.882745
0.840425
0.939965
0.939965
0.858903
0.857711
0.879765
0.947714
0.938773
1.029968
0.829697
0.847578
0.819564
0.869632
0.900626
0.852942
0.930429
0.854731
0.977516
1.110435
1.204610
1.063943
1.270771
1.237988
1.390576
1.188517
1.387596
1.320839
1.354814
1.392961
1.582503
1.661777
1.709461
1.899600
2.004504
2.392530
8.750558
28.834939
101.507902
204.913020
405.394435
612.152815
902.947783
1015.712619
1015.712619
1015.712619
1006.569862
826.856494
542.303920
346.312523
155.902505
79.744458
29.916763
14.032722
9.162426
9.248853
12.396574
17.351508
28.415918
39.886832
58.846474
74.761510
92.942715
100.319982
101.773739
94.825625
82.184672
68.111420
48.345923
35.282969
20.538568
13.730526
8.444786
6.335974
5.291700
4.795790
4.378557
4.435778
3.983974
4.364848
4.142523
4.271865
3.899932
4.157424
3.966689
4.160404
4.222989
4.031658
4.075766
3.954768
3.991723
4.063845
4.084706
4.093647
4.021525
4.104972
4.198551
4.058480
4.007816
3.946424
4.424453
4.196763
4.127622
4.163980
3.945827
4.127622
3.877878
3.759861
3.742576
3.753901
##ZVALUE=325
0.744462
0.901818
0.669956
0.744462
0.847578
0.801682
0.691414
0.751615
0.962615
0.828505
0.746846
0.775456
0.837445
0.968575
0.923872
0.891685
0.924468
0.807643
0.971556
0.909567
0.902414
0.906587
0.909567
0.903606
1.053810
0.987649
1.084805
0.981688
0.964999
1.144409
1.164675
1.078844
1.150966
1.221895
1.311898
1.263618
1.323819
1.467466
1.687407
1.499653
1.617670
1.916885
2.026558
2.209544
3.981590
22.274852
62.813759
171.030760
306.422710
548.979640
752.248764
996.314883
1015.712023
1015.712023
1015.712023
859.730840
649.365783
388.246775
233.417749
103.768706
47.251582
15.150905
8.771420
8.070469
8.353591
11.528730
16.601682
27.567744
39.981604
57.787895
70.950985
86.433887
94.077587
95.308423
89.586973
74.109435
61.047673
43.621659
31.415820
19.435883
12.957454
7.378459
5.872846
4.508495
4.346967
4.256964
4.039407
3.894567
3.743768
3.581643
3.338456
3.656745
3.714561
3.636479
3.570914
3.741980
3.580451
3.900528
3.925562
3.822446
3.980994
3.822446
3.785491
3.886819
3.922582
3.887415
3.761649
3.981590
3.668666
3.642440
3.662705
3.735423
3.385544
3.364682
3.631711
3.411770
##ZVALUE=330
0.787973
0.748634
0.551939
0.766516
0.789762
0.829697
0.793934
0.891685
0.884533
0.912547
0.877976
0.708699
0.650883
0.818968
0.818968
0.932813
0.877976
0.895858
0.921488
0.881553
0.989437
0.880957
0.869632
0.836849
0.973940
0.961423
0.912547
0.923872
0.966787
1.086593
1.190901
1.159906
1.039505
1.139641
1.256466
1.280904
1.264811
1.379848
1.264811
1.280904
1.382828
1.602769
1.790524
1.757741
1.955628
2.112985
2.975464
8.199811
40.524602
99.624991
245.702863
411.476493
687.362552
889.156461
1015.712023
1015.712023
1015.712023
989.614725
746.488571
544.294715
302.051902
166.463852
62.954426
27.490854
10.347962
7.634759
7.052422
7.659793
11.176467
15.968680
26.896000
37.319660
53.484440
66.179633
80.631971
87.562799
88.461637
84.392428
69.308877
57.040453
39.337873
29.045939
18.557906
13.137460
7.901788
5.913973
4.580617
4.095435
3.554821
3.660917
3.556609
3.592968
3.476739
3.433824
3.386736
3.472567
3.833771
3.482699
3.391504
3.494620
3.508925
3.496408
3.628731
3.621578
3.503561
3.405809
3.637671
3.462434
3.737807
3.756881
3.649592
3.759861
3.515482
3.444552
3.287792
3.204942
##ZVALUE=335
0.789762
0.696778
0.702739
0.704527
0.852942
0.846982
0.700951
0.841618
0.709891
0.907779
0.802875
0.695586
0.765920
0.779629
0.797510
0.783801
0.845790
0.807643
0.874996
0.901818
0.789762
0.786781
0.779629
0.838637
0.899434
1.032948
0.880957
0.945926
0.819564
0.926852
1.000762
0.898838
0.953674
1.064539
1.097918
1.012683
1.247525
1.164675
1.305938
1.118779
1.036525
1.468658
1.460910
1.623631
1.677871
1.730919
1.854897
2.218485
2.268553
3.620982
19.268990
57.197809
169.056654
319.230556
605.916977
840.923786
1015.712619
1015.712619
1015.712619
1015.712619
914.898515
693.947673
409.508944
245.091915
101.326704
45.492649
14.366508
7.615685
6.646514
6.833673
7.793903
9.743571
16.237497
23.250580
35.278797
46.504736
63.426495
74.264407
81.294775
82.595944
76.201558
66.804886
53.214431
41.906834
28.026700
20.021796
12.330413
8.390546
5.744696
4.589558
4.113913
3.530979
3.432631
3.343821
3.549457
3.417730
3.377795
3.337860
3.317595
3.451705
3.477931
3.364682
3.421903
3.378987
3.706813
3.719926
3.524423
3.658533
3.509521
3.622770
3.534555
3.458858
3.292561
3.222823
3.233552
3.334880
##ZVALUE=340
0.707507
0.797510
0.785589
0.683665
0.708699
0.777841
0.836849
0.859499
0.703931
0.738502
0.797510
0.806451
0.816584
0.844598
0.777841
0.833869
0.831485
0.848770
0.774860
0.706911
0.962615
0.886917
0.912547
0.941753
0.825524
0.866652
1.001954
0.905991
1.004934
1.006722
0.879765
0.950694
0.911951
0.996590
1.005530
1.128912
1.101494
1.200438
1.069903
1.096725
1.167655
1.070499
1.450777
1.269579
1.496673
1.461506
1.532435
1.552701
1.706481
1.804829
2.072453
2.618432
11.413693
36.705732
119.300485
246.096849
531.939864
787.442923
1015.712023
1015.712023
1015.712023
1015.712023
1015.712023
912.044644
562.240481
341.643691
146.125555
65.811872
18.204451
8.983612
6.955862
6.624460
6.665587
7.193685
9.910464
13.734698
22.736788
32.769442
48.096776
58.767796
70.679784
75.095892
77.070594
72.890520
62.632561
53.258538
38.414598
29.111505
18.663406
12.710690
8.180737
5.497932
4.413724
3.955960
3.398657
3.277659
3.384948
3.384948
3.578663
3.511906
3.447533
3.352761
3.455877
3.436804
3.472567
3.512502
3.553629
3.424883
3.541708
3.617406
3.461838
3.470778
3.387928
3.448725
3.407598
3.214478
##ZVALUE=345
0.686646
0.800490
0.739694
0.816584
0.906587
0.762939
0.787973
0.865459
0.757575
0.847578
0.689626
0.851750
0.765920
0.777841
0.855923
0.707507
0.791550
0.789762
0.772476
0.826716
0.892878
0.921488
0.957847
0.754595
0.898838
0.922680
0.936985
0.831485
0.721812
0.786781
0.804663
0.757575
0.896454
0.774860
0.890493
1.070499
1.040697
1.087785
1.219511
1.092553
1.099706
1.153946
1.071692
1.209974
1.083612
1.334548
1.265407
1.348853
1.341701
1.481771
1.595616
1.746416
1.860857
2.169609
5.439520
21.998882
87.198615
174.640417
372.136831
588.237643
939.321518
1015.712619
1015.712619
1015.712619
1015.712619
1015.712619
775.924921
505.642891
225.686431
102.701783
29.873848
12.528896
7.287860
6.731749
6.101727
6.066561
6.649494
8.506775
13.093948
19.236803
30.556917
40.593743
53.254962
61.448812
69.858432
70.850849
67.289472
60.309768
49.165487
39.044619
26.504993
19.353628
12.163520
8.328557
5.752444
4.405975
3.769994
3.475547
3.263950
3.381968
3.448725
3.301501
3.225803
3.250837
3.488660
3.258586
3.454685
3.300905
3.357530
3.507733
3.312826
3.489852
3.482699
3.334880
3.138781
3.259778
##ZVALUE=350
0.795722
0.879765
0.867844
0.725985
0.911951
0.906587
0.754595
0.756979
0.880957
0.828505
0.764728
0.767708
0.806451
0.715852
0.685453
0.867844
0.913739
0.838637
0.795722
0.960827
0.786781
0.842810
0.857711
0.863671
0.891685
0.926852
0.910759
1.033545
0.811815
0.689626
0.918508
0.922680
0.943542
0.909567
0.912547
0.960827
0.974536
0.984669
0.860691
1.028776
1.049638
1.054406
1.215935
1.235604
1.154542
1.061559
1.331568
1.358986
1.420975
1.475811
1.411438
1.286864
1.419783
1.655817
1.844764
2.143979
3.586411
12.382865
56.642890
123.631954
274.602771
448.914766
737.368464
957.911015
1015.712619
1015.712619
1015.712619
1015.712619
855.529904
582.618713
296.239853
159.210563
57.412982
20.895600
7.333755
6.393790
5.560517
5.318522
5.460978
5.691648
7.977486
11.241436
17.969608
24.984479
36.396980
45.002699
56.017637
61.939955
65.225959
62.732697
56.253672
47.751665
36.158562
27.714968
18.231869
13.082623
8.496642
6.083846
4.366636
3.814697
3.710985
3.504753
3.318787
3.138781
2.928972
3.086925
3.304482
2.983809
3.238916
3.189445
3.018975
3.254414
3.339648
3.219843
3.084540
3.232956
##ZVALUE=355
0.808835
0.695586
0.850558
0.714660
0.772476
0.728965
0.727773
0.672936
0.682473
0.646710
0.779629
0.819564
0.849962
0.794530
0.837445
0.743866
0.749826
0.758767
0.780821
0.850558
0.733733
0.746846
0.748634
0.867844
0.944734
0.817776
0.952482
1.011491
0.923872
0.778437
0.862479
0.751615
0.923872
0.856519
0.918508
0.857711
1.034737
1.004934
1.086593
0.971556
1.020432
1.064539
0.980496
1.127720
1.111627
1.074672
1.196861
1.201630
1.234412
1.155734
1.234412
1.426935
1.434684
1.509786
1.540780
1.514554
1.892447
2.109408
2.304912
5.121827
31.567812
87.240934
219.600797
359.650850
601.126552
809.130669
1015.712619
1015.712619
1015.712619
1015.712619
924.135447
702.315569
407.274961
227.034688
84.571838
32.860637
8.441806
6.238818
5.469918
5.157590
4.780889
4.777908
5.233884
6.622672
10.010600
14.451742
22.491813
30.314922
41.051507
48.950911
56.424737
58.652759
57.366490
52.746534
43.564439
35.923719
26.229620
19.414425
12.995601
9.260774
5.905628
4.647970
3.681779
3.451705
3.435612
3.357530
3.017783
3.091693
3.038645
3.006458
2.931952
3.101826
3.009439
2.744794
3.000498
2.867579
##ZVALUE=360
0.801682
0.734925
0.695586
0.533462
0.998974
0.848770
0.691414
0.730753
0.816584
0.780821
0.809431
0.752807
0.871420
0.645518
0.786781
0.744462
0.669956
0.735521
0.634789
0.736713
0.851750
0.862479
0.849962
0.780821
0.677705
0.869632
0.908971
0.842810
0.756979
0.857711
1.027584
1.024604
0.840425
0.970960
0.991821
1.118779
0.944734
0.897646
0.988841
1.041889
0.889897
1.021624
0.897646
1.157522
1.083612
1.006722
1.129508
1.132488
1.226664
1.082420
1.428723
1.469851
1.438856
1.408458
1.516938
1.360774
1.522899
1.601577
1.852512
1.910925
2.060533
2.871752
13.347864
44.145584
142.293572
264.458656
489.020944
692.906976
955.218673
1015.712023
1015.712023
1015.712023
930.729508
742.437840
478.768945
297.052860
127.478838
53.674579
13.361573
6.644726
5.347729
5.120635
4.965663
4.482865
4.436970
4.687905
6.121993
7.756948
12.215972
17.083883
25.873780
33.523440
43.296814
49.285889
52.581429
52.983761
49.330592
44.175982
35.834908
29.275417
20.428896
14.798641
9.151697
6.790757
4.663467
3.806949
3.403425
3.066659
3.060699
3.006458
2.893806
2.786517
2.810955
2.836585
2.788901
2.706647
##ZVALUE=365
0.866652
0.798702
0.868440
0.654459
0.636578
0.654459
0.770688
0.645518
0.705719
0.702739
0.724792
0.817776
0.700951
0.787973
0.740886
0.711679
0.826716
0.801682
0.764728
0.764728
0.726581
0.835657
0.663996
0.880957
0.917912
0.929832
0.859499
0.790954
0.922680
0.709891
0.754595
0.934601
1.015663
1.052618
0.798702
0.933409
0.988841
0.987649
0.933409
0.825524
0.981688
0.891685
0.903606
0.826716
1.014471
1.039505
0.912547
0.932813
0.985861
1.167655
1.079440
1.331568
1.211762
1.193881
1.257658
1.349449
1.269579
1.486540
1.484752
1.392961
1.539588
1.740456
2.084970
2.253652
6.712675
24.364591
91.948509
191.864967
410.286784
608.769655
859.803557
989.537835
1015.712619
1015.712619
896.455646
738.233924
499.908924
322.531462
150.898695
73.834658
20.193458
8.279681
5.155802
5.026460
4.535913
4.253983
4.077554
3.970861
4.122853
4.706979
6.686449
9.718537
15.119910
20.687580
29.993653
36.077499
43.764710
48.153996
49.265623
47.151446
41.614771
36.029816
27.794838
21.296740
14.616847
10.436773
6.893873
4.667640
3.690720
3.351569
3.002882
2.745986
2.654791
2.382994
2.730489
2.564788
##ZVALUE=370
0.699759
0.734925
0.782609
0.805855
0.715852
0.601411
0.674725
0.881553
0.738502
0.709891
0.622869
0.975728
0.800490
0.762939
0.682473
0.810623
0.774860
0.681877
0.579953
0.837445
0.780821
0.823736
0.805855
0.852942
0.621676
0.897646
0.838637
0.923872
0.794530
0.898838
0.682473
0.748634
0.806451
0.863671
0.842810
0.957847
0.881553
0.897646
0.917912
0.966787
0.917912
0.925660
0.816584
0.822544
1.033545
0.846982
0.981688
0.956655
1.067519
0.998974
1.053810
1.106858
1.133680
1.140833
1.225471
1.330972
1.250505
1.174808
1.100898
1.372695
1.323819
1.457930
1.496673
1.872778
1.972914
1.959801
3.534555
14.192462
71.011782
163.450837
360.448956
542.663932
800.259709
970.915556
1015.712619
1015.712619
902.618766
728.150606
488.670468
327.949524
167.289972
88.614821
33.010840
13.037920
5.293489
4.725456
4.385710
4.237890
3.906488
3.569722
3.432631
3.390908
4.245639
5.667806
8.419752
12.147427
18.720627
24.818778
32.913685
38.880706
44.248700
46.379566
44.822693
41.182637
35.162568
28.705597
21.166801
14.798641
10.626912
7.213950
5.495548
3.986955
3.414750
2.741814
2.620816
2.698898
##ZVALUE=375
0.731945
0.715852
0.710487
0.588894
0.755787
0.774860
0.705719
0.733733
0.642538
0.793934
0.762939
0.688434
0.713468
0.695586
0.650883
0.757575
0.811815
0.799894
0.679493
0.778437
0.697970
0.803471
0.772476
0.827909
0.790954
0.687838
0.784993
0.782609
0.803471
0.727773
0.852942
0.919700
0.748634
0.835657
0.798702
0.796914
0.735521
0.746846
0.853539
0.851750
0.809431
0.804663
0.926852
0.943542
0.920892
0.805855
0.818968
0.909567
0.921488
0.960827
1.010895
1.001954
0.971556
1.060963
1.039505
1.162887
1.063943
1.115799
1.035929
1.168847
1.193881
1.284480
1.473427
1.485944
1.451969
1.583695
1.791716
1.892447
2.531409
5.666614
29.918551
85.344911
241.352916
420.150757
703.555942
919.065475
1015.712619
1015.712619
1005.344987
844.040513
572.358966
394.348502
216.776729
122.891665
48.878789
20.831823
7.024407
4.501939
4.279613
3.957748
3.811717
3.600717
3.349781
3.441572
3.494620
3.566742
5.132556
6.722808
10.134578
14.018416
21.549463
28.133988
36.282539
40.886998
44.100881
43.767691
40.329695
34.387708
29.825568
24.409890
17.066598
12.851954
8.572936
6.389618
4.374981
3.327727
##ZVALUE=380
0.717640
0.902414
0.742674
0.583529
0.723600
0.652671
0.651479
0.647902
0.733733
0.599623
0.652671
0.634789
0.668764
0.749826
0.672936
0.697970
0.712872
0.720620
0.716448
0.804663
0.605583
0.661612
0.793934
0.684857
0.780821
0.669956
0.792742
0.758767
0.786781
0.840425
0.608563
0.723600
0.733733
0.818968
0.977516
0.884533
0.968575
0.944734
0.858903
0.882745
0.875592
0.940561
0.836849
1.045465
1.071692
0.942945
0.990629
0.963807
0.959635
0.903606
1.036525
1.110435
0.986457
0.942945
1.012683
1.043677
1.173615
1.174808
1.083612
1.031756
0.971556
1.090765
1.244545
1.341701
1.299977
1.518726
1.527667
1.714826
1.944900
2.111793
2.472997
3.613830
15.981793
51.845908
175.385475
341.746807
667.547584
929.223895
1015.712619
1015.712619
1015.712619
975.455642
691.632628
491.070747
274.787545
158.003569
64.650774
29.687881
9.468794
5.276799
4.245639
4.050732
3.783703
3.713965
3.634691
3.473759
3.225803
3.279448
3.402829
4.275441
6.292462
8.929968
13.329983
18.516779
25.845766
33.319592
37.797689
40.897727
41.605830
39.349794
35.896897
29.691458
24.637580
17.836690
13.326406
8.679628
##ZVALUE=385
0.702739
0.813603
0.556707
0.684857
0.577569
0.699759
0.654459
0.608563
0.754595
0.651479
0.729561
0.742674
0.537634
0.688434
0.604987
0.621676
0.716448
0.621676
0.730753
0.667572
0.843406
0.740886
0.740886
0.704527
0.717640
0.747442
0.867844
0.646710
0.850558
0.739694
0.786781
0.720620
0.865459
0.850558
0.855923
0.702739
0.913739
0.987649
1.037717
0.990629
0.827909
0.969768
1.045465
1.043677
1.055598
1.031756
1.065731
1.022816
0.939965
0.971556
1.061559
0.989437
0.935793
1.131892
0.975728
0.945926
0.940561
1.159906
1.131892
1.154542
1.193881
0.935793
1.260638
1.204610
1.047850
1.357794
1.347661
1.492500
1.659989
1.710653
1.861453
2.180934
2.283454
2.356768
6.957650
24.853945
105.455518
245.347023
538.770556
815.798640
1015.712023
1015.712023
1015.712023
1015.712023
895.230770
659.817457
385.551453
233.654976
102.517009
48.968792
16.330481
6.899834
4.457831
3.895760
4.064441
3.775954
3.671646
3.623962
3.556609
3.229976
3.304482
3.281832
3.977418
4.889965
7.563829
10.917783
15.958548
22.470951
27.342439
32.829642
36.086440
38.147569
37.206411
34.034848
29.928684
23.981929
##ZVALUE=390
0.768900
0.605583
0.647902
0.617504
0.724792
0.690818
0.646710
0.806451
0.671744
0.690818
0.646710
0.834465
0.767708
0.782609
0.687838
0.592470
0.660419
0.668764
0.681877
0.685453
0.569820
0.624657
0.663996
0.656843
0.704527
0.754595
0.700951
0.756979
0.714660
0.829697
0.869632
0.873804
0.882745
0.876784
0.884533
0.995994
0.892878
1.017451
0.962615
1.095533
1.004934
1.108646
1.130700
0.978708
1.117587
1.042485
1.106858
1.221895
1.232624
1.146793
1.135468
1.148582
1.118779
1.088977
0.987649
1.091957
1.203418
1.085997
0.937581
1.224875
1.234412
1.267791
1.156926
1.225471
1.408458
1.246929
1.299977
1.513958
1.697540
1.862645
1.892447
1.936555
2.048612
2.060533
2.137423
2.278686
4.416704
16.902685
84.286928
204.424858
484.723449
783.672929
1015.712023
1015.712023
1015.712023
1015.712023
1015.712023
907.351971
554.425716
343.760848
151.661634
74.549913
25.344491
10.210872
4.912615
4.439950
4.202724
4.029870
3.808737
3.935695
3.795624
3.646612
3.388524
3.377795
3.335476
3.485680
4.625916
6.634593
8.869767
13.636947
17.701983
23.656487
28.687716
33.855438
35.915971
35.927892
##ZVALUE=395
0.737906
0.634789
0.675917
0.721812
0.662804
0.745654
0.583529
0.623465
0.494719
0.632405
0.657439
0.660419
0.799894
0.613928
0.576973
0.770688
0.722408
0.618696
0.814795
0.651479
0.690818
0.570416
0.759959
0.648499
0.785589
0.781417
0.857711
0.837445
0.828505
0.849962
0.798702
0.899434
0.809431
0.916719
0.868440
0.970960
1.056790
1.104474
1.159906
1.048446
1.352429
1.215935
1.039505
1.132488
1.177788
1.231432
1.116991
1.163483
1.079440
1.278520
1.198649
1.184940
1.137853
1.218915
1.004934
1.047850
0.930429
1.110435
1.101494
1.230836
1.108646
1.207590
1.093745
1.355410
1.430511
1.418591
1.483560
1.528859
1.886487
1.750588
1.921654
2.002716
2.117753
2.083778
2.048612
2.106428
2.285838
2.568960
3.575683
9.688735
51.139593
144.975781
400.394797
690.139532
1015.712619
1015.712619
1015.712619
1015.712619
1015.712619
1015.712619
754.790902
472.816825
221.048594
112.192631
41.919947
18.384457
6.715655
4.803538
4.148483
4.169941
4.105568
4.204512
4.067421
3.928542
3.711581
3.595948
3.437996
3.241897
3.362894
4.312992
5.377531
7.978678
10.779500
16.006827
20.322800
26.566982
##ZVALUE=400
0.918508
0.973940
0.769496
0.811815
0.758767
0.599623
0.586510
0.809431
0.738502
0.650883
0.700951
0.605583
0.732541
0.698566
0.688434
0.738502
0.797510
0.650883
0.705719
0.754595
0.697970
0.860691
0.848770
0.789762
0.798702
0.938773
0.708699
0.694990
0.664592
0.934601
0.946522
0.807643
0.933409
0.904799
0.878572
1.029968
0.832677
1.034737
1.042485
1.086593
1.174808
1.064539
1.234412
1.047850
1.104474
1.122952
1.140833
1.097918
1.234412
1.151562
1.105666
1.080632
1.253486
1.310706
1.178980
1.124740
1.034737
1.161695
1.178980
1.202822
1.291633
1.250505
1.146793
1.356602
1.170635
1.291633
1.491904
1.607537
1.691580
1.939535
2.111793
1.864433
1.966953
1.924634
1.954436
1.789927
1.940727
2.170801
2.358556
2.512932
2.909899
4.940629
24.803877
75.433850
255.693793
507.740974
964.250565
1015.712023
1015.712023
1015.712023
1015.712023
1015.712023
966.959000
660.418868
348.786712
191.475749
74.097514
32.229424
9.837747
5.527735
4.347563
4.345775
4.191995
4.365444
4.239678
4.052520
4.137754
3.649592
3.430843
3.051758
3.203750
3.110766
3.527999
4.946589
6.625652
9.676814
##END
