##TITLE=13-1
##FORMAT=SPECTACLE-ASCII V-1.2
##DATA TYPE=ULTRAVIOLET SPECTRUM
##SECOND TYPE=ULTRAVIOLET SPECTRUM
##DATE=04/11/18
##TIME=10:46:42
##SPECTROMETER/DATA SYSTEM=SPECTACLE
##XUNITS=NM EM
##YUNITS=ENERGY
##YFACTOR=1
##FIRSTX=220
##LASTX=450
##NPOINTS=116
##3DDATA=Equidistant
##ZUNITS=NM EX
##FIRSTZ=210
##LASTZ=400
##ZPOINTS=39
##XYDATA=(Y..Y)
##ZVALUE=210
15.191436
16.369820
13.620853
11.243820
10.357499
10.074973
9.802580
7.743835
7.790923
5.536675
4.052520
3.509521
2.800822
2.739429
2.121925
2.514720
2.845526
3.056526
2.039671
2.781749
3.050566
2.905726
3.000498
3.089905
3.453493
3.868937
3.629923
3.778934
4.008412
4.235506
4.776716
4.788637
4.378557
5.002618
5.127788
5.579591
5.555749
5.344748
6.647706
5.859733
6.267428
6.332994
5.784631
6.152987
7.315874
5.960464
6.720424
6.341934
7.334948
6.353855
7.199645
7.456541
7.961988
6.249547
6.622672
7.840991
7.589459
8.297563
7.144809
6.705523
7.276535
5.942583
6.210804
6.775856
7.320642
7.288456
7.764697
7.609725
7.728934
8.453727
9.205937
11.252761
12.368560
13.283491
12.992620
14.585853
12.957454
14.115572
13.128519
12.285709
12.349486
10.782480
9.141564
8.116961
7.925630
7.498860
5.827546
6.199479
5.746484
7.634759
8.739829
11.956692
15.013814
20.449758
24.713874
29.568672
34.824610
36.500692
43.808818
44.126511
49.172640
47.349930
51.101446
46.465993
48.325658
45.544505
38.710833
35.660863
33.350587
27.937889
24.171472
19.737482
16.685724
15.495420
13.916492
12.361407
##ZVALUE=215
38.617849
37.892461
32.048821
22.942424
21.039844
20.099878
16.832948
17.191768
14.515519
13.386607
12.545586
8.597970
7.316470
4.580617
3.991723
3.241897
2.388954
3.131628
2.505779
3.545880
3.340840
3.089905
3.659725
4.010797
3.737807
3.973842
3.264546
3.383756
3.879666
4.337430
5.009770
4.952550
5.801916
5.302429
5.795956
6.440878
5.496740
6.735921
6.286502
6.757975
6.749630
6.284714
6.720424
6.438494
6.438494
6.722808
7.829666
6.959438
7.813573
7.714629
8.322597
8.927584
8.341670
9.223819
9.446740
9.015799
8.196831
9.012818
9.005666
8.451939
9.724498
7.827878
8.964539
7.439852
7.713437
6.861687
7.530451
7.630587
8.828640
9.572506
9.767413
10.075569
10.527968
12.430549
12.040734
12.291670
11.164546
11.914968
11.526942
9.580851
10.073781
8.945465
8.512735
6.763935
6.259680
5.999804
5.657673
5.865693
5.056858
5.816817
5.272627
5.050898
5.355477
5.857944
8.196831
11.594892
14.057755
18.526912
24.291873
31.242967
39.640665
45.172572
57.504773
63.097477
66.536665
71.718693
73.149800
72.689652
73.060989
69.386959
61.787963
55.973530
49.681664
46.930909
39.653778
30.917525
##ZVALUE=220
83.641410
82.825422
80.153942
72.756410
60.339570
45.853853
38.352609
29.427409
24.808645
25.086999
26.024580
23.895502
22.513866
18.170476
15.442967
10.882616
6.727576
4.840493
4.742742
3.319979
3.776550
3.432631
3.185868
3.809929
3.356934
3.689528
4.608631
4.187822
4.106760
4.883409
4.666448
5.264878
5.539656
6.200671
6.114841
6.295443
6.716847
7.178783
7.277727
7.102489
7.480979
7.872581
7.983446
8.547902
8.458495
7.912517
9.021759
9.495616
10.180473
10.013580
9.861588
10.909438
10.247827
10.655522
12.090802
11.788607
11.528730
11.216998
12.071729
11.306405
11.371970
10.497570
10.212660
9.910464
10.600686
10.236502
10.008812
10.987520
9.987950
10.347962
10.492802
11.503696
12.011528
13.230443
14.082789
12.135506
12.762547
12.293458
12.895465
10.979772
10.946989
9.506941
10.008812
8.232594
7.915497
6.142855
6.105900
5.915761
6.191730
5.443692
5.482435
5.079508
5.078912
5.494952
5.547404
4.806519
4.613996
5.577803
6.661415
9.326935
11.478662
20.505786
24.755001
35.373569
43.485761
55.180788
64.047575
77.064633
84.436536
97.509623
103.705525
112.265944
112.314820
111.072659
108.525753
98.569989
##ZVALUE=225
107.350945
106.475949
126.409531
135.638714
135.433674
126.887560
111.276507
79.218745
61.673522
46.782494
41.293502
38.589835
41.486621
39.305687
37.729740
31.012893
27.805567
20.800829
15.759468
9.377599
8.114576
5.440712
3.856421
4.033446
3.897548
4.073977
4.331470
5.007982
5.142689
5.228519
5.534887
5.429983
5.856752
6.168485
7.504821
6.946921
8.172989
9.021759
8.271933
7.429719
8.404851
8.058548
8.558631
8.786917
9.766817
9.808540
9.825826
10.799766
10.755658
10.741949
12.383461
14.196634
11.951923
12.195706
12.407899
13.733506
15.323758
14.592409
12.375712
12.566447
13.861656
13.080835
13.426542
12.713671
13.033748
12.031794
11.914968
12.296438
13.157725
12.768507
12.574792
13.270974
14.689565
14.059544
12.110472
13.910532
13.908744
11.289716
11.208653
12.274981
11.301637
9.032488
9.060502
9.876490
7.566810
7.556677
7.329583
6.734729
6.450415
5.467534
5.924702
5.744696
6.577969
5.843639
6.055832
5.628467
5.354881
5.820990
5.923510
5.866885
5.836487
6.381869
6.803870
7.357597
11.160970
16.476512
25.117993
34.931898
48.935413
60.438514
76.323748
96.289515
112.788677
133.494735
148.003697
163.754821
##ZVALUE=230
75.806975
77.705979
122.623444
164.250731
200.887918
238.502622
243.828893
219.615698
192.495584
141.697526
107.592940
75.419545
63.733459
56.920648
57.944655
60.700774
59.467554
58.078766
51.986575
40.296912
28.400421
18.684864
13.099909
8.518696
5.888939
4.454851
4.843473
5.159974
5.669594
5.222559
6.447434
5.779862
5.852580
6.800890
6.184578
7.943511
7.821918
8.066893
8.362532
8.206964
8.372664
9.475946
9.732842
9.370446
9.510517
10.686517
10.207891
10.512471
10.772943
11.597872
12.552738
12.913942
13.521910
14.410615
13.761520
13.267994
13.944507
15.849471
14.292598
14.789701
15.078783
14.903545
14.642477
14.863610
13.827682
13.381839
15.341640
14.839768
14.456511
14.130473
15.572906
13.874769
13.552904
15.237927
15.630722
15.581846
14.858842
14.826655
14.998913
11.892915
11.113882
12.076497
10.372996
8.974671
9.868741
8.676648
8.126497
8.037686
8.511543
8.194447
7.915497
7.364750
7.030964
6.816983
7.116795
8.091927
6.107688
7.649660
6.770492
6.788969
7.377863
7.401705
6.630421
6.184578
6.880760
6.760955
6.457567
8.079410
9.938478
14.190674
18.018484
30.470490
42.520761
65.896511
84.830523
117.840767
##ZVALUE=235
21.289587
23.464561
55.992603
99.169612
152.713656
232.043862
294.466615
352.589488
372.105837
358.944535
314.354897
236.569643
174.799562
122.025609
96.546412
80.946684
81.424713
84.061623
92.592835
88.732839
79.836845
66.049695
53.660870
40.356517
23.678541
16.748905
10.035634
7.485747
6.286502
5.667806
5.727410
6.509423
6.567836
7.523894
6.147623
6.631613
7.022619
8.457899
8.360744
8.567572
9.174943
8.175969
9.557605
9.493828
10.125637
9.902716
10.100603
10.087490
10.763407
10.719895
12.492537
11.534691
12.665987
12.512803
12.439489
13.250709
13.687611
12.988448
13.893843
13.397932
14.491677
12.484789
15.042424
13.094544
14.573932
13.761520
11.952519
14.617443
13.284683
13.646483
16.631484
16.135573
16.455650
18.194914
17.365813
15.968680
17.452836
15.026927
14.610887
14.331937
13.169646
12.746453
11.925697
12.515783
11.347532
10.965466
8.648634
8.897781
9.635687
8.784533
8.213520
8.873940
7.965565
8.211732
7.259846
8.461475
7.540584
7.956624
7.913709
8.589625
7.965565
8.062720
8.085966
7.929802
7.580519
7.492900
7.340908
7.416606
7.677674
8.665919
7.959604
7.866621
8.597970
10.649562
14.759898
25.676489
##ZVALUE=240
2.325773
2.223849
8.096695
22.068620
48.739910
106.726885
168.024898
288.992524
367.307663
466.076732
501.732826
502.450466
448.157787
357.187986
282.746553
182.910562
134.282708
104.914904
96.800923
103.124976
107.170939
114.812851
116.515756
100.047588
81.368685
62.021613
46.227574
32.000542
19.184947
13.222694
8.352995
7.121563
6.232858
7.265806
7.162690
7.402897
7.748604
8.000731
8.607507
7.501841
8.162856
8.795857
8.605719
8.818507
9.004474
8.222461
9.747744
10.665655
9.124875
9.942651
10.724664
11.103749
10.782480
12.484789
11.096597
11.788607
12.354851
11.675954
11.721849
11.711717
12.352467
12.849569
11.937618
12.056828
13.670921
12.564659
11.571646
12.573600
13.891459
13.817549
14.461875
15.467405
16.350746
17.357469
16.743541
17.489791
15.931726
15.009642
13.733506
12.617707
12.993813
12.724996
11.680722
11.044741
11.069775
10.607839
10.237694
8.860826
9.546876
9.566545
8.903742
8.096695
8.684993
8.449554
8.586645
8.222461
9.271502
9.176731
7.833838
7.753968
8.373857
8.490682
8.311868
8.969903
8.987784
8.523464
8.003712
7.745624
8.710623
7.933974
7.049441
7.523894
8.061528
8.103848
7.544756
7.500648
##ZVALUE=245
1.665950
1.572967
1.807809
1.856685
3.623962
12.785792
34.692883
92.297792
165.926814
276.529789
389.270782
510.523915
566.725731
590.756536
558.721423
468.548536
371.114016
258.255005
182.179809
114.259720
99.336505
98.534822
110.006928
122.003555
130.165815
121.232867
108.959675
91.343522
70.613623
53.365827
32.709837
22.305846
12.996793
8.883476
6.413460
7.182956
6.986856
6.992817
7.877946
7.555485
7.767677
7.313490
8.456707
7.688999
7.906556
8.381605
8.513927
9.375811
8.732677
9.236932
9.958744
9.928942
10.250807
9.470582
9.616613
9.600520
9.975433
9.120703
10.966659
10.813475
10.299683
10.305643
10.511875
9.958744
9.926558
10.663867
10.955930
10.537505
11.532903
10.216832
11.255741
12.057424
12.902617
14.472604
13.091564
14.352798
14.107823
13.073683
11.464953
11.157990
11.002421
9.990931
9.905696
9.914637
9.222627
8.533597
8.983612
8.768439
8.327961
8.474588
8.560419
7.313490
7.978678
7.608533
8.481741
7.833838
7.280707
7.754564
7.116795
8.103848
7.640719
7.697940
7.034540
7.722974
6.883740
8.262992
6.613731
7.495880
7.119775
7.187724
7.495880
7.361770
6.657839
7.338524
7.137656
7.013679
##ZVALUE=250
1.438856
1.702905
1.750588
1.507998
1.859665
1.619458
2.244711
8.931756
25.475621
69.328547
132.741928
255.544782
368.833542
520.256758
606.822968
665.444732
652.083755
576.550961
480.933785
334.783792
232.898593
143.113732
104.221702
90.312958
99.430680
117.006898
128.758550
136.573911
131.770968
116.823912
100.219846
73.932409
57.738423
34.187436
22.658706
13.162494
9.588599
8.156896
7.829666
8.037686
8.828640
8.803606
9.114742
8.176565
8.312464
8.700490
9.065866
9.057522
9.282827
9.618998
10.148883
9.138584
9.126663
10.248423
9.252429
10.174513
10.229945
10.064840
9.539723
10.273457
9.070635
9.260774
9.498596
9.465814
8.781552
9.290576
9.784698
8.884668
9.694695
9.949803
10.218620
11.004806
11.130571
11.800528
11.468530
12.131929
11.692643
10.854602
10.248423
9.560585
10.817647
8.682609
8.238554
8.267760
7.465482
7.311702
6.872416
6.980896
6.420612
6.239414
6.476641
7.119775
6.777644
6.360412
6.600618
6.578565
6.559491
6.407499
5.963445
6.449819
5.724430
6.427765
6.318688
5.869865
6.650686
5.597472
6.569624
6.317496
5.895495
6.809831
6.119609
6.449819
6.642938
5.895495
5.782843
6.492734
##ZVALUE=255
1.475811
1.320839
1.427531
1.451969
1.639724
1.387596
1.717806
1.580715
1.988411
4.579425
15.186667
53.091645
106.670856
220.655799
334.756970
499.757528
614.499450
725.903511
749.878883
694.832802
600.251555
445.082784
310.770869
177.433491
119.330883
84.852576
84.773898
105.366707
120.100975
134.601593
140.664577
139.464736
125.979781
106.080770
77.012777
57.072639
36.162734
22.639632
15.071630
11.045933
8.719563
8.498430
8.782744
9.138584
8.780956
9.734631
9.236932
9.354949
10.278821
9.872913
10.644794
9.843707
10.209680
9.705424
9.424686
9.569526
9.784698
9.824634
9.245872
9.290576
9.129643
8.481741
8.775592
9.383559
8.677840
9.099841
8.860826
8.577704
9.023547
8.829832
8.921623
9.712577
9.887815
9.966493
9.134412
9.734631
8.607507
8.782744
8.995533
8.192658
7.326603
7.479787
6.809831
6.543994
5.456805
5.637407
6.032586
6.430745
6.078482
6.025434
5.535483
5.324483
5.325675
5.875826
5.340576
5.373955
5.340576
5.385876
5.450845
5.665421
5.184412
5.458593
5.398989
5.707741
5.102754
5.290508
4.992485
5.562901
5.224943
5.447865
5.623698
5.602837
4.843473
4.869699
5.139709
4.558563
##ZVALUE=260
1.464486
1.402497
0.969768
1.144409
1.378655
1.272559
1.476407
1.524687
1.704693
1.639724
1.820922
2.704859
8.507967
34.628510
74.810982
172.582865
279.151797
458.062887
595.498681
753.085017
820.211768
803.713799
722.233653
548.566580
405.452847
242.729783
158.961415
104.561448
76.479912
80.550909
99.720955
119.883418
141.113997
149.027705
143.674612
130.818486
107.992887
85.884929
57.007670
39.587617
26.462674
17.536879
13.345480
10.400414
10.331869
10.398626
10.081530
10.761619
10.840893
11.327863
11.261702
11.006594
11.679530
11.050701
10.452867
10.516644
10.774732
10.638833
10.845661
10.672808
10.433793
9.499788
9.879470
9.209514
9.215474
8.948445
8.997917
8.832812
8.481741
8.884668
9.496808
9.063482
9.015799
8.413792
8.728504
8.618832
8.474588
7.749796
7.225871
7.145405
7.178783
7.029772
5.993843
5.314946
5.871654
5.755424
5.177855
5.720854
4.987717
5.389452
4.724860
4.958510
5.043745
4.910827
4.759431
4.223585
4.533529
4.697442
4.674792
5.393624
4.577637
4.865527
5.073547
4.857779
4.395843
4.257560
4.743934
4.571676
4.635453
4.319549
4.656911
4.503727
4.573464
4.523993
4.769564
4.721880
##ZVALUE=265
1.178980
1.108646
1.181960
1.166463
1.200438
1.412630
1.207590
1.287460
1.410842
1.531839
1.536608
1.758933
1.993775
2.086759
4.515648
21.665692
53.125620
134.668946
231.334567
420.565605
580.420494
763.399005
866.943002
888.993740
822.477937
663.647652
522.201657
336.861014
213.358998
133.090615
76.384544
66.517591
81.624985
102.937818
129.529834
146.354437
155.218840
149.872899
132.002831
112.101436
90.137720
61.169863
43.002963
27.541518
20.090938
14.842749
12.935996
11.601448
12.275577
11.872649
11.735559
12.242794
12.627840
12.937784
11.997819
12.371540
11.973977
12.141466
11.653900
11.387467
11.184812
10.916591
10.448694
9.632707
9.957552
10.255575
9.305477
9.281635
8.640885
9.462833
9.071827
9.037852
8.580685
8.665919
9.300709
8.515716
8.730888
7.358789
7.674694
6.866455
6.569624
6.365776
6.073713
5.692840
5.263686
5.954504
5.341768
4.768968
4.580617
5.200505
4.689693
4.824996
4.355907
4.429817
4.681945
4.443526
4.176497
4.379749
4.528761
4.394650
4.376769
4.700422
4.388690
4.655719
4.250407
4.670620
4.095435
4.637837
4.124641
4.373789
4.323721
3.805757
4.238486
3.804564
3.990531
3.948808
##ZVALUE=270
1.166463
1.120567
1.278520
1.083612
1.226664
1.176596
1.381636
1.336932
1.409650
1.239777
1.513958
1.455545
1.440644
1.515746
1.542568
1.775622
2.502799
9.991527
29.419661
95.293522
182.332993
357.077718
530.930758
703.287721
884.338021
947.465897
920.320749
820.630789
636.484623
479.688644
293.708444
181.204677
88.886619
62.303543
61.413646
79.354644
109.375715
132.200718
150.505900
157.035589
153.648853
138.390660
113.029480
91.640949
63.509941
45.661926
29.486418
22.179484
16.625524
15.094876
13.872981
13.717413
14.923811
14.242530
14.042854
14.155507
13.694763
13.632774
13.394952
13.011694
13.031960
12.335777
12.163520
11.207461
10.889769
10.584593
11.020899
10.092854
10.011792
10.061860
9.328723
9.950995
9.707808
9.052753
9.061694
8.741617
8.091927
8.290410
7.573962
7.011890
6.882548
6.352663
6.246567
5.675554
5.859733
5.435944
5.045533
5.124807
5.268455
5.456805
4.958510
4.899502
4.945993
4.802942
4.190803
4.313588
4.502535
4.141927
4.497766
4.279613
4.418492
4.392862
4.523993
4.313588
3.883839
4.384518
3.951788
4.052520
4.126430
4.579425
4.179478
3.981590
4.024506
4.094839
3.571510
4.176497
##ZVALUE=275
1.049638
1.093745
1.162887
0.987649
1.032948
1.156926
1.217723
1.133680
1.195669
1.279712
1.186728
1.246929
1.338720
1.260638
1.490712
1.493692
1.757741
1.913905
1.983643
4.848838
17.017722
63.685775
134.855509
293.900967
450.961590
675.840974
824.928880
960.407853
981.957912
907.969475
782.163739
568.196774
405.573845
221.684575
131.707788
66.704750
50.855875
61.549544
80.433488
109.749436
130.238533
151.161551
157.528520
151.301622
138.646960
111.777782
90.460777
64.312816
48.000813
31.826496
24.468899
18.724799
16.670823
15.243888
14.989972
14.212728
14.617443
14.458895
13.752580
13.567805
12.832880
13.278723
12.777448
12.637973
11.812449
11.070967
11.236668
10.644794
10.376573
10.432601
10.877848
10.141730
10.014772
9.368658
9.462833
9.461641
8.772612
8.139610
7.561445
7.394552
6.713867
6.479621
6.260872
6.318688
6.403923
5.640984
5.337000
5.469918
5.569458
4.691482
4.810691
4.817843
5.463958
4.786849
4.419684
4.674792
4.335642
4.468560
4.798770
4.275441
4.321933
4.154444
4.536510
4.354715
4.229546
4.440546
4.002452
4.004836
4.090667
3.969669
3.995895
3.830791
3.874898
3.617406
3.662705
3.693700
##ZVALUE=280
1.038909
1.060963
1.124740
0.921488
1.100898
1.163483
1.000762
1.167655
1.007915
0.963807
1.247525
1.097918
0.989437
1.294613
1.307726
1.480579
1.579523
1.547933
1.654625
1.718998
1.833439
3.060699
10.172725
45.566559
102.219582
230.585933
366.780758
585.010648
754.935741
898.555517
1000.259519
989.896655
864.405036
704.892874
465.740561
305.851698
155.474544
85.588694
45.624971
44.413805
55.241585
83.642602
106.294751
132.056475
146.446824
151.706934
147.735476
132.349730
114.449859
93.812943
65.683722
47.912598
31.165481
23.427606
17.524958
14.835596
13.877749
14.347434
13.661981
13.618469
13.402700
13.170838
12.607574
12.885928
12.556911
11.911988
11.624694
10.521412
10.139942
10.681748
10.093451
10.579824
10.054708
9.685755
9.461641
9.231567
8.756518
8.327961
7.868409
7.405877
7.349849
6.973743
6.895661
6.890893
6.170869
6.132722
5.909801
5.939603
5.273819
5.169511
5.109906
5.324483
4.816651
4.878640
4.682541
4.495978
4.614592
4.278421
4.718900
4.268885
4.682541
4.428625
4.240870
4.713535
4.320741
4.351735
4.136562
4.155636
4.494786
4.243851
4.232526
4.195571
4.074574
3.899932
3.787875
3.986955
##ZVALUE=285
1.048446
0.956655
1.010895
0.945926
0.922680
0.930429
0.943542
1.007915
0.954866
0.945926
0.942945
1.005530
0.994802
1.124740
1.079440
1.147985
1.211762
1.176000
1.380444
1.343489
1.531839
1.791716
1.638532
2.396703
4.758835
23.628473
58.285594
121.305585
264.691710
419.426560
649.240613
820.837021
976.300836
1015.712619
942.819715
812.556744
584.039688
405.251980
216.664672
123.333931
55.782795
34.989715
38.719773
51.715970
78.286529
98.842978
125.434995
139.228702
149.416924
144.390464
130.486488
113.585591
86.495876
66.775680
44.721961
31.532645
21.175742
16.852617
13.977885
12.680888
12.390614
12.096763
11.572838
11.434555
11.637807
10.856986
10.894537
11.021495
10.512471
10.334849
10.336637
10.029674
10.091662
9.624958
9.154677
8.951426
9.103417
8.319616
7.655621
7.920861
7.834435
7.106662
6.976724
6.332994
6.247759
5.928874
6.247759
5.849600
5.896688
5.632639
5.447865
5.409718
5.339980
5.173683
5.026460
4.855990
5.189776
4.946589
4.855990
4.944801
4.675984
4.844666
4.391670
4.469752
4.503727
4.146695
4.214644
4.252791
4.128814
4.235506
4.042983
4.083514
3.990531
3.754497
3.954768
4.097819
##ZVALUE=290
0.820756
0.941753
0.843406
0.886917
0.762939
0.842810
0.958443
1.097918
1.056790
1.081824
0.854731
1.055598
1.103878
0.863671
0.986457
1.050830
0.996590
1.139641
1.195669
1.174808
1.268983
1.269579
1.718998
1.528859
1.728535
1.758933
2.531409
7.055998
32.532811
77.445507
187.253952
316.556692
542.123914
737.393498
945.775509
1015.712619
1003.710032
891.786814
671.675801
494.309664
324.848890
159.343481
82.827806
35.379529
26.079416
34.584999
47.671795
71.578622
92.201829
112.515688
132.064819
141.306520
140.271783
128.127933
105.783939
86.718798
60.320497
44.269562
28.200746
20.840764
14.836788
12.716651
11.010766
10.358691
10.265708
9.623766
9.868741
9.453893
9.507537
9.572506
9.633899
9.372830
9.593964
9.171963
8.636713
8.791685
8.399487
8.365512
7.715821
7.549524
7.401705
6.814599
6.990433
6.548762
6.552935
6.511807
6.140471
5.797744
5.963445
5.731583
5.372763
5.385876
5.374551
5.523562
5.401969
5.184412
5.218983
4.612803
4.818439
4.734993
4.874468
4.727840
4.746914
4.628897
4.548430
4.567504
4.365444
4.365444
4.481673
4.454851
4.105568
4.155636
4.314780
4.395843
4.157424
4.040599
##ZVALUE=295
0.863671
0.953674
0.881553
0.965595
0.891685
0.941753
0.905991
0.880957
0.895858
0.970960
1.072884
0.918508
0.974536
0.855923
0.969768
1.000762
1.079440
0.917912
1.168847
1.071692
1.315475
1.065731
1.222491
1.232624
1.438856
1.409650
1.582503
1.663566
1.810789
3.074408
15.950799
45.279860
128.133893
243.453979
457.151532
638.896823
869.566798
992.362499
1015.712619
957.614779
778.383017
606.762767
374.523997
232.682824
104.607940
52.758455
23.612976
20.127892
31.124949
43.958426
66.663623
85.739493
111.428499
122.997761
134.503841
133.322477
118.460655
103.431940
79.343915
63.305497
41.153431
29.166937
18.248558
14.196634
10.472536
10.172725
9.071827
8.571744
9.015799
8.682609
8.710623
8.709431
8.811951
8.708835
8.722544
8.344650
8.077621
7.923841
7.568598
7.689595
7.287860
7.089972
6.427765
6.686449
6.127954
6.228685
6.181598
6.130934
5.791783
5.741715
5.858541
5.562901
5.387664
5.277991
5.298853
5.272627
4.901886
5.092621
5.158782
4.679561
4.788637
4.658699
4.836917
4.615784
4.349947
4.507899
4.529953
4.281998
4.348755
4.403591
4.518628
4.458427
4.172921
3.986955
4.220605
4.219413
##ZVALUE=300
0.784993
0.731945
0.804663
0.845790
0.903606
0.958443
0.807643
0.974536
0.920892
0.834465
0.877976
0.850558
0.809431
0.854731
0.969768
0.882745
0.952482
0.916719
0.971556
0.924468
1.085997
1.071692
1.203418
1.169443
1.143813
1.148582
1.279712
1.456738
1.536608
1.638532
1.979470
2.030730
7.069707
25.707483
87.048411
169.325471
347.644687
527.311563
759.753585
905.945897
995.947719
983.456969
877.967477
668.788552
490.554571
270.003676
160.748959
72.131753
34.983754
18.748641
18.225908
25.240779
40.871501
56.592822
81.970692
99.815726
119.070411
126.586556
125.051737
117.817521
99.204779
81.353784
57.815909
42.810440
26.506782
18.725991
12.651682
10.184646
8.526444
8.651614
8.229613
8.052588
7.930994
8.026958
7.779598
7.781982
7.915497
7.252693
7.229447
7.111430
6.704926
6.803870
6.621480
6.113648
6.139874
6.351471
5.861521
5.773902
5.771518
5.738735
5.314946
5.245805
5.260706
5.066991
4.956722
4.657507
5.033612
4.527569
5.012751
4.731417
5.030632
4.716516
4.830956
4.595518
4.835725
4.749894
4.444718
4.656911
4.388690
4.102588
4.506707
4.111528
4.217625
4.352927
4.084706
3.651977
##ZVALUE=305
0.714660
0.958443
0.874996
0.864863
1.026988
0.869632
0.778437
0.656843
0.723600
0.666976
0.749826
0.863671
0.881553
1.026988
0.916719
0.900626
0.892878
0.862479
1.061559
1.081824
1.216531
1.078844
1.027584
1.162887
1.206994
1.114607
1.167655
1.357794
1.258850
1.436472
1.391768
1.694560
1.736879
1.911521
3.994703
14.538765
58.528781
125.203729
277.804732
430.663824
665.272474
831.501484
981.165767
1007.706523
914.890766
769.746900
548.071861
378.367901
196.082592
109.856725
44.850707
21.406412
13.793707
16.435981
25.933981
37.724972
58.116913
75.451732
96.643567
110.229850
120.669603
120.325685
111.186504
96.412897
73.745847
57.684779
38.411617
26.626587
16.104579
11.636615
8.865595
8.481741
7.674694
7.295609
7.269979
6.863475
6.701946
6.911755
6.595850
6.502867
6.433725
6.007552
6.179810
6.042719
5.872846
5.852580
5.793571
5.819798
5.594492
5.193949
5.031824
5.139709
4.816651
4.852414
4.620552
4.685521
4.807711
4.514456
4.679561
4.688501
4.482865
4.508495
4.531741
4.736781
4.319549
4.413724
4.515648
4.512668
4.204512
4.198551
4.449487
4.027486
4.159808
3.866553
4.052520
3.899932
##ZVALUE=310
0.741482
0.821948
0.706911
0.681877
0.779629
0.749826
0.944734
0.908971
0.989437
0.820756
0.929832
0.738502
0.759959
0.751615
0.806451
0.789762
0.922680
0.825524
0.918508
0.964999
1.034737
1.071692
0.879765
1.006722
0.996590
0.911951
0.987649
1.091957
1.091957
1.056790
1.245737
1.249909
1.494884
1.468658
1.746416
1.890659
2.093911
7.693768
25.452971
83.349943
165.184736
342.755914
511.824489
748.741627
902.321935
1007.608771
987.203717
859.242678
703.522563
463.409424
304.958820
151.885748
80.145001
30.312538
15.566945
12.139678
14.908910
22.626519
33.292770
50.734878
66.425800
89.161992
101.031661
111.698508
112.371445
104.063749
92.339516
72.257519
54.879785
36.842823
26.067495
15.954971
11.245608
8.148551
7.236600
6.368756
6.277561
5.997419
5.686879
5.184412
5.543828
5.302429
4.959702
5.432963
5.062819
4.831553
4.796982
4.817843
4.823804
4.807711
4.507899
4.225969
4.453659
4.576445
4.164577
4.601479
4.353523
3.843904
4.067421
4.148483
4.088879
4.372597
4.063845
4.192591
3.848672
3.748536
3.911853
3.925562
4.053712
4.055500
3.936887
3.644824
3.657937
3.548861
3.680587
3.430843
##ZVALUE=315
0.760555
0.733733
0.598431
0.638962
0.823736
0.485778
0.716448
0.941753
0.887513
0.747442
0.889897
0.809431
0.867844
0.755787
0.842810
0.878572
0.925660
0.942945
0.891685
0.854731
0.867844
0.897646
1.021624
0.905991
1.076460
0.900626
0.996590
1.039505
1.082420
1.189709
1.051426
1.151562
1.243949
1.157522
1.548529
1.332760
1.600981
1.615882
1.848936
3.032684
11.654496
49.357414
111.865997
256.431699
417.658687
666.174889
826.429725
963.259935
994.492769
941.132903
765.889883
598.182678
367.366672
228.190422
101.542473
50.303936
18.274784
10.952950
10.761619
13.245940
20.464659
29.607415
46.161413
60.373545
80.778599
94.895959
103.951693
105.768442
96.651912
85.906982
67.133904
52.026510
33.325553
23.889542
14.441609
10.351539
6.878972
5.942583
4.853606
4.693866
4.782677
4.453659
4.486442
4.229546
4.371405
4.258752
4.402995
4.309416
3.965497
4.068613
4.067421
4.144907
4.152656
3.856421
3.978610
3.981590
3.773570
3.832579
3.495812
3.487468
3.669858
3.621578
3.584623
3.659725
3.700852
3.583431
3.686547
3.480911
3.309846
3.488660
3.565550
3.371835
3.486872
3.240705
3.166795
3.152490
##ZVALUE=320
0.703931
0.677705
0.751615
0.748634
0.753999
0.792742
0.794530
0.712872
0.760555
0.661612
0.819564
0.601411
0.788569
0.847578
0.928640
0.848770
0.816584
0.865459
0.736713
0.890493
0.894666
0.803471
0.978708
0.871420
1.028776
1.095533
1.129508
0.959635
0.992417
1.098514
1.121759
1.024604
1.087785
1.099706
1.020432
1.134872
1.246929
1.436472
1.550913
1.623631
1.699924
2.212524
5.469918
29.062629
74.241757
193.476677
320.043564
530.949831
708.416700
865.195990
982.559919
978.204012
842.936635
684.415698
449.560881
288.313627
134.347677
69.617629
26.704669
13.023615
8.719563
8.992553
11.860728
16.415715
27.087927
38.848519
56.953430
71.504712
90.014935
97.574592
98.684430
93.989968
79.104900
66.168904
46.903491
35.067797
20.925999
13.783574
8.017421
5.886555
4.633665
4.175901
3.723502
3.886819
3.549457
3.660917
3.436804
3.420711
3.385544
3.348589
3.358722
3.393888
3.434420
3.365874
3.329515
3.181696
3.196597
3.375411
3.494620
3.305674
3.294945
3.216863
3.264546
3.183484
3.277659
3.328919
3.048778
3.286600
3.034472
2.987981
2.897978
3.165603
2.781749
3.028512
2.910495
3.054738
##ZVALUE=325
0.678897
0.729561
0.674725
0.761747
0.617504
0.782609
0.839829
0.780821
0.700951
0.914931
0.758767
0.765920
0.638962
0.734925
0.718832
0.772476
0.757575
0.806451
0.785589
0.664592
0.738502
0.852942
0.771880
0.748634
0.928640
0.826716
0.840425
0.839829
0.976920
0.935793
0.930429
1.037717
0.914931
1.026988
1.005530
1.067519
1.191497
1.166463
1.258850
1.168847
1.369715
1.572967
1.629591
1.787543
3.949404
14.576912
54.449439
118.963718
264.617801
414.256454
642.846823
800.111890
941.177011
968.830585
876.670480
735.410452
500.079989
344.053507
179.929733
99.380612
37.880540
16.477704
7.880926
6.751418
7.992983
9.800792
15.808940
24.345517
39.282441
53.445697
71.903467
82.719922
91.531873
92.755556
85.410476
75.036883
57.175756
43.393970
27.547479
19.295812
11.350513
7.766485
5.061626
4.313588
3.625751
3.277659
3.131628
3.074408
3.031492
3.007650
3.063679
3.080964
2.907515
3.057718
2.978444
2.952814
2.715588
3.034472
2.972484
3.183484
3.166795
3.084540
3.037453
2.969503
2.844930
2.868772
3.004670
2.864599
2.799630
3.022552
2.672672
2.588630
2.707839
2.912879
2.718568
2.601743
##ZVALUE=330
0.752807
0.665784
0.804663
0.626445
0.763535
0.757575
0.639558
0.633597
0.718832
0.677705
0.745654
0.623465
0.795722
0.762939
0.934601
0.755787
0.626445
0.848770
0.714660
0.856519
0.676513
0.858903
0.889897
0.762939
0.739694
0.806451
0.928640
0.907779
0.997782
0.733733
0.787973
0.900626
0.793934
0.860691
0.867844
0.968575
1.088977
1.144409
1.256466
1.110435
1.118779
1.189709
1.318455
1.394749
1.504421
1.712441
2.272725
6.405711
32.170415
77.599883
189.624429
316.603780
534.276962
699.834824
871.071815
942.129493
902.083516
793.703794
591.538548
431.036949
239.037871
132.198930
52.321553
23.665428
9.191632
6.616712
5.990863
6.860495
9.985566
14.875531
24.874806
34.370422
50.942898
63.261986
78.218579
83.366632
85.336566
79.369545
66.505671
55.548549
38.578510
28.953552
17.658472
12.071729
7.339716
4.918575
3.775954
3.288984
2.880692
2.968907
2.833605
2.762675
2.367496
2.677441
2.708435
2.630949
2.687573
2.693534
2.603531
2.618432
2.724528
2.662539
2.825856
2.937913
2.748966
2.763867
2.712607
2.693534
2.550483
2.682805
2.633929
2.610683
2.616644
2.606511
2.639890
2.443790
##ZVALUE=335
0.679493
0.747442
0.664592
0.715852
0.598431
0.792742
0.650883
0.466704
0.559688
0.635982
0.694990
0.634789
0.664592
0.566840
0.597835
0.765920
0.708699
0.740886
0.628829
0.750422
0.719428
0.755787
0.841618
0.695586
0.696778
0.800490
0.773668
0.799894
0.646710
0.829697
0.921488
0.814795
0.876784
0.894666
0.883937
0.915527
0.950694
0.843406
0.987649
1.188517
1.179576
1.098514
1.258850
1.193881
1.225471
1.419783
1.291633
1.633763
1.675487
3.143549
16.722679
45.502782
129.027963
230.818987
421.924591
598.720908
806.189775
896.590948
910.430551
845.196843
663.876534
498.870015
292.367935
178.958774
77.521801
36.234856
12.348890
7.014871
5.788803
5.761981
7.050633
8.855462
13.991594
20.907521
33.259988
44.720769
62.006712
71.367621
79.186559
79.476833
73.668957
65.494776
51.616430
40.081739
27.313828
19.246936
11.162758
7.589459
4.822612
3.660917
2.805591
2.738833
2.731681
2.712607
2.743602
2.672672
2.648830
2.615452
2.628565
2.391934
2.512932
2.400875
2.298951
2.634525
2.766848
2.570748
2.506971
2.577901
2.467632
2.457500
2.485514
2.633929
2.633929
2.344847
2.371669
2.287626
##ZVALUE=340
0.594854
0.600815
0.635982
0.517964
0.720620
0.598431
0.605583
0.576973
0.505447
0.538826
0.654459
0.596642
0.609756
0.718832
0.607967
0.689626
0.591874
0.775456
0.627637
0.761747
0.708699
0.681877
0.652671
0.670552
0.616908
0.743866
0.635982
0.837445
0.751615
0.743866
0.819564
0.756979
0.845790
0.807643
0.801682
0.793934
0.900626
0.877976
0.859499
0.953674
1.097918
1.099706
1.010895
1.182556
1.177788
1.108646
1.045465
1.257658
1.214743
1.310706
1.710653
2.043843
8.675456
28.239489
89.185834
178.154707
361.687541
516.773462
719.943643
840.156674
906.428695
866.993666
719.043016
570.649505
362.351537
224.881768
102.157593
49.372911
15.197992
7.471442
5.840659
5.471706
5.538464
6.347895
8.673668
12.585521
21.351576
30.981898
45.244694
55.483580
68.016648
72.953701
74.284673
70.287585
60.729980
50.418973
37.291646
28.350949
17.568469
12.098551
6.946921
4.763603
3.562570
2.958775
2.490878
2.564788
2.475977
2.449751
2.380610
2.400875
2.302527
2.301931
2.469420
2.519488
2.609491
2.585649
2.429485
2.487898
2.508759
2.357960
2.440810
2.330542
2.385974
2.412796
2.218485
2.353787
##ZVALUE=345
0.655651
0.668764
0.823736
0.516772
0.696778
0.685453
0.746846
0.621676
0.741482
0.631809
0.633597
0.565648
0.467896
0.553727
0.706911
0.817776
0.578761
0.553727
0.705719
0.786781
0.769496
0.760555
0.681877
0.613928
0.657439
0.639558
0.670552
0.792742
0.878572
0.633597
0.713468
0.766516
0.857711
0.749826
0.787973
0.777841
0.871420
0.749826
0.801682
0.909567
0.809431
0.824928
1.048446
0.914931
0.955462
0.882745
1.037717
1.084805
1.202822
1.161695
1.245737
1.408458
1.629591
1.574755
3.370643
18.177629
49.881935
135.371685
236.272812
423.187613
585.946441
774.515867
858.370662
867.373943
791.817904
609.721541
446.894765
251.608491
143.773556
59.758425
26.525855
9.374619
5.937815
5.411506
5.176663
4.975796
5.472898
7.456541
11.156797
18.583536
27.267933
40.359497
50.521493
61.081648
65.940619
67.727566
65.870881
57.765841
49.714446
36.558509
27.555823
17.335415
12.152791
7.343888
4.929900
3.525615
3.336668
2.607703
2.523661
2.444983
2.530813
2.313852
2.363920
2.189875
2.292991
2.307892
2.405643
2.551675
2.291799
2.353787
2.385974
2.364516
2.376437
2.364516
2.224445
2.134442
##ZVALUE=350
0.608563
0.644922
0.582933
0.669956
0.773668
0.631809
0.546575
0.700951
0.570416
0.584722
0.482798
0.653863
0.649691
0.632405
0.687838
0.723600
0.724792
0.676513
0.550747
0.638962
0.543594
0.542998
0.681877
0.738502
0.661612
0.700951
0.801682
0.863671
0.863671
0.697970
0.742674
0.807643
0.797510
0.781417
0.704527
0.769496
0.868440
0.742674
0.772476
0.713468
0.911951
0.972748
1.066923
0.841618
0.821948
0.855923
1.010895
0.981688
0.923872
1.104474
1.256466
1.018643
1.130700
1.362562
1.414418
1.513958
2.325773
7.199645
32.945871
77.035427
185.914636
311.396718
511.748791
658.329725
813.369751
858.236551
801.603794
686.306953
475.124717
318.560600
159.283876
86.540580
33.547878
13.947487
6.046891
5.142689
4.613996
4.439950
4.242659
5.037785
7.220507
10.213852
16.438961
23.420453
34.153461
43.586493
53.706765
59.512854
63.008666
61.079860
54.278970
45.870543
34.413934
26.214719
16.985536
11.833906
7.470846
5.208850
3.761649
2.835989
2.656579
2.380610
2.444983
2.462864
2.195835
2.241731
2.254844
2.384782
2.285838
2.291799
2.044439
2.259612
2.485514
2.156496
2.249479
2.070665
##ZVALUE=355
0.538826
0.680685
0.708699
0.756979
0.651479
0.653863
0.669956
0.621676
0.577569
0.601411
0.524521
0.751615
0.676513
0.637770
0.727773
0.746846
0.585914
0.549555
0.687838
0.682473
0.889897
0.630617
0.660419
0.604987
0.607967
0.599623
0.558496
0.598431
0.631809
0.837445
0.777841
0.570416
0.724792
0.719428
0.760555
0.771880
0.657439
0.776649
0.955462
0.875592
0.665784
0.729561
0.870824
0.994802
0.929832
0.952482
0.758767
0.905991
0.937581
0.989437
1.101494
1.008511
1.037717
1.052618
1.279712
1.115799
1.207590
1.412630
1.851916
3.407001
17.991662
49.425960
132.649541
234.631896
426.211953
576.882958
749.791861
823.919773
808.569789
711.839795
539.812446
386.361480
204.275846
113.209486
46.618581
20.379424
7.312894
5.265474
4.523993
4.031658
4.013777
4.012585
4.492998
5.543828
9.504557
13.178587
21.699667
28.840899
39.754510
46.710968
54.073930
57.024956
55.397749
50.986409
42.251945
34.706593
25.176406
18.973947
12.673736
8.521676
5.274415
3.925562
2.992749
2.488494
2.435446
2.413988
2.366900
2.289414
2.127886
2.228618
2.264977
2.271533
2.073646
2.311468
2.154708
2.184510
##ZVALUE=360
0.677705
0.638962
0.746846
0.663996
0.604987
0.755787
0.785589
0.692606
0.704527
0.675917
0.532866
0.722408
0.762939
0.600815
0.510812
0.629425
0.591874
0.723600
0.734925
0.752807
0.763535
0.540614
0.706911
0.494719
0.550747
0.742674
0.659823
0.778437
0.748634
0.654459
0.770688
0.797510
0.678897
0.891685
0.835657
0.784993
0.915527
0.828505
0.730753
0.846982
0.820756
0.890493
0.781417
0.845790
0.926852
0.897646
0.892878
0.918508
0.951886
0.725985
0.757575
0.878572
1.106858
1.000762
1.121759
1.189709
1.217723
1.189709
1.271963
1.443624
1.673698
2.022982
8.250475
26.185513
84.918737
163.239837
318.305492
468.362570
668.785572
772.215724
805.698037
752.279758
593.082905
447.410941
272.023678
162.798762
67.967772
30.121803
9.200573
5.594492
4.454851
4.442930
3.957748
3.914833
3.686547
4.070997
5.055666
6.928444
11.432767
16.416907
24.587512
32.065511
41.053891
46.900511
51.166415
50.960779
47.352910
42.387843
34.059882
27.870536
18.841624
13.742447
8.471608
6.056428
3.912449
2.956986
2.601743
2.655983
2.285838
2.211928
2.166629
2.049804
2.018809
2.100468
2.103448
2.007484
##ZVALUE=365
0.724792
0.586510
0.546575
0.638962
0.671744
0.550747
0.629425
0.618696
0.557899
0.657439
0.507832
0.556707
0.514984
0.575781
0.576973
0.643730
0.597835
0.793934
0.598431
0.515580
0.482798
0.775456
0.678897
0.753999
0.665784
0.683665
0.660419
0.685453
0.715852
0.721812
0.729561
0.665784
0.687838
0.750422
0.666976
0.692606
0.657439
0.788569
0.815988
0.806451
0.837445
0.776649
0.855923
0.770688
0.901818
0.985861
0.852942
0.984669
0.937581
0.924468
0.954866
0.944734
0.820756
0.918508
1.074672
1.025796
0.961423
1.018643
1.474619
1.189709
1.288652
1.393557
1.494884
1.701713
3.817677
13.030767
51.555634
111.235976
251.096487
393.970609
587.063432
699.305534
779.821873
765.984654
649.358034
520.380735
335.792899
205.096602
90.958476
42.763948
13.213754
6.628633
4.512668
4.133582
3.837943
3.588796
3.400445
3.254414
3.569722
3.903508
5.882978
8.663535
14.154911
19.852519
28.519630
34.806728
41.934848
45.719743
47.257543
45.613647
40.355921
34.699440
26.429892
20.356774
13.905764
9.439588
6.155968
4.001856
3.104806
2.605915
2.424717
1.992583
2.102852
1.988411
1.898408
1.773834
##ZVALUE=370
0.571609
0.533462
0.530481
0.551939
0.513792
0.457764
0.574589
0.539422
0.460744
0.723600
0.676513
0.560880
0.703931
0.651479
0.690818
0.660419
0.664592
0.686646
0.628829
0.629425
0.681877
0.644922
0.524521
0.595450
0.671744
0.573993
0.550747
0.683665
0.736713
0.643730
0.695586
0.792742
0.614524
0.736713
0.673532
0.647902
0.733733
0.792742
0.740886
0.775456
0.787973
0.720620
0.746846
0.841618
0.870824
0.925660
0.737906
0.842810
0.797510
0.932813
0.782609
0.895858
0.931621
0.930429
0.818968
1.002550
1.051426
1.075864
1.076460
0.942945
1.172423
1.046658
1.195669
1.189709
1.478791
1.562834
2.318621
7.090569
35.811663
83.217621
187.878609
310.038924
509.504676
645.442009
750.563741
770.478845
691.620708
567.426682
376.374722
243.880749
113.735795
58.005452
21.361709
9.526610
4.776716
4.034638
3.606677
3.579855
3.279448
3.079772
3.290772
3.216863
3.696680
5.042553
7.911921
11.456609
17.899871
23.453832
30.909777
36.480427
42.191744
44.238567
43.549538
39.854646
33.265948
27.278662
19.856691
13.556480
9.731650
7.380843
4.630685
3.502965
2.716780
2.291799
1.963973
1.938939
##ZVALUE=375
0.483990
0.500679
0.579953
0.557899
0.575781
0.616908
0.555515
0.692606
0.660419
0.630617
0.685453
0.719428
0.569820
0.563860
0.521541
0.748634
0.666976
0.628829
0.530481
0.582933
0.646710
0.719428
0.628829
0.717640
0.666976
0.619888
0.754595
0.658631
0.582933
0.604987
0.702739
0.699759
0.558496
0.722408
0.635982
0.750422
0.678897
0.709891
0.586510
0.681877
0.649691
0.642538
0.636578
0.640750
0.855923
0.675917
0.891685
0.662804
0.632405
0.759959
0.766516
0.736713
0.889897
0.903606
0.819564
0.922680
0.915527
1.020432
0.869632
0.854731
0.949502
1.024604
1.075864
1.129508
1.216531
1.071692
1.235604
1.398921
1.746416
3.896952
20.271540
52.088499
133.148432
235.858560
414.837003
561.922789
722.596645
774.530768
729.743838
629.717708
458.124876
320.358872
172.526836
96.164942
37.542582
16.298890
5.652905
4.089475
3.577471
3.423691
3.250837
3.145933
2.952814
2.872944
2.878904
3.158450
4.261732
5.730987
9.418726
13.502836
20.314455
26.266575
33.126473
37.892461
41.540861
41.179657
38.722754
33.421516
28.672814
22.215843
16.938448
11.343956
8.448958
5.202889
3.859997
2.784729
##ZVALUE=380
0.483990
0.476837
0.538826
0.574589
0.636578
0.699759
0.709891
0.521541
0.559688
0.617504
0.633597
0.635982
0.525713
0.652671
0.650883
0.624657
0.672936
0.679493
0.602603
0.561476
0.634789
0.592470
0.490546
0.633597
0.640750
0.562668
0.739694
0.738502
0.744462
0.610948
0.746846
0.674725
0.510812
0.614524
0.751615
0.615716
0.814795
0.668764
0.720620
0.772476
0.701547
0.694990
0.762939
0.613928
0.763535
0.724792
0.741482
0.748634
0.634789
0.617504
0.965595
0.914931
0.750422
0.766516
0.934601
0.780821
0.810623
0.803471
0.773668
0.872612
0.919700
0.942945
0.955462
0.862479
1.024604
1.067519
1.061559
1.124740
1.345873
1.406670
1.559854
2.349615
10.781884
32.295585
97.831488
183.710456
355.930924
504.483581
674.591660
745.908022
743.505955
670.480728
516.261458
384.349823
224.378705
131.933689
56.109428
25.781989
7.824898
4.299879
3.450513
3.195405
2.960563
2.760887
2.766848
2.813935
2.689958
2.555847
2.985597
3.559589
5.525947
7.830858
12.393594
17.311573
24.644732
31.687617
36.107898
39.122701
39.981604
37.351847
34.287572
28.467774
23.449659
16.475916
12.415648
7.849932
##ZVALUE=385
0.649691
0.637770
0.616908
0.535846
0.440478
0.523925
0.443459
0.577569
0.510812
0.445843
0.500679
0.507832
0.594854
0.595450
0.569820
0.594854
0.745654
0.555515
0.560880
0.479817
0.581741
0.735521
0.597835
0.648499
0.475645
0.558496
0.710487
0.533462
0.657439
0.666976
0.699759
0.717640
0.716448
0.851750
0.897646
0.733733
0.701547
0.654459
0.617504
0.649691
0.751615
0.642538
0.785589
0.794530
0.760555
0.643730
0.790954
0.720620
0.660419
0.715852
0.705719
0.871420
0.746846
0.838637
0.884533
0.749826
0.825524
0.901818
0.710487
0.900626
0.897646
0.922680
0.835657
0.884533
0.840425
1.079440
1.136661
1.016855
1.120567
1.229644
1.495481
1.311898
1.466870
1.717806
4.699826
16.972423
60.632825
128.816962
272.528529
412.410498
596.247911
693.461895
739.601851
709.459782
588.790774
465.070605
295.516849
188.364983
85.751414
42.415857
14.056563
5.892515
3.609657
3.084540
3.069639
3.056526
3.046989
2.828836
2.586842
2.472997
2.608895
2.811551
3.139973
4.130602
6.670952
9.532571
15.010834
20.928979
25.715828
31.184554
35.197735
36.821961
36.397576
33.246875
29.031634
22.841692
##ZVALUE=390
0.654459
0.548959
0.655651
0.649691
0.487566
0.574589
0.566840
0.605583
0.651479
0.552535
0.509620
0.595450
0.492930
0.593662
0.548959
0.556707
0.418425
0.583529
0.580549
0.647902
0.563860
0.608563
0.670552
0.514984
0.562668
0.531673
0.527501
0.613928
0.620484
0.592470
0.711679
0.813603
0.578761
0.672936
0.714660
0.667572
0.669956
0.665784
0.698566
0.714660
0.799894
0.706911
0.764728
0.693798
0.710487
0.631809
0.793934
0.929832
0.902414
0.629425
0.661612
0.755787
0.757575
0.859499
0.870824
0.777841
0.843406
0.694990
0.741482
0.827909
0.766516
0.767708
0.750422
0.941753
0.984669
0.830889
0.997782
1.045465
1.239777
0.984669
1.120567
1.363754
1.295805
1.448989
1.384616
1.303554
2.624989
9.262562
41.358471
94.607472
218.783617
344.011784
512.281656
630.832911
731.929541
740.160942
662.489533
552.101731
374.987721
251.981616
127.734542
65.847635
22.833943
9.048581
3.991723
3.327727
3.174543
3.167987
3.235936
3.138781
2.683997
2.689958
2.647638
2.475977
2.479553
2.677441
3.872514
5.822778
7.962584
12.315512
16.412735
22.204518
27.372837
31.775832
34.289956
34.321547
##ZVALUE=395
0.481606
0.587702
0.613928
0.465512
0.539422
0.602603
0.528693
0.647902
0.619888
0.431538
0.504851
0.612736
0.532866
0.620484
0.549555
0.659823
0.636578
0.447631
0.615716
0.566840
0.550747
0.664592
0.536442
0.682473
0.592470
0.533462
0.567436
0.664592
0.644922
0.666976
0.791550
0.763535
0.751615
0.631809
0.698566
0.713468
0.792742
0.669956
0.716448
0.749826
0.779629
0.770688
0.748634
0.782609
0.759959
0.727773
0.816584
0.847578
0.945926
0.890493
0.931621
0.781417
0.825524
0.657439
0.708699
0.607967
0.765920
0.826716
0.956655
0.731945
0.789762
0.799894
0.675917
0.797510
0.933409
0.871420
0.850558
0.996590
1.064539
1.248717
1.056790
1.108646
1.279712
1.147985
1.124740
1.197457
1.299977
1.610518
1.739860
5.014539
26.906729
66.185594
154.583454
259.504914
435.642600
570.217967
713.065863
759.757757
726.042986
631.987453
462.345481
321.579576
170.227885
90.703964
33.543706
14.786720
5.287528
3.700852
3.165603
3.186464
3.329515
3.207922
3.098845
3.089905
2.692938
2.786517
2.346635
2.537966
2.612472
3.288984
4.318953
6.888509
9.558797
14.881492
19.221902
24.958849
##ZVALUE=400
0.597835
0.727773
0.630617
0.526905
0.493526
0.552535
0.487566
0.418425
0.504851
0.597835
0.441670
0.568628
0.546575
0.597835
0.625849
0.582933
0.729561
0.517964
0.542998
0.507832
0.576973
0.554919
0.662804
0.554919
0.634789
0.702739
0.617504
0.610948
0.808835
0.726581
0.713468
0.572801
0.847578
0.606775
0.737906
0.662804
0.835657
0.775456
0.807643
0.762939
0.507832
0.723600
0.658631
0.726581
0.794530
0.797510
0.839829
0.897646
0.871420
0.841618
0.809431
0.938773
0.916719
0.716448
0.873804
0.774860
0.769496
0.703931
0.980496
0.767708
0.858903
0.939965
0.879765
0.891685
0.882745
0.914931
1.012683
0.822544
1.054406
1.012683
1.116991
1.006722
1.129508
0.988841
1.148582
1.135468
1.289845
1.060963
1.245737
1.316667
1.547933
2.778769
13.694763
38.348436
106.508732
194.048882
355.958939
492.486954
653.249621
728.217959
727.686882
656.830668
497.035980
365.817547
218.468904
130.289793
56.272745
25.811791
8.128881
4.140735
3.375411
3.142953
3.112555
3.161430
3.254414
3.204942
2.994537
2.802610
2.695918
2.428889
2.247691
2.323985
2.641678
3.858805
5.492568
8.641481
##END
