##TITLE=15-1
##FORMAT=SPECTACLE-ASCII V-1.2
##DATA TYPE=ULTRAVIOLET SPECTRUM
##SECOND TYPE=ULTRAVIOLET SPECTRUM
##DATE=04/11/18
##TIME=10:20:51
##SPECTROMETER/DATA SYSTEM=SPECTACLE
##XUNITS=NM EM
##YUNITS=ENERGY
##YFACTOR=1
##FIRSTX=220
##LASTX=450
##NPOINTS=116
##3DDATA=Equidistant
##ZUNITS=NM EX
##FIRSTZ=210
##LASTZ=400
##ZPOINTS=39
##XYDATA=(Y..Y)
##ZVALUE=210
14.464855
14.853477
12.218952
10.218620
9.316802
8.947849
8.340478
7.320642
5.600452
4.717708
3.442764
2.773404
2.344847
2.148747
1.681447
1.542568
1.912713
2.085567
2.238750
2.516508
2.278686
2.457500
3.388524
2.254844
2.780557
3.348589
3.023744
3.347993
3.584623
3.409982
4.180670
3.210902
3.729463
4.890561
3.882647
4.185438
3.709793
4.423857
4.715919
4.391670
4.131794
4.615784
5.034804
5.025864
5.730987
4.765987
4.602671
5.579591
5.291700
5.672574
5.107522
5.640984
5.436540
5.234480
6.090999
5.079508
6.017685
5.228519
5.317926
5.924702
5.894899
5.443692
5.739927
5.206466
5.223751
5.123615
5.647540
6.546974
6.342530
7.009506
7.797480
8.526444
9.734631
10.774732
11.794567
12.532473
10.839701
11.255741
11.739731
10.647774
8.421540
9.168983
7.753968
5.965829
5.518794
5.166531
4.333854
4.826784
4.642606
5.953908
7.688999
9.603500
13.967752
18.823743
21.198988
26.152730
31.401515
36.663413
41.872859
46.988726
48.476458
47.890544
48.495531
47.450662
45.180917
44.925809
40.549636
38.717985
32.807589
26.496649
23.444891
19.238591
17.736554
12.748837
12.975931
12.881756
##ZVALUE=215
36.495924
37.121773
30.292869
24.026632
19.330978
16.313791
14.525652
15.248656
14.035702
13.884902
12.031794
8.181930
6.294847
5.274415
3.917813
2.996922
2.782941
2.298951
2.433658
2.360940
2.443790
2.326965
2.927780
3.421903
2.597570
3.374815
3.265738
3.167987
3.830791
3.564954
3.737807
3.544688
4.123449
4.136562
4.077554
4.720688
4.786849
4.882812
5.076528
4.976988
5.300641
5.058646
5.547404
5.112886
6.270409
5.789995
5.190969
5.879998
6.043911
6.432533
6.521940
6.755590
6.860495
6.853938
7.306933
6.480813
7.187724
6.502867
7.189512
6.597638
7.241964
6.182790
6.273985
7.174611
6.726980
5.784631
6.560683
6.964803
7.312894
8.616447
8.021593
9.585619
10.419488
10.670424
10.443926
10.835528
10.580420
10.710955
11.521578
8.940697
10.021925
8.003712
7.601976
5.813837
5.005598
5.415678
5.144477
4.410744
4.687905
3.425479
3.774762
4.026890
4.987717
4.606843
6.937981
8.602738
13.579726
18.545985
24.572611
31.901598
42.227507
45.175552
56.303740
62.553883
70.686936
74.969530
76.779723
75.905919
71.255565
69.138408
63.899755
60.758591
51.541924
44.373870
39.117932
30.577779
##ZVALUE=220
77.862740
78.629851
73.005557
68.226457
59.130788
45.167804
35.424829
27.531981
24.869442
23.469925
23.136735
22.844672
20.497441
16.592741
12.419820
9.718537
7.082820
4.742742
3.770590
2.667904
3.184676
2.691746
3.657937
3.451705
3.118515
3.132820
2.952814
3.355742
3.146529
3.923774
3.444552
4.491806
3.979802
4.573464
5.356669
5.393624
6.108880
5.998611
6.350875
5.676746
5.957484
6.631613
6.616712
5.968809
6.351471
6.909966
7.034540
6.866455
7.888675
7.939935
8.358955
9.707808
8.825660
9.642839
9.029508
9.001493
9.023547
9.378791
8.973479
9.241700
8.863807
9.068847
8.290410
9.482503
7.724762
8.928776
7.987618
8.477569
8.606911
8.353591
10.092854
10.443926
10.506511
12.177825
12.358427
13.259649
11.654496
10.997653
10.740757
9.851456
9.576678
7.768869
8.176565
7.651448
5.852580
6.051660
5.739927
5.327463
5.124807
4.911423
4.405975
5.189776
4.588962
4.218817
4.569888
4.823804
3.887415
4.380941
5.487800
7.617474
13.311505
17.170906
24.422407
32.649636
45.146942
55.644512
66.994429
79.866648
90.837479
99.706650
107.299685
115.003586
116.392970
113.226771
107.900500
101.038814
##ZVALUE=225
103.808641
109.316707
130.984783
135.227442
134.592652
121.905804
105.641484
78.125000
62.074661
49.686432
41.532516
38.348436
37.556887
37.871599
38.237572
31.380653
27.823448
18.986464
13.782978
8.891821
6.847978
4.888773
3.313422
3.608465
4.019737
3.754497
3.585815
4.138947
3.728867
4.269481
4.905462
4.155636
4.481673
4.899502
5.992651
6.025434
6.424785
6.673932
6.835461
6.996989
7.411838
8.250475
7.265806
7.240772
7.548928
7.667542
8.257627
8.134842
8.533597
9.033680
9.863973
10.731816
10.618567
10.827780
11.553764
11.960864
11.314750
10.786653
11.646748
10.455847
10.921955
12.061596
11.053681
10.493994
10.877848
10.086894
10.863543
10.157824
10.978580
10.647774
11.926889
11.660457
12.740493
13.052821
13.471842
12.203455
11.506677
11.908412
10.471940
10.374784
10.448694
9.253621
8.769631
7.756948
6.621480
6.948709
5.779862
5.874634
5.759597
5.624890
5.281568
5.556941
5.039573
5.169511
5.483627
5.057454
5.909801
4.419684
4.913807
5.158782
5.116463
5.230904
5.393624
7.010698
10.131598
16.065836
22.267699
36.035776
46.765804
63.338876
76.675415
99.249482
111.512542
138.493776
152.047873
170.138478
##ZVALUE=230
70.821643
74.561834
123.587847
159.080625
201.952457
227.075815
230.805874
215.939879
192.649961
139.514804
107.495785
73.958635
60.347915
55.700541
57.918429
60.340762
60.843825
57.418942
47.553778
36.425591
28.426647
17.246604
11.505485
8.214712
5.128980
4.611611
4.700422
3.895760
4.602671
4.879832
4.152656
4.840493
4.860759
5.596876
4.691482
6.445646
6.750822
5.604625
7.042885
7.887483
7.835627
6.914735
8.671880
8.314848
7.849932
8.498430
9.162426
8.663535
10.021925
10.377765
9.555817
10.420680
9.851456
10.240674
10.445714
11.372566
12.231469
11.788607
12.400746
12.043715
11.274815
11.724830
11.578798
11.744499
11.517406
11.591911
11.063814
11.083484
10.870695
12.121797
12.724996
13.161898
13.140440
14.090538
13.652444
13.813972
13.246536
12.338758
13.061762
11.281967
10.411739
10.282993
9.162426
9.288788
8.423924
7.378459
8.655787
6.940961
6.446838
6.655455
6.061792
7.117987
6.092787
5.770922
6.230474
5.128980
6.144643
6.529689
5.600452
6.212592
6.244779
6.325841
6.642938
6.397963
5.928874
6.160736
6.158948
6.893873
7.767677
12.186766
18.800497
30.253530
45.448542
66.125989
89.052916
123.906732
##ZVALUE=235
20.299554
22.919774
54.533482
99.461675
150.573850
238.691568
292.317867
365.350842
384.849906
357.048512
310.961008
240.383744
174.837708
121.107697
90.591908
75.556636
78.132749
84.110498
89.411736
87.485909
79.585910
70.478916
53.307414
37.166476
22.103786
15.560985
8.115768
5.957484
4.976988
5.536675
4.698634
5.125999
5.505681
5.992651
6.704926
6.270409
7.574558
6.982684
6.789565
7.060766
7.868409
8.254647
7.742643
8.429885
8.387566
8.864999
8.337498
7.876754
9.105802
9.896755
9.257793
10.202527
10.691881
10.942817
10.121465
10.938644
10.216832
10.458827
10.409951
11.845827
10.859966
11.116862
9.962916
9.758472
11.181831
11.677742
11.339784
10.402799
10.560751
12.467504
13.597608
13.978481
13.773441
15.253425
15.662909
15.647411
15.326738
14.380813
14.047623
11.867881
11.905432
11.535883
10.719895
10.472536
10.244846
9.643435
10.000467
8.758903
8.185506
8.144975
8.530617
7.164478
7.399917
6.578565
7.852912
7.589459
7.262826
7.037520
7.052422
7.613897
6.955862
7.071495
7.239580
7.268786
7.288456
6.883740
6.521940
6.792545
6.497502
7.379651
7.273555
6.857514
7.328987
10.324717
13.303757
24.467707
##ZVALUE=240
1.763701
2.101660
7.156730
19.339919
51.548481
98.056793
190.179944
275.974870
399.027467
469.638705
527.601838
517.914891
459.004641
370.819569
279.620886
183.897614
133.457780
100.877881
93.979836
102.806687
109.556913
116.611719
105.757713
100.718737
74.723959
58.851838
40.560961
28.372407
15.822649
11.354685
8.502603
6.886721
6.523728
6.431937
6.044507
6.659627
6.205440
6.242990
7.102489
7.210970
6.840825
7.309914
8.240938
8.269548
8.215904
7.365942
7.551908
8.666515
8.883476
8.248687
9.229779
8.601546
10.565519
9.724498
9.067655
9.398460
9.443760
9.642839
9.716749
8.561611
10.275841
9.697676
9.462833
8.958578
9.757876
9.783506
10.588765
10.709763
10.942817
11.321902
12.659431
12.422800
13.720989
14.330745
14.235973
15.643835
16.125441
13.896823
13.111830
13.489723
13.640523
10.842681
10.981560
10.799766
9.734631
9.187460
9.570718
8.208752
8.475780
8.362532
7.052422
7.709861
7.994771
7.403493
8.046627
7.683635
7.435679
7.664561
7.765889
7.403493
6.354451
7.453561
7.465482
6.917715
7.450581
7.260442
6.633997
7.574558
7.182956
6.440878
6.749630
6.870627
6.961823
7.027984
7.146001
6.957650
##ZVALUE=245
1.417994
1.871586
1.367927
1.557469
3.805757
14.096498
35.988688
93.889832
165.988803
290.394425
400.027633
531.587601
586.381555
606.215000
569.536686
467.112660
367.618799
247.153640
174.270868
112.678409
94.998479
96.893907
108.400583
123.389959
119.391680
118.487477
104.719996
89.049935
67.818761
49.361587
30.749440
19.945502
11.766553
8.568764
6.229877
6.633997
6.285906
6.423593
6.821752
6.205440
7.709861
6.539822
7.174611
7.283688
7.065535
7.287860
8.020997
7.424951
7.679462
8.294582
8.049607
8.737445
7.575750
7.666945
7.542968
8.180737
8.372664
8.711815
9.071827
7.298589
8.813739
8.564591
8.891821
8.444786
9.086728
8.142591
8.697510
8.826852
9.573698
9.960532
10.495782
11.101961
12.176633
12.558699
12.353659
13.675690
12.337565
12.061596
11.676550
11.103749
9.826422
9.402633
8.490682
9.220839
8.168817
8.018613
7.399917
7.204413
8.034706
6.633997
7.125735
6.950498
7.043481
6.689429
6.591678
7.121563
7.735491
6.531477
6.623864
6.773472
7.011890
6.933808
6.743670
6.721616
6.908774
5.759597
6.606579
6.697774
6.445646
6.627440
6.229877
7.389784
6.731749
7.281899
6.391406
6.488562
##ZVALUE=250
1.285672
1.185536
0.815988
1.265407
1.232624
1.346469
2.552867
10.855794
31.618476
81.462860
158.155560
292.455554
413.893461
563.277602
636.137724
698.554516
679.522753
588.716865
486.928821
335.759521
231.788754
138.995647
101.128817
87.693930
98.626614
108.990669
124.024749
131.936669
126.769543
116.682649
91.369748
72.914958
49.970746
32.500625
20.338893
11.696815
8.208752
7.013679
6.027818
6.240606
7.415414
7.474422
7.477999
7.051826
8.039474
7.164478
7.262826
8.449554
8.200407
7.823706
7.863641
8.135438
8.191466
7.585883
8.170605
8.567572
8.410811
7.814765
8.642673
8.293986
7.987618
8.010864
7.544756
7.900596
7.613897
7.560849
7.785559
7.778406
9.349585
9.658933
9.036660
10.013580
9.711981
10.174513
10.351539
10.807514
10.405779
9.904504
9.134412
8.889437
8.255839
7.679462
7.325411
7.454753
6.804466
6.701946
6.765723
6.316900
6.054640
6.282926
6.964803
5.722642
5.690455
6.116629
5.974770
5.005598
6.535649
5.845428
5.700588
5.885959
5.450845
5.822778
5.242825
5.583763
6.273985
6.024837
5.665421
5.337596
5.876422
5.615950
5.321503
5.335808
5.157590
5.183816
5.577803
5.387664
##ZVALUE=255
0.970960
1.067519
0.899434
0.950694
1.115799
1.189709
1.308918
1.636744
1.667738
4.513860
14.874935
53.399801
108.816624
220.136642
333.218575
492.258668
610.744953
721.646547
756.585002
688.830614
604.558587
442.859530
313.904881
176.888704
115.775466
84.375739
82.288980
97.852945
116.186738
128.764510
139.139891
131.817460
116.410851
95.489621
70.384741
51.152706
33.703446
22.082925
12.531877
9.144545
8.221865
7.301569
7.955432
7.495880
7.814765
8.180737
8.314848
8.096695
8.049607
8.486509
8.365512
8.822680
8.178949
8.140802
8.200407
8.065701
8.356571
8.597970
8.131862
8.030534
7.944703
7.495880
7.124543
7.640719
7.411838
7.239580
7.311702
6.753802
8.402467
7.932782
7.985830
8.209944
8.506775
8.195639
9.246469
8.582473
8.812547
7.790923
7.154942
8.192658
7.136464
6.584525
5.863905
5.992651
5.405545
5.355477
5.450845
5.133748
5.340576
5.071759
5.105734
4.879832
4.637837
4.513860
4.807711
5.242825
5.143881
4.666448
5.150437
4.326701
5.280972
4.915595
5.016923
5.413890
5.243421
4.827976
5.147457
4.887581
5.065799
4.788637
4.770756
4.906654
5.307794
4.962683
4.737973
4.760623
##ZVALUE=260
1.140833
0.900626
0.858903
1.129508
0.886917
1.261830
1.347661
1.296997
1.533628
1.320839
1.623631
2.249479
7.867813
31.377673
67.713857
160.890818
263.715982
435.809493
574.518442
744.379759
807.541609
814.605951
723.201632
559.757948
410.153866
244.798660
159.474611
93.156695
75.131655
76.023936
96.947551
116.708875
134.485960
141.043663
136.274695
123.983622
100.008845
80.455542
51.339865
36.834478
24.638772
14.998913
10.686517
8.588433
8.598566
9.194613
9.017587
9.826422
8.818507
9.301901
8.897781
9.216666
9.178519
9.147525
8.743405
8.982420
9.459853
8.802414
9.039640
7.902980
7.921457
7.781982
8.308887
8.179545
7.687807
7.105470
6.827712
7.593632
7.203817
7.410645
7.889867
8.160472
8.071661
7.934570
8.107424
7.943511
7.723570
7.605553
6.883740
6.885529
5.959868
5.985498
5.571842
5.644560
5.409718
5.027652
4.529953
4.748702
4.370809
4.617572
4.373789
4.426837
4.768968
4.692674
4.202724
4.412532
4.293919
4.395843
4.955530
4.698634
4.229546
4.313588
4.297495
4.219413
4.207492
4.242659
4.339814
4.260540
4.711747
4.474521
4.443526
4.562736
4.468560
4.631877
4.548430
4.519820
##ZVALUE=265
1.008511
0.874996
0.890493
1.073480
0.908971
1.152754
0.957847
1.176596
0.945926
1.170635
1.379848
1.632571
1.449585
2.024770
4.195571
20.303726
48.604608
124.167800
221.460462
406.075716
565.994978
685.912967
863.968730
897.786021
815.074444
710.600615
527.113676
374.030471
212.628841
134.459734
78.774691
65.554976
80.334544
98.983645
125.670433
139.597654
144.499540
141.837597
121.513605
105.191469
75.619817
57.759881
36.380887
25.477409
16.124845
12.929440
11.060834
9.825826
10.593534
9.961724
10.584593
10.852814
11.112690
10.286570
10.181665
10.068417
9.175539
9.507537
9.587407
8.909702
8.852482
8.325577
8.804798
8.443594
7.801652
8.005500
7.469654
7.665753
7.761717
7.432699
7.768869
7.301569
7.773638
8.319616
7.628798
7.288456
7.557869
6.259680
6.768703
6.137490
5.730987
5.535483
5.410910
5.445480
5.017519
4.625916
4.390478
4.553795
4.175901
4.302859
4.826784
3.979802
3.856421
4.324913
4.130602
4.094839
3.852844
4.041791
4.199743
4.084706
4.087687
3.982782
4.125834
4.162788
4.150867
4.137754
4.451871
4.550815
4.168749
4.554987
4.435778
4.348755
4.138947
4.259944
4.028678
3.998876
##ZVALUE=270
0.806451
0.844598
0.779629
0.633597
0.854731
0.911951
0.805855
0.765920
0.880957
0.794530
0.879765
1.377463
1.299977
1.364946
1.304746
1.419783
2.149940
9.287596
26.530623
87.871552
169.862509
343.197584
511.232018
732.942820
855.102539
938.537717
922.368765
835.791826
659.248829
502.613783
300.816894
186.257958
95.369816
61.325431
59.387684
75.247884
103.766918
124.792457
141.864419
146.818757
139.852762
126.960874
103.427768
84.180832
55.834651
40.140748
26.960969
19.878745
14.478564
12.345910
12.047887
11.309981
11.089444
11.629462
11.254549
10.907650
10.614991
11.026859
10.158420
10.391474
9.887815
9.758472
9.458661
9.026527
9.039640
8.302927
8.274913
7.900000
7.897615
7.461905
8.071661
7.357597
7.693768
8.413792
8.366704
7.810593
7.225871
6.801486
6.535649
6.106496
5.607605
5.143881
4.763603
5.012751
5.098581
4.645586
4.577637
4.623532
4.099607
4.090667
4.056692
3.734827
3.892779
4.035830
4.103780
3.833771
4.101992
3.933907
3.821850
4.202724
3.608465
3.927946
4.039407
4.273653
4.159808
3.770590
4.204512
4.186630
4.152656
3.763437
4.149675
4.022717
3.737807
3.631711
3.646612
3.727674
##ZVALUE=275
0.879765
0.850558
0.775456
0.848770
0.821948
0.894666
0.894666
0.993609
0.937581
1.128912
1.077652
1.035929
1.169443
1.188517
1.169443
1.284480
1.370907
1.440644
1.728535
4.489422
15.098453
59.655905
130.708814
282.312632
443.372726
662.767887
808.458924
923.987627
961.934924
924.100876
830.478668
608.225465
431.847572
229.951739
132.826567
64.736605
48.643947
58.698654
76.382756
104.845762
123.168826
141.727924
146.347880
141.226649
127.287507
101.739764
81.781745
57.946444
44.321418
27.818680
20.743608
14.440417
13.497472
12.443662
11.820793
11.602640
11.420846
11.223555
10.844469
10.186434
10.130405
9.847879
9.332895
9.562969
8.724928
8.781552
8.258820
7.974505
7.979870
7.888675
7.773638
7.905960
7.672906
7.976890
7.776618
7.574558
6.705523
6.700754
6.259680
6.406903
5.699992
5.200505
5.077720
4.908442
4.707575
4.733801
4.557967
4.635453
4.441738
4.322529
3.962517
3.960729
3.994703
4.038811
3.678799
3.686547
3.981590
3.515482
3.865957
3.959537
4.063845
4.053712
3.882647
3.789663
4.359484
3.683567
4.144907
3.906488
3.655553
3.640652
3.820658
3.597736
3.764629
3.892779
3.442764
3.578663
##ZVALUE=280
0.680685
0.637770
0.731945
0.832677
0.864863
0.942945
0.742674
0.871420
1.126528
0.807643
0.975728
0.803471
1.006722
0.867844
1.167655
1.203418
1.079440
1.078844
1.140833
1.303554
1.591444
2.618432
9.759665
42.788982
97.943544
221.854448
354.496837
577.933788
743.445754
933.175683
1008.316875
997.639894
896.093845
688.901544
509.052873
295.554996
177.362561
80.156922
48.261881
41.788816
55.185556
79.029799
98.152757
125.200748
135.755539
142.521858
137.774944
121.162534
103.664994
78.311563
60.353875
39.739609
29.334426
19.227862
14.405847
12.224913
11.007786
11.185408
10.537505
10.245442
10.034442
9.608865
9.589791
8.659959
8.797646
8.386970
8.283854
8.244514
8.103848
7.815957
7.871985
7.732511
7.376671
7.511973
7.383823
7.070899
6.559491
6.423593
5.989671
5.823970
5.744696
5.573630
5.073547
4.743934
4.744530
4.814863
4.342794
4.200935
4.530549
4.316568
4.169941
3.943443
3.778934
4.003644
4.022717
4.036427
3.859997
4.058480
3.721714
3.528595
3.457665
3.793836
3.716946
3.730655
4.009604
3.968477
3.724694
3.712773
3.666878
3.717542
3.441572
3.390908
3.688931
3.613830
3.433824
3.823638
##ZVALUE=285
0.767708
0.706911
0.541806
0.743866
0.679493
0.800490
0.599623
0.814795
0.749826
0.742674
0.780821
0.770688
0.952482
0.846982
0.891685
0.995994
0.906587
1.014471
0.948906
1.140833
1.294613
1.370907
1.643896
1.783967
5.120635
16.874671
60.193539
126.889944
271.431804
423.533916
589.060783
821.042657
960.347652
1015.712023
981.590748
803.311467
631.407499
389.702916
244.807601
118.125677
64.272881
34.341812
34.795403
51.315427
70.396662
97.670555
115.608573
132.032633
137.208700
132.390857
123.177767
101.598501
81.508756
57.818890
40.416718
25.408864
17.790794
12.883544
10.518432
9.315610
8.847713
8.598566
8.044839
7.987618
8.189678
7.888675
7.665753
7.403493
7.394552
7.201433
7.307529
7.546544
7.391572
6.732941
6.974936
6.313920
6.168485
5.911589
5.854964
5.523562
5.135536
4.897714
4.748702
4.751682
4.845858
4.159808
4.216433
4.364848
4.138947
4.165769
3.953576
3.897548
4.022717
3.911853
3.521442
3.943443
3.754497
4.023910
3.495812
3.404617
3.913641
3.618598
3.480911
3.363490
3.308654
3.522635
3.337860
3.417730
3.245473
3.539920
3.596544
3.397465
3.518462
3.429651
3.265738
3.512502
##ZVALUE=290
0.586510
0.574589
0.584722
0.563860
0.625849
0.579953
0.806451
0.732541
0.593662
0.783801
0.729561
0.729561
0.832677
0.679493
0.849962
0.776649
0.761747
0.905991
0.995994
1.061559
1.026988
0.783801
1.226664
1.130700
1.569986
1.520514
2.277493
7.417798
34.449697
79.032779
184.584856
308.943987
538.903475
732.041597
939.154029
1015.712023
1010.570526
907.487869
697.552562
522.782803
303.325653
180.006623
78.426600
40.400624
25.207996
29.076934
47.390461
62.438846
87.353587
106.056929
125.227571
132.528543
127.120614
118.870735
97.768903
76.994896
52.872896
37.283897
23.596883
16.112924
10.529757
8.501410
7.283688
6.961823
6.590486
6.612539
6.548762
6.225705
6.184578
6.252527
6.124973
6.375909
5.869865
6.511807
6.091595
5.768538
5.630851
5.638599
4.875660
4.948974
4.881620
4.621744
4.395843
4.396439
4.417896
4.317760
3.958941
4.008412
4.171729
4.141927
3.809929
3.614426
3.735423
3.795624
3.441572
3.591776
3.462434
3.407598
3.733635
3.644824
3.743768
3.774762
3.381968
3.440976
3.402829
3.255606
3.504753
3.357530
3.334880
3.271699
3.194809
3.332496
2.986789
3.479719
3.120899
3.010631
##ZVALUE=295
0.615716
0.629425
0.637770
0.681877
0.624657
0.705719
0.581741
0.752807
0.642538
0.696778
0.635982
0.753999
0.867844
0.704527
0.680685
0.781417
0.894666
0.881553
0.907779
0.853539
0.801682
1.054406
1.167655
1.171827
1.169443
1.399517
1.346469
1.487732
1.677871
4.048944
13.672709
54.530501
116.520524
266.128778
418.630838
651.907921
824.190974
992.048979
1015.712619
952.999592
817.543864
586.766601
408.810973
216.245651
120.325685
47.929883
23.936629
19.988418
27.292967
43.290854
59.400797
82.836747
100.735426
116.942525
124.148726
121.665001
110.758543
92.132688
73.410869
51.779747
36.048889
21.928549
15.002489
9.146929
6.941557
5.600452
5.358458
5.277991
5.313754
5.349517
5.170703
5.490780
5.495548
5.250573
5.388856
5.122423
5.133748
4.601479
4.464984
4.510880
4.424453
4.375577
4.238486
3.997684
3.793836
3.848672
3.855824
3.673434
3.752708
3.516674
3.905892
3.423691
3.481507
3.307462
3.404617
3.351569
3.320575
3.392696
3.002882
3.597736
3.271699
3.454685
3.502965
3.178716
3.166795
3.334880
3.342628
3.316998
3.388524
3.048778
3.584623
3.135800
3.068447
3.089905
3.271699
3.077984
##ZVALUE=300
0.631809
0.470877
0.531673
0.538826
0.616908
0.565648
0.475645
0.586510
0.589490
0.630617
0.750422
0.750422
0.685453
0.602603
0.632405
0.600815
0.771880
0.867844
0.801682
0.859499
0.910759
0.802875
0.849962
1.044869
1.026988
1.056790
1.167655
1.179576
1.272559
1.313686
1.584888
2.021790
5.905628
30.509830
72.335005
181.210637
313.071609
549.203753
725.728869
924.140811
1004.928946
995.562673
892.897844
682.616830
501.399636
283.769965
164.862871
71.297884
34.113526
16.289949
15.762448
25.058985
35.352707
55.317879
72.556734
95.458627
108.860731
117.823482
116.290450
104.980469
90.365410
68.614483
51.886439
34.365654
23.347735
13.390779
8.956790
5.850792
5.153418
5.027652
4.663467
4.994869
4.651546
4.873872
4.582405
4.804730
4.651546
4.542470
4.394650
3.994703
3.975630
4.079938
4.089475
3.859997
3.990531
3.852844
3.589988
3.508925
3.547668
3.247857
3.350973
3.216863
3.377795
3.508925
3.129840
3.232956
3.434420
3.163815
3.318787
3.248453
3.240705
3.049970
3.046989
3.120899
3.258586
3.218651
3.148913
2.954602
3.111959
2.966523
3.032684
2.895594
3.080964
2.954602
2.579689
2.929568
##ZVALUE=305
0.556707
0.491738
0.648499
0.583529
0.649691
0.550747
0.625849
0.590682
0.657439
0.526905
0.345707
0.635982
0.692606
0.726581
0.721812
0.730753
0.592470
0.651479
0.683665
0.754595
0.678897
0.771880
0.846982
0.906587
0.761747
1.105666
1.140833
1.077652
1.083612
1.068711
1.315475
1.513958
1.508594
1.748800
3.653765
13.385415
54.802895
119.072795
266.856551
416.811705
649.740696
813.007951
973.043442
1013.989449
929.150581
792.964697
567.433834
396.010876
208.128691
115.155578
45.602918
21.082759
12.264848
14.678836
23.151636
33.450723
53.586960
69.646835
89.199543
100.799799
110.240579
108.675957
98.443627
86.250901
64.409971
49.939752
31.987429
21.192431
12.400746
8.202791
5.748868
4.484653
4.383922
4.262924
4.167557
3.959537
3.934503
3.638864
3.579855
3.508925
3.607869
3.537536
3.416538
3.404617
3.458858
3.264546
3.117919
3.235936
3.272891
3.208518
3.348589
3.250837
2.908707
3.085732
2.858639
2.889633
2.814531
3.026724
2.915859
2.931952
2.819896
2.889633
2.875924
2.934933
3.352761
3.296733
2.977848
3.045797
2.947450
2.930760
2.856851
2.758503
2.597570
2.594590
2.660751
2.526641
##ZVALUE=310
0.553727
0.608563
0.406504
0.535846
0.591874
0.479817
0.533462
0.574589
0.690818
0.488758
0.530481
0.618696
0.558496
0.486970
0.734925
0.595450
0.586510
0.644922
0.601411
0.552535
0.750422
0.861883
0.805855
0.772476
0.785589
0.727773
0.799894
0.822544
1.039505
0.819564
1.060963
0.956655
1.132488
1.243949
1.314878
1.549721
1.992583
5.457401
29.273629
71.277618
176.735520
300.756693
522.160530
700.608492
904.276967
991.850495
986.844897
888.596773
684.962869
507.627726
294.979811
175.547600
73.736906
34.146905
13.175607
9.544492
13.287663
18.825531
29.894710
42.550564
63.103437
77.908635
95.302463
102.725625
102.459788
97.114444
81.404448
67.544580
46.512485
32.348633
19.063950
13.353825
8.064508
5.865693
4.618764
4.098415
3.619790
3.374815
3.087521
3.215671
3.153682
3.063679
3.408790
3.262758
3.283620
2.788901
2.889633
3.039837
2.997518
2.930760
2.831817
2.758503
2.840757
2.724528
2.895594
2.704859
2.608895
2.627969
2.681613
2.711415
2.832413
2.641678
2.731681
2.668500
2.910495
2.333522
2.481937
2.549887
2.763867
2.417564
2.365708
2.808571
2.507567
2.601743
2.659559
2.589822
##ZVALUE=315
0.531673
0.537634
0.517964
0.546575
0.440478
0.451803
0.557899
0.612736
0.540614
0.457764
0.561476
0.464916
0.489950
0.467896
0.494719
0.546575
0.420809
0.579953
0.553727
0.603795
0.540614
0.720620
0.732541
0.742674
0.780821
0.704527
0.660419
0.781417
0.851750
0.725985
0.852942
0.849962
0.971556
1.080632
1.109838
1.168847
1.277924
1.636744
1.626611
2.746582
14.952421
42.403936
123.571754
229.753852
435.404778
614.497662
826.073885
947.945714
994.741917
935.029984
767.154694
603.781939
374.586582
234.709978
110.420585
52.505732
16.831756
8.948445
8.757710
10.932684
18.051863
26.047826
41.155815
55.301785
74.443817
87.559819
95.105767
97.857714
89.159608
76.786876
59.337616
45.895576
30.223727
20.544529
11.715889
7.820725
5.145669
4.098415
3.496408
3.081560
2.720952
2.808571
2.775788
2.864599
2.655983
2.594590
2.571940
2.742410
2.665520
2.602935
2.656579
2.631545
2.574921
2.501607
2.548695
2.513528
2.492666
2.409816
2.340674
2.327561
2.567768
2.485514
2.432466
2.619624
2.553463
2.414584
2.459884
2.621412
2.489686
2.581477
2.446771
2.498627
2.381802
2.183914
2.239943
2.355576
##ZVALUE=320
0.403523
0.416636
0.404716
0.513792
0.546575
0.577569
0.600815
0.514984
0.515580
0.662804
0.645518
0.677705
0.448823
0.563860
0.621676
0.585914
0.427961
0.495911
0.526905
0.661612
0.543594
0.375509
0.634789
0.840425
0.652671
0.839829
0.794530
0.699759
0.829697
0.733733
0.953674
0.804663
0.767708
0.997782
0.830889
1.079440
1.031756
1.110435
1.136661
1.414418
1.454949
1.819730
6.901622
23.355484
81.907511
163.709521
330.955982
497.065783
729.938745
874.868035
979.129672
975.708961
849.189758
697.898865
473.589897
309.120417
145.302415
75.755715
28.420687
12.483001
7.258654
7.558465
10.744929
14.624596
24.443865
34.945607
52.565932
67.358613
82.471967
90.161562
90.987682
85.872412
72.365999
59.872866
42.005777
30.639768
18.655658
11.900663
6.506443
4.386902
3.359914
2.969503
2.561808
2.604723
2.503991
2.437830
2.462864
2.215505
2.446771
2.342463
2.385974
2.421737
2.201796
2.282858
2.306700
2.238750
2.413988
2.301931
2.304912
2.403855
2.253652
2.253652
2.369881
2.338886
2.282858
2.219677
2.288818
2.178550
1.916885
2.194643
2.110600
2.186894
2.300739
2.108812
2.068877
1.902580
##ZVALUE=325
0.458956
0.492930
0.451803
0.522733
0.428557
0.495911
0.419617
0.508428
0.544786
0.540614
0.577569
0.683665
0.578761
0.505447
0.647902
0.488758
0.685453
0.523925
0.684857
0.444651
0.544786
0.648499
0.603795
0.792742
0.671744
0.781417
0.637770
0.717640
0.878572
0.849962
0.808835
0.797510
0.635982
0.834465
0.889897
0.886917
0.981688
0.886917
0.964999
1.254678
1.180768
1.242757
1.489520
1.680851
3.479719
13.656616
52.910447
114.418864
256.440639
407.675505
634.475946
790.881515
941.326022
971.366763
892.182589
753.571987
526.117682
369.663835
199.448466
112.629533
43.665767
17.406940
7.171631
6.310940
7.224679
8.751750
15.085936
22.387505
35.981536
50.212741
67.361593
76.463819
85.555911
84.998608
79.622865
69.888830
52.155852
39.719939
25.127530
17.152429
9.977818
6.511807
3.955960
3.366470
2.660751
2.550483
2.448559
2.540946
2.240539
2.207756
2.263784
2.058744
2.135634
1.943707
2.299547
2.177954
2.179742
2.150536
2.267957
2.195835
2.061725
2.086759
2.222657
1.939535
2.075434
2.008677
2.044439
2.214909
2.115965
2.151728
1.979470
2.025962
2.023578
1.910925
1.943707
1.826882
##ZVALUE=330
0.427961
0.588894
0.363588
0.483990
0.396967
0.385642
0.465512
0.323653
0.341535
0.524521
0.479817
0.529885
0.474453
0.391603
0.489950
0.415444
0.403523
0.596642
0.417829
0.485778
0.496507
0.532866
0.569820
0.657439
0.569820
0.644922
0.568628
0.966787
0.719428
0.621676
0.756979
0.763535
0.686646
0.733733
0.703931
0.888705
0.825524
0.733733
0.963807
0.957847
1.037717
0.856519
1.216531
1.226664
1.333952
1.457930
2.020001
5.956888
31.519532
76.323748
184.751749
309.269428
527.608395
696.264505
873.226523
942.692757
912.685990
803.705454
610.890985
445.570946
252.489448
142.825842
56.688786
26.120543
8.995533
6.122589
5.782843
6.139874
9.154677
13.761520
22.778511
32.105446
47.010779
58.976412
72.880983
77.764988
78.729987
73.878765
62.139630
50.269961
35.921931
26.567578
16.336441
10.675788
6.278753
4.076958
3.091693
2.685785
2.181530
2.314448
1.910925
2.123713
2.093911
1.871586
1.738667
1.825690
1.955628
2.058744
2.247691
2.196431
1.960993
2.089739
2.138615
1.909733
1.884699
1.992583
1.960993
1.886487
1.958609
1.906753
1.868606
1.912713
1.898408
1.759529
1.740456
1.756549
##ZVALUE=335
0.370741
0.520945
0.444651
0.382662
0.414848
0.457764
0.540614
0.552535
0.508428
0.511408
0.344515
0.412464
0.511408
0.645518
0.639558
0.529885
0.411868
0.441670
0.547767
0.484586
0.617504
0.309944
0.438690
0.533462
0.425577
0.711679
0.631809
0.662804
0.661612
0.646710
0.589490
0.569820
0.742674
0.454783
0.766516
0.673532
0.781417
0.738502
0.769496
0.821948
0.836849
0.780821
0.956655
0.893474
0.910759
1.031756
1.211762
1.298785
1.638532
3.021955
16.661882
45.355558
128.741860
229.981542
423.569679
597.613454
804.117918
902.002454
924.935937
856.238604
684.016943
512.771606
304.661989
186.503530
81.162453
36.500692
11.648536
6.706715
5.335808
5.351901
6.367564
8.021593
13.088584
19.625425
31.346679
42.157769
55.815578
66.459775
73.573589
73.910952
67.325830
59.714913
47.068000
36.664605
24.350882
17.343760
10.053515
6.707907
3.938675
3.052950
2.342463
2.121925
2.064705
1.896620
1.919866
2.023578
1.961589
1.822710
2.045631
1.997948
1.945496
1.964569
1.935959
1.946688
1.998544
2.077818
2.008677
1.923442
1.740456
1.877546
1.870990
1.868606
1.919866
1.758933
1.922846
1.684427
##ZVALUE=340
0.420809
0.439882
0.403523
0.538826
0.421405
0.520945
0.345707
0.404716
0.420809
0.434518
0.440478
0.404716
0.461936
0.344515
0.487566
0.474453
0.385642
0.486970
0.565648
0.563860
0.593662
0.464916
0.469685
0.480413
0.680685
0.506639
0.625849
0.532866
0.617504
0.587702
0.753999
0.628829
0.606775
0.737906
0.581741
0.677705
0.640750
0.622869
0.713468
0.702739
0.804663
0.802875
0.785589
0.908971
0.763535
0.998974
0.980496
1.140833
1.237988
1.260638
1.448989
1.896620
8.337498
26.789904
87.019801
172.877908
353.089571
511.554480
718.184710
839.183927
913.386941
879.960656
727.300644
579.464436
369.422436
231.839418
106.163621
51.324964
14.982820
7.028580
5.249977
5.443692
5.100965
5.709529
7.893443
11.744499
20.023584
28.694868
42.511821
52.552819
63.001513
68.598986
68.768859
65.469742
55.828691
47.068000
33.949614
25.349855
15.843511
10.512471
6.254911
4.331470
3.115535
2.412796
1.989603
1.912713
1.925826
1.845956
1.849532
1.896620
1.779795
1.871586
1.842976
1.917481
1.675487
1.545548
1.872778
1.916885
2.014637
1.843572
1.845956
1.835823
1.933575
1.850724
1.918674
1.786947
##ZVALUE=345
0.423789
0.448823
0.393987
0.339746
0.303984
0.391603
0.523925
0.349879
0.359416
0.277758
0.405908
0.522733
0.481606
0.405908
0.438690
0.482798
0.334978
0.442863
0.497699
0.499487
0.506639
0.561476
0.413656
0.543594
0.423789
0.459552
0.570416
0.624657
0.542998
0.473857
0.629425
0.541806
0.637770
0.578761
0.583529
0.641942
0.775456
0.588894
0.644922
0.739694
0.631809
0.718832
0.833869
0.612736
0.910759
0.800490
0.867844
1.003742
0.939965
0.869632
1.173615
1.074672
1.202822
1.477599
3.644824
13.110638
54.291487
116.503835
254.736543
393.085480
606.213808
749.039650
870.873928
884.509683
787.835717
654.416680
449.146628
293.547511
136.229992
68.723559
24.497509
10.368824
5.332828
5.078912
4.758835
4.410744
5.165935
6.687641
11.312962
16.566515
27.291775
36.084652
48.152804
56.005716
62.392950
63.935518
60.578585
54.473877
43.350458
34.721494
24.411678
17.002821
10.375977
6.483793
4.171729
2.947450
2.345443
2.134442
1.902580
1.855493
1.988411
1.913905
1.979470
1.804829
1.738667
1.710653
1.860857
1.904964
1.890659
2.042651
1.798868
1.692772
1.790524
1.952648
1.759529
1.994967
##ZVALUE=350
0.387430
0.502467
0.524521
0.386834
0.430942
0.483990
0.506639
0.326633
0.478625
0.325441
0.473857
0.466704
0.471473
0.427961
0.564456
0.516772
0.578761
0.494719
0.760555
0.503659
0.513792
0.558496
0.486970
0.622869
0.696778
0.442863
0.485778
0.488758
0.683665
0.510812
0.651479
0.688434
0.652671
0.636578
0.455976
0.457764
0.473857
0.605583
0.695586
0.510812
0.674725
0.603795
0.655651
0.599623
0.707507
0.796914
0.935793
0.948906
0.980496
0.863671
0.868440
0.991821
1.001954
1.064539
1.220703
1.226664
2.100468
7.155538
33.207536
76.175928
185.142756
308.692455
509.625673
660.547614
816.645622
872.107744
818.913579
701.117516
490.212440
332.952738
174.531937
94.950795
35.544634
13.894439
5.702972
4.679561
4.331470
4.129410
4.114509
4.361868
6.630421
9.295940
15.637875
22.096634
32.551885
40.758848
50.925612
55.780411
58.125854
56.740642
49.007535
42.594671
31.456947
23.929477
15.378594
10.623932
6.568432
4.543662
3.087521
2.455711
2.148747
2.025962
1.903772
1.859665
1.930594
1.825690
1.883507
1.755953
1.795888
1.746416
1.816750
1.793504
1.702905
1.728535
1.739860
1.619458
##ZVALUE=355
0.438690
0.504851
0.345707
0.402927
0.492930
0.385642
0.450611
0.440478
0.417829
0.446439
0.449419
0.401735
0.243783
0.520945
0.376701
0.543594
0.458956
0.529885
0.553727
0.412464
0.402927
0.426769
0.507832
0.431538
0.382662
0.476837
0.368953
0.598431
0.632405
0.727773
0.659823
0.581741
0.534654
0.552535
0.549555
0.569820
0.553727
0.606775
0.573993
0.694990
0.649691
0.749826
0.636578
0.621676
0.714660
0.746846
0.692606
0.518560
0.727773
0.702739
0.731945
1.007915
0.954866
1.039505
0.903606
1.085997
1.038909
1.315475
1.593828
3.218651
17.953515
50.244927
136.496425
237.618685
422.417521
580.337644
761.577487
844.722986
835.409760
742.098689
551.170707
402.454734
226.897597
125.770569
49.537420
20.134449
6.396770
4.683733
4.337430
3.812909
3.809929
3.508925
4.162788
5.320907
8.473992
12.293458
20.024776
26.593804
36.972761
44.249892
51.219463
52.847862
51.027536
47.219992
39.556623
32.458901
23.198724
17.114878
10.695457
7.254481
4.689693
3.279448
2.603531
2.438426
2.090931
2.020597
1.848936
1.727939
1.703501
1.831651
1.841784
1.614690
1.915693
1.623631
1.709461
1.876950
##ZVALUE=360
0.378489
0.478625
0.290871
0.567436
0.499487
0.319481
0.438690
0.390410
0.300407
0.395775
0.567436
0.617504
0.425577
0.601411
0.521541
0.386834
0.460744
0.493526
0.362992
0.382662
0.519753
0.483990
0.574589
0.409484
0.466704
0.687838
0.639558
0.604987
0.582933
0.510812
0.548959
0.519753
0.527501
0.638962
0.664592
0.592470
0.729561
0.510812
0.642538
0.555515
0.653863
0.598431
0.707507
0.745654
0.677705
0.726581
0.777841
0.710487
0.589490
0.718832
0.809431
0.817776
0.814795
0.895858
0.944734
1.100898
0.906587
1.201630
0.937581
1.160502
1.440644
1.883507
7.659793
24.875998
83.732605
162.785649
321.236849
478.663445
685.930848
796.629786
841.004848
788.447857
636.559725
483.830571
292.712450
174.475908
74.792504
32.239556
9.461641
5.080700
4.413724
4.180670
3.616810
3.342628
3.349781
3.721714
4.804730
6.461740
10.313988
15.234947
22.983551
29.919744
38.790703
44.181943
48.590899
48.491955
44.626594
39.593577
31.366944
25.159717
17.146468
12.362599
7.660985
5.471706
3.413558
2.686977
2.075434
2.081990
1.969934
1.787543
1.850724
1.589656
1.708865
1.631975
1.644492
1.593828
##ZVALUE=365
0.435710
0.345707
0.431538
0.442863
0.457764
0.450611
0.432730
0.370741
0.553727
0.360608
0.444651
0.324845
0.444651
0.219941
0.300407
0.594854
0.560880
0.518560
0.571609
0.494719
0.711679
0.564456
0.553727
0.402927
0.495911
0.391603
0.513792
0.462532
0.447631
0.496507
0.280738
0.370741
0.401735
0.359416
0.594854
0.514984
0.423789
0.543594
0.813603
0.749826
0.703931
0.524521
0.669956
0.570416
0.634789
0.589490
0.661612
0.717640
0.824928
0.728965
0.657439
0.522733
0.825524
0.833869
0.829697
0.849962
0.953674
1.077652
1.052618
1.127720
1.182556
1.247525
1.452565
1.586676
3.593564
13.049841
50.292611
111.064911
255.315900
397.334695
588.140488
716.251731
811.668634
798.380971
691.473484
561.378598
365.292430
228.295922
101.279616
47.693849
14.032722
6.277561
4.175901
3.773570
3.671646
3.413558
2.965927
2.892613
3.052950
3.746748
5.573630
8.046627
13.197660
18.437505
26.632547
32.187700
39.591789
42.736530
44.125915
43.050647
38.332939
32.401681
24.351478
18.707514
12.326837
8.654594
5.587935
3.556609
2.864599
2.344847
1.984835
1.916885
1.661777
1.687407
1.568794
1.695752
##ZVALUE=370
0.405908
0.478625
0.464916
0.353456
0.372529
0.477433
0.431538
0.328422
0.536442
0.364780
0.399947
0.476837
0.498891
0.503659
0.342727
0.452995
0.395775
0.366569
0.552535
0.555515
0.447631
0.476837
0.464916
0.494719
0.417829
0.349879
0.459552
0.577569
0.546575
0.486970
0.426769
0.440478
0.473857
0.580549
0.498891
0.589490
0.631809
0.331998
0.643730
0.736713
0.594854
0.472665
0.485778
0.512600
0.701547
0.612736
0.582933
0.645518
0.576973
0.695586
0.669956
0.767708
0.692606
0.880957
0.724792
0.797510
0.634789
0.809431
0.773668
0.834465
0.949502
1.021624
1.111627
1.100898
1.274943
1.353621
1.890659
8.632541
29.081702
95.393658
178.185701
336.017013
490.895510
685.290694
779.328942
805.632472
739.504695
581.503510
432.171822
244.539976
139.046907
55.465698
25.311708
8.680820
4.504919
3.669858
3.638864
3.136992
2.912879
2.881885
2.595782
2.875924
3.382564
4.991889
7.100701
11.430979
15.766621
23.226738
28.839707
35.306811
39.354563
41.667819
41.007996
36.473870
31.455755
24.539828
18.902421
12.963414
9.576678
5.936623
4.437566
2.756715
2.373457
1.830459
1.777411
1.673698
##ZVALUE=375
0.384450
0.426769
0.283718
0.450611
0.442863
0.306964
0.427961
0.443459
0.413656
0.471473
0.364780
0.486970
0.448823
0.463724
0.582933
0.435710
0.445843
0.440478
0.419617
0.518560
0.386834
0.366569
0.387430
0.523925
0.449419
0.476837
0.544786
0.698566
0.468493
0.572801
0.414848
0.442863
0.491738
0.551939
0.472665
0.718832
0.461936
0.688434
0.560880
0.668764
0.520945
0.638962
0.624657
0.575781
0.478625
0.479817
0.606775
0.672936
0.579953
0.600815
0.630617
0.626445
0.577569
0.645518
0.681877
0.595450
0.783801
0.813603
0.716448
0.695586
0.769496
0.859499
0.849962
0.963807
0.842810
1.014471
1.098514
1.237988
1.518726
3.642440
19.887686
51.294565
136.680603
245.532990
430.373549
584.514737
744.744539
800.004601
759.893656
661.206841
480.546951
341.030955
186.465979
106.151700
41.263700
17.381907
5.682707
3.766418
3.432631
3.316998
2.826452
2.834797
2.564788
2.450943
2.488494
2.788901
3.871918
5.438924
9.102821
12.960434
19.581914
24.801493
31.758547
35.804510
39.272904
38.776994
36.301613
31.046867
26.907921
20.583868
15.745759
10.447502
7.445812
4.511476
3.221631
2.397895
##ZVALUE=380
0.435710
0.381470
0.475645
0.469685
0.354648
0.430942
0.360608
0.382662
0.383854
0.266433
0.348687
0.275970
0.442863
0.321865
0.457764
0.456572
0.580549
0.508428
0.357628
0.338554
0.365973
0.747442
0.390410
0.387430
0.252724
0.378489
0.344515
0.475645
0.544786
0.450611
0.428557
0.526905
0.537634
0.327826
0.346899
0.462532
0.394583
0.498891
0.499487
0.494719
0.602603
0.618696
0.531673
0.557899
0.577569
0.535846
0.536442
0.598431
0.583529
0.444651
0.399947
0.644922
0.566840
0.615716
0.728965
0.671744
0.631809
0.686646
0.725985
0.775456
0.727773
0.777841
0.743866
0.659823
0.861883
0.940561
0.933409
0.928640
1.084805
1.166463
1.476407
2.543926
8.829832
41.512847
93.824863
210.347772
344.229937
551.151633
693.030953
804.806948
805.462003
694.835782
572.309494
395.736694
264.927745
130.783916
67.182779
23.378730
9.540915
3.943443
3.218651
2.865791
3.059506
2.796650
2.436638
2.705455
2.527833
2.534986
2.687573
3.346801
4.457831
7.786751
11.143684
17.299652
22.555590
29.337406
32.792687
36.530495
37.094951
35.218596
31.902790
26.663542
21.903515
15.161633
11.383891
7.371902
##ZVALUE=385
0.370741
0.385642
0.424981
0.398755
0.431538
0.354648
0.367761
0.430942
0.545979
0.378489
0.279546
0.467896
0.378489
0.350475
0.332594
0.453591
0.503659
0.466704
0.423789
0.357628
0.501871
0.527501
0.519753
0.332594
0.239611
0.486970
0.443459
0.518560
0.342727
0.426769
0.527501
0.355840
0.513792
0.429749
0.405908
0.427961
0.477433
0.556707
0.592470
0.594854
0.645518
0.551939
0.573993
0.537634
0.531673
0.482798
0.571609
0.596642
0.384450
0.525713
0.722408
0.661612
0.714660
0.672936
0.626445
0.669956
0.652671
0.519753
0.632405
0.674725
0.753999
0.642538
0.772476
0.678897
0.660419
0.687838
0.831485
0.803471
1.047850
1.180768
0.999570
1.309514
1.429915
1.517534
4.577637
15.808940
59.790611
133.113861
287.901759
436.384678
637.788773
746.286511
801.964998
766.986609
636.956692
504.824519
318.023562
202.470422
91.845989
44.333935
13.226867
5.425811
3.148913
3.127456
2.912879
2.895594
2.601743
2.623796
2.729893
2.597570
2.312660
2.305508
2.779961
3.920794
6.162524
8.936524
14.148951
19.774437
23.947954
29.370785
32.722950
34.314990
33.709407
31.119585
27.573705
21.528602
##ZVALUE=390
0.388622
0.310540
0.476837
0.300407
0.461936
0.452995
0.393987
0.295639
0.309944
0.446439
0.343919
0.380874
0.373721
0.339746
0.448823
0.395775
0.471473
0.503659
0.420809
0.373721
0.362992
0.526905
0.477433
0.479817
0.496507
0.413656
0.291467
0.380874
0.455976
0.374913
0.311732
0.585914
0.617504
0.542998
0.571609
0.487566
0.543594
0.630617
0.436902
0.478625
0.525713
0.702739
0.629425
0.508428
0.649691
0.622869
0.566840
0.582933
0.529885
0.584722
0.546575
0.475645
0.612736
0.583529
0.602603
0.665784
0.676513
0.597835
0.643730
0.708699
0.565648
0.537634
0.634789
0.699759
0.746846
0.799894
0.859499
0.807643
0.981688
1.034737
1.233816
1.182556
1.158714
1.164675
1.196861
1.318455
2.301931
8.855462
40.665865
95.625520
225.427747
355.458856
543.999672
674.423575
785.283446
799.796581
710.964799
592.557788
403.565764
270.760655
138.339996
71.462989
24.958849
9.608865
3.693700
3.264546
3.150702
2.829432
2.937913
3.004670
2.693534
2.692938
2.535582
2.386570
2.245903
2.610683
3.536940
5.400777
7.678866
11.498928
15.346408
20.983815
25.007725
29.877424
32.362938
32.256842
##ZVALUE=395
0.446439
0.368953
0.372529
0.512600
0.406504
0.460744
0.408888
0.310540
0.205636
0.245571
0.324845
0.440478
0.294447
0.464916
0.410676
0.345707
0.339746
0.383854
0.391603
0.371933
0.406504
0.445843
0.402927
0.286698
0.452995
0.329614
0.458956
0.473857
0.414848
0.458956
0.359416
0.488758
0.345707
0.325441
0.473857
0.665784
0.552535
0.483990
0.527501
0.621676
0.548959
0.610948
0.595450
0.567436
0.558496
0.608563
0.549555
0.624657
0.770688
0.547767
0.692606
0.481606
0.804663
0.501871
0.622869
0.684857
0.697970
0.727773
0.789762
0.522733
0.742674
0.609756
0.748634
0.702739
0.798702
0.716448
0.882745
0.911951
0.860691
1.036525
1.073480
1.044869
0.989437
1.097918
1.165867
1.153946
1.070499
1.205802
1.756549
5.170703
26.067495
64.240694
156.444907
266.884565
456.286669
602.269769
758.900642
811.616778
779.207945
679.530501
497.198701
346.751809
184.238553
98.687410
36.652684
15.657544
5.242825
3.578663
3.120899
3.116727
2.978444
3.096461
2.896786
2.799630
2.464652
2.622604
2.310872
2.246499
2.327561
3.117919
3.659725
6.333590
8.829832
13.446808
17.582774
23.508668
##ZVALUE=400
0.409484
0.459552
0.363588
0.416636
0.483990
0.398755
0.444651
0.303984
0.377893
0.499487
0.466704
0.325441
0.149608
0.222921
0.357628
0.273585
0.467896
0.401735
0.348687
0.385642
0.383854
0.391603
0.434518
0.478625
0.364780
0.469685
0.385642
0.578761
0.433922
0.397563
0.409484
0.348687
0.598431
0.568628
0.397563
0.397563
0.585914
0.526905
0.590682
0.554919
0.470877
0.619888
0.623465
0.558496
0.484586
0.566840
0.564456
0.627637
0.552535
0.534654
0.590682
0.746846
0.725985
0.627637
0.643730
0.553727
0.505447
0.625849
0.535846
0.651479
0.657439
0.552535
0.588894
0.658631
0.674725
0.774860
0.783801
0.806451
0.807643
0.913739
0.867844
1.015663
1.139641
1.034737
0.911951
0.882745
1.008511
1.133680
1.197457
1.254678
1.500845
2.585649
13.322830
37.012696
105.636716
194.518566
366.965532
511.719584
689.768791
773.992538
781.160593
708.856583
541.187525
393.466949
225.362778
134.247541
57.631731
26.777983
9.067655
4.141927
3.165603
3.035665
3.000498
2.989769
2.923608
2.968907
2.990961
2.688766
2.515912
2.240539
2.234578
2.271533
2.366900
3.248453
5.188584
8.423924
##END
