##TITLE=2-1
##FORMAT=SPECTACLE-ASCII V-1.2
##DATA TYPE=ULTRAVIOLET SPECTRUM
##SECOND TYPE=ULTRAVIOLET SPECTRUM
##DATE=04/11/18
##TIME=14:33:36
##SPECTROMETER/DATA SYSTEM=SPECTACLE
##XUNITS=NM EM
##YUNITS=ENERGY
##YFACTOR=1
##FIRSTX=220
##LASTX=450
##NPOINTS=116
##3DDATA=Equidistant
##ZUNITS=NM EX
##FIRSTZ=210
##LASTZ=400
##ZPOINTS=39
##XYDATA=(Y..Y)
##ZVALUE=210
16.794801
18.452406
15.724897
11.630654
11.016726
11.071563
10.345578
9.065866
7.381439
6.282926
4.420877
3.941655
3.340840
3.356934
3.940463
4.144907
3.923774
3.904700
3.828406
3.950000
4.621744
4.502535
4.176497
4.185438
4.981756
4.901886
5.082488
5.546808
5.652905
6.396770
5.296469
6.301999
6.316900
6.476641
6.704926
7.303953
7.440448
7.502437
7.825494
8.115768
8.053780
8.872747
8.995533
9.345412
10.102987
9.315610
10.377765
10.878444
12.066960
11.316538
10.983944
12.388825
10.795593
12.368560
12.140870
12.084842
11.683702
10.848641
11.616945
11.233687
11.384487
10.207891
12.470484
12.006760
12.070537
11.016726
11.011958
13.003945
11.959672
13.705492
15.828609
15.607476
18.855929
18.595457
20.896792
22.022724
21.394491
23.264885
22.992492
20.048618
18.752813
16.850829
15.256405
13.582706
10.442734
10.306835
8.483529
8.710623
9.063482
10.443926
11.506677
15.417933
18.389821
23.673773
29.704571
35.968423
41.184425
49.286485
51.111579
59.341788
62.601566
61.823726
62.751770
60.913563
58.756471
57.417750
50.532818
46.534538
42.129755
33.600926
28.897524
22.164583
18.459558
16.147494
15.339851
15.683770
##ZVALUE=215
46.838522
44.451952
36.342740
30.296445
24.238825
18.993616
15.682578
16.340613
16.414523
13.834834
13.542771
10.402799
7.940531
6.226897
4.747510
3.566742
3.643632
3.889799
3.675818
3.785491
4.064441
4.165769
4.480481
4.206896
4.880428
4.810691
4.930496
5.431771
5.998611
5.634427
6.503463
6.587505
6.327629
6.771684
6.730556
8.090734
7.897615
8.864999
8.639693
9.442568
8.796453
9.232759
10.612607
11.480451
12.262464
12.584925
12.492537
11.477470
12.247562
13.328791
13.576746
13.570786
14.396906
15.041828
15.685558
15.703440
15.951991
15.155673
14.599562
14.486909
14.059544
16.058683
14.658570
14.207959
13.016462
12.991428
14.280677
14.223456
15.967488
15.028715
15.777946
17.488599
18.183589
18.759966
19.934773
19.965768
19.449592
20.713806
18.933415
18.463731
15.561581
15.774965
13.206601
12.444854
11.257529
9.812713
8.737445
9.095669
8.676648
7.407665
8.354783
7.522702
7.825494
8.999705
11.765957
13.642907
18.884540
23.708940
32.510757
40.596724
49.031973
60.028434
70.497990
79.134703
83.062649
91.705918
93.869567
97.722411
90.242624
87.395906
84.629655
75.695515
67.728758
59.275627
50.614476
38.743615
##ZVALUE=220
103.446841
100.448728
99.512935
90.636611
76.088905
57.151914
43.776631
30.359626
26.345849
25.721788
25.576949
23.719668
23.214817
19.235611
15.953779
11.466742
7.543564
6.161928
4.859567
4.219413
5.016923
4.880428
4.728436
4.327893
4.356503
6.029606
5.247593
5.564690
6.371737
6.818771
5.662441
7.510781
7.949471
7.888675
8.450747
8.498430
9.446740
10.030866
11.091828
10.573864
11.507869
13.208985
12.581944
13.512969
14.312863
15.132427
15.520453
15.383959
17.768741
17.197728
19.294620
20.285845
20.429492
18.589497
20.820498
20.589828
20.554662
22.663474
20.682812
21.641850
21.195412
20.010471
20.762682
18.761754
17.751455
17.667413
18.261671
17.609000
17.640591
18.377900
19.422770
19.147992
19.999743
22.221804
21.735430
22.764802
21.516681
19.230843
19.379854
17.009974
16.476512
16.558766
12.852550
14.046431
10.963678
11.538863
9.920597
9.369850
8.623600
8.258820
7.849932
7.646680
7.258654
7.374883
7.532835
7.091761
7.762909
7.712841
10.151863
11.596680
18.168688
23.364425
32.261610
40.940642
55.826902
69.122910
86.113811
102.811456
113.464594
129.147768
134.208798
147.235990
141.427517
143.109560
138.084888
127.752423
##ZVALUE=225
131.171942
139.691830
160.616636
174.643993
182.331800
159.496665
140.145421
99.410415
76.110959
53.023696
44.809580
38.937926
38.746595
36.898851
36.950707
31.236410
25.592446
21.054745
15.569925
11.942983
7.661581
6.417632
5.526543
5.200505
4.561543
5.578995
5.761981
6.030798
6.161928
7.544756
6.993413
7.237792
8.563995
7.898808
8.805990
9.414554
10.442734
11.965632
12.679696
13.568997
15.077591
15.826821
14.164448
16.572475
17.815828
19.367933
19.658804
21.050572
20.649433
23.672581
22.103786
26.148558
26.479959
25.899410
26.326776
27.336478
28.572679
27.769804
28.302670
27.461648
27.306676
27.156472
25.552511
26.346445
25.817752
23.885965
24.381876
22.737980
23.278594
23.102760
23.405552
24.483800
23.132563
24.039745
24.532676
21.613836
20.745993
20.393729
19.796491
18.693805
17.787814
17.923713
16.140938
13.471842
12.933612
11.501908
11.789799
10.216832
11.005998
10.196567
9.222627
10.038614
9.085536
8.842945
8.873940
8.367896
9.222627
8.809566
8.604527
8.761883
7.685423
8.831620
9.306669
11.470914
14.915466
21.309853
30.614734
42.994618
59.762597
81.716776
96.438527
123.860836
142.144561
175.795555
196.034908
217.625499
##ZVALUE=230
92.805624
95.456839
149.375796
200.976729
246.335864
294.014812
299.880505
272.979736
226.447582
137.879848
130.242705
72.596669
68.190694
54.544806
54.781437
60.966611
60.099959
55.701733
49.510002
30.796528
28.652549
19.647479
13.023615
7.416606
7.564425
6.513000
6.627440
6.661415
6.610751
6.774664
7.300973
9.250641
8.678436
8.560419
9.293556
10.183454
11.631846
12.704730
12.478828
13.625622
16.195774
15.412569
18.117428
18.502474
18.695593
18.955469
21.728873
21.910667
24.365783
24.350882
26.072860
27.439594
28.043985
28.817654
30.724406
29.754639
31.553507
31.179786
31.388998
31.499863
29.710531
28.986931
29.237866
28.402805
28.402805
28.087497
26.461482
27.893782
27.673841
27.079582
26.986599
27.551651
28.271675
28.260946
26.719570
26.207566
25.671721
24.305582
21.086931
21.251440
19.060969
18.604994
17.170906
15.549660
14.745593
15.304685
13.649464
13.432503
11.966825
11.461973
12.045503
11.675954
11.575818
10.874867
9.925961
9.674430
9.870529
10.173917
9.930730
9.310842
10.118484
10.629892
8.913875
8.959770
8.905530
9.409785
9.304881
9.952784
11.491776
16.932487
22.886992
40.025711
55.084825
82.291961
108.967423
147.997737
##ZVALUE=235
26.372671
29.158592
64.833760
117.672682
190.462470
292.260647
375.508666
458.801985
492.445827
466.375947
414.931774
306.028724
230.513811
147.925615
106.788874
84.918737
76.839924
87.617636
90.491772
85.908771
80.267787
64.582825
53.453445
38.944483
25.268793
15.622973
11.845827
8.640885
8.059740
7.365942
7.501841
7.299781
8.894801
7.955432
9.818673
9.355545
10.451674
11.862516
12.732744
13.001561
15.202761
16.651750
16.500950
16.944408
19.296408
19.342899
20.111799
21.984577
21.863580
22.553802
24.703741
25.019646
26.447773
28.156638
25.550723
26.855469
25.980473
27.677417
25.588870
26.364923
26.210546
26.378632
27.723908
27.982593
25.897622
27.027726
26.069880
24.425983
24.214983
25.143623
23.902655
26.549697
26.490688
26.889443
27.787685
26.468635
24.305582
25.237799
25.101900
23.069978
21.810532
20.036697
19.093752
17.355680
16.789436
15.341640
15.218854
16.890764
14.188886
13.406873
12.413859
13.895631
12.698770
11.034608
10.565519
10.638833
12.146831
12.244582
12.251735
10.744929
11.193752
11.037588
10.670424
10.970831
10.755658
10.145903
10.357499
10.646582
10.073781
10.387897
10.306835
10.053515
10.085702
13.498664
18.436909
32.663941
##ZVALUE=240
2.757907
3.240705
11.096597
30.221939
60.053468
139.709711
245.750546
398.350954
524.209738
657.085776
696.367621
696.010590
629.143715
490.816832
377.976894
239.320993
172.309875
117.430687
106.846690
104.523897
118.342638
121.852756
117.769837
104.272962
86.473823
64.664483
49.779415
31.907558
23.029447
15.805960
9.602904
8.973479
8.782744
9.075999
9.187460
10.578632
10.042787
11.380911
11.611581
12.510419
13.669729
14.605522
14.730692
14.172792
16.277432
16.209483
18.145442
18.177629
18.644929
19.430518
20.005703
21.045804
20.207763
19.744635
21.290779
22.841692
22.094846
23.139715
23.362637
23.628473
21.699667
24.567842
20.936728
22.257566
21.567941
22.574663
20.927787
20.381808
22.109747
23.487806
24.920702
24.165511
26.263595
24.712682
27.239919
25.600791
25.219917
24.884939
23.193955
22.474527
20.108819
20.590425
19.368529
18.137693
16.718507
15.918612
15.501976
15.955567
14.987588
15.398860
12.919903
13.670921
13.344884
12.278557
13.197660
11.408925
12.283921
12.413859
11.354685
11.777878
12.309551
11.542439
11.617541
11.888742
12.379885
11.655688
12.009740
11.333823
10.292530
10.850430
11.385679
10.204911
10.922551
10.550618
10.452867
10.741949
##ZVALUE=245
2.833605
2.339482
2.781749
2.945662
4.803538
20.407438
49.139857
126.553774
223.689675
383.062959
534.383655
708.875656
801.414847
823.012590
784.724951
657.613873
526.352525
357.068777
243.213773
147.031546
113.263726
109.666586
115.144849
129.689574
132.275820
128.432512
116.298795
93.566775
73.333979
57.440996
35.146475
25.058985
15.243888
11.809468
10.237694
9.418726
9.985566
9.886622
10.063648
11.217594
11.746883
12.229681
13.262630
12.674928
14.029741
13.999939
13.899803
15.518665
16.518831
15.380979
15.297532
16.138554
18.212795
17.461777
18.300414
17.821789
18.046498
17.321706
16.747713
17.227530
18.726587
18.284917
18.393993
17.485619
17.686486
17.104745
17.255545
16.749501
18.337965
18.161535
18.945932
19.121766
20.457506
21.435618
20.802617
21.901727
20.763874
20.215511
18.989444
17.382503
16.953945
15.665889
15.381575
14.795661
14.657974
14.137626
12.494922
11.995435
11.016726
11.700988
12.137890
10.877848
11.754632
11.669993
11.484623
10.334849
10.375977
10.937452
10.802746
10.115504
10.199547
11.182427
9.788871
10.530949
10.008812
9.906888
8.293986
10.426641
9.593964
10.706782
8.320808
9.579659
9.969473
10.076761
8.918643
8.863807
##ZVALUE=250
2.286434
2.082586
2.052784
2.805591
3.014803
2.727509
3.090501
12.991428
35.410523
98.351836
184.029937
354.470611
517.982841
717.188716
841.848850
927.906036
913.394690
813.548565
682.982802
473.886728
325.121880
192.289948
129.364729
101.904869
108.368993
123.052001
139.860511
141.490698
136.526823
124.025941
99.980831
82.812905
56.914687
38.594604
23.775697
17.798543
11.614561
10.439754
11.498928
11.700988
11.964440
12.252927
12.722611
12.454987
13.047457
14.535785
14.129877
15.064478
15.493631
16.317964
16.594529
15.658736
16.208887
17.248988
17.506480
18.823743
16.588569
17.036796
17.409921
16.864538
16.203523
15.141964
17.042756
16.494989
17.265677
15.684962
16.225576
15.349984
15.533566
16.687512
17.158985
17.929673
16.969442
18.358827
17.153621
17.023683
15.510917
16.020536
14.496446
14.481544
14.030933
12.115836
12.466908
11.761785
11.910796
10.517836
9.918809
9.835958
9.828806
9.294748
8.831620
8.611679
8.545518
8.916855
8.461475
8.440614
8.322597
8.949637
8.401871
8.528829
8.118749
8.288622
7.272959
8.174777
8.930564
8.455515
8.228421
8.313656
8.693933
8.137822
8.099675
8.318424
7.874966
7.424951
7.939935
7.761717
##ZVALUE=255
2.109408
2.025962
1.875758
1.967549
2.160668
2.293587
2.356768
2.328753
2.556443
7.710457
23.567677
73.197484
148.505569
311.365724
467.820764
701.130629
855.540633
1012.071967
1015.712619
989.525914
847.745538
620.125532
430.615544
272.390842
147.734880
104.437470
93.762875
107.326508
130.239725
142.069459
149.614811
146.156549
130.266547
113.269687
82.843900
63.702464
38.989782
26.901960
17.284751
13.734698
13.627410
13.116598
14.058948
13.426542
15.420914
16.054511
16.324520
17.597675
17.564893
18.061996
19.053817
19.484758
19.209981
19.541979
19.584894
19.982457
19.970536
20.049810
19.528866
20.811558
18.176436
19.060969
18.618703
17.716885
16.771555
15.717745
16.676784
16.045570
15.708804
16.386509
16.989708
16.333461
16.728640
16.545653
16.026497
16.207695
15.038848
15.273690
13.774633
13.399720
11.084676
10.746717
10.604858
10.124445
8.790493
9.435415
9.306669
8.197427
8.003712
7.659793
8.120537
7.558465
7.467866
7.979870
6.914735
6.827712
6.981492
7.086992
7.190704
6.908774
6.643534
7.099509
6.381869
7.656813
7.109642
6.704926
6.776452
6.647706
6.433725
6.478429
6.216764
6.732941
6.278753
6.155968
6.750822
6.369948
##ZVALUE=260
1.816750
1.662970
1.888871
1.615882
1.950860
1.861453
2.229810
2.137423
2.249479
2.386570
2.394915
3.979802
12.607574
47.603846
101.381540
239.239931
389.999747
633.057952
832.715631
1015.712023
1015.712023
1015.712023
1004.480720
837.114453
557.865500
388.812423
222.725868
133.861899
86.807609
88.943839
109.962821
130.246878
149.601698
160.870552
152.278543
139.402747
114.360452
91.057420
62.206984
47.314763
31.044483
23.554564
19.615889
18.475652
18.671751
18.954873
20.568967
20.112991
23.366809
22.949576
24.102926
23.501515
24.225712
23.750663
24.957657
24.047494
23.214817
24.742484
23.578405
24.373531
23.337603
22.460818
21.518469
22.835732
20.818710
21.182895
19.511580
19.125938
18.979907
18.828511
18.296838
17.748475
17.793775
18.290877
14.981627
16.668439
16.188622
14.148951
13.763905
12.618899
12.668967
11.818409
10.474920
10.156631
9.954572
8.933544
8.040667
8.226633
8.426905
7.895827
7.202625
7.179976
6.794930
7.179976
6.675720
6.624460
6.626844
5.987883
6.000996
6.704926
6.153584
5.879998
5.626678
5.809665
6.401539
5.723834
6.227493
6.103516
5.739927
6.475449
5.556941
5.868673
5.822778
5.796552
5.537868
5.671978
##ZVALUE=265
1.747608
1.641512
1.643896
1.820922
1.838803
1.567602
1.752973
1.725554
1.653433
2.011657
1.939535
2.049804
2.232790
3.014803
6.365776
29.876828
76.127648
186.494589
322.214961
593.866706
818.051696
1015.712023
1015.712023
1015.712023
1015.712023
964.594483
762.396455
485.320687
308.455825
185.488462
96.222758
77.146888
88.526607
109.214783
137.201548
156.927705
162.462592
156.095624
141.149759
121.893883
98.286867
70.021749
52.898526
37.784576
30.510426
25.830865
25.962591
26.512742
27.100444
27.283430
28.280616
29.143691
30.302405
30.947924
30.772686
30.214787
31.151772
30.031800
29.423833
30.032992
27.746558
26.935935
28.121471
26.150942
25.646687
24.135709
24.749637
24.103522
22.792816
21.802783
20.590425
20.964742
20.204782
19.480586
18.684864
17.917752
17.485619
15.733838
14.421940
14.084578
12.184978
12.287498
11.543632
11.136532
9.994507
9.595752
9.092689
8.796453
7.517934
7.538795
7.976890
7.691979
6.710887
7.055998
6.525517
6.357431
6.658435
6.045699
6.073713
6.062984
6.510615
6.205440
5.878806
5.992651
5.949736
5.488992
5.825758
5.866885
5.440712
5.579591
5.606413
5.216599
5.308986
5.122423
4.919767
4.864931
##ZVALUE=270
1.346469
1.700521
1.569986
1.535416
1.548529
1.685619
1.885891
1.570582
1.863837
2.041459
1.815557
1.896620
1.903772
1.943707
2.365708
2.490878
3.094673
14.346838
41.707754
133.215785
255.555511
434.329510
749.007463
987.342596
1015.712619
1015.712619
1015.712619
1015.712619
927.454829
706.983805
427.177548
260.865688
126.460791
78.707933
70.713758
87.717772
120.616555
143.646002
163.675547
171.964765
165.596604
155.311823
127.995610
107.983947
76.642632
60.703754
46.191812
39.509535
34.001470
34.493804
35.218596
35.607815
36.646724
36.800504
36.858916
36.626458
37.481785
36.674738
34.927726
36.194921
34.818649
33.601522
33.250451
31.674504
30.044913
29.716492
28.148890
27.026534
26.420951
26.031733
24.594665
23.275614
22.509694
21.359921
20.365715
20.321608
19.579530
17.915964
17.467737
15.494823
14.374852
13.726950
12.792945
12.375712
11.340976
11.190772
10.476708
9.450912
9.372830
8.848906
8.887649
7.751584
7.402897
7.512569
7.110834
6.856918
6.332994
6.411672
6.006956
6.179810
6.348491
6.404519
5.968809
5.929470
5.972981
5.705953
5.706549
5.753636
5.631447
5.219579
5.382895
5.199909
4.989505
5.239844
4.723668
5.087852
##ZVALUE=275
1.227856
1.218915
1.373887
1.509786
1.411438
1.506805
1.523495
1.443624
1.589656
1.687407
1.724958
1.758933
1.846552
1.748800
1.953840
1.785755
2.165437
2.423525
2.992749
7.399917
24.102926
89.438558
198.445916
370.947719
682.156682
917.340517
1015.712619
1015.712619
1015.712619
1015.712619
1015.712619
895.832777
566.482544
355.437994
174.327493
98.402500
61.105490
68.315864
95.095634
121.116638
150.058866
166.603923
177.675486
175.230503
156.520605
138.211846
110.845566
88.410974
67.332983
55.578947
46.768785
41.462779
41.797757
40.727854
41.020513
40.553808
41.660666
39.872527
39.470792
39.674640
38.447976
37.543774
36.776662
35.973787
34.068823
32.846928
32.049417
30.686855
28.951764
27.227998
26.386976
25.535822
24.748445
23.702979
23.244619
21.278858
19.768476
18.620491
18.074512
17.505884
15.411973
14.828444
13.488531
13.078451
12.747645
11.026859
10.698438
10.233521
9.575486
9.941459
9.343624
9.039640
8.173585
7.895827
7.127523
7.411838
7.408857
7.125735
6.495714
6.683469
7.091761
6.468892
6.483793
6.052852
5.584955
6.091595
5.800724
5.614758
5.799532
5.603433
5.343556
4.606843
5.362630
5.493760
5.087852
4.935861
##ZVALUE=280
1.460910
1.389980
1.243949
1.524687
1.242757
1.243949
1.553893
1.193881
1.443624
1.360774
1.451969
1.636744
1.397729
1.424551
1.805425
1.688600
1.803637
1.891851
2.090931
2.231598
2.423525
4.082918
13.974905
65.804720
145.596862
332.329869
525.781512
761.156678
1015.712619
1015.712619
1015.712619
1015.712619
1015.712619
1012.551785
698.738694
463.405848
236.540437
128.489733
64.358711
55.175424
72.661638
93.417764
127.863884
148.492455
169.312954
177.087784
174.277425
162.697434
138.205886
114.944577
89.275837
72.155595
58.098435
49.640536
43.843985
41.937828
41.310787
40.895939
40.428638
40.273666
39.498806
38.582683
37.394762
35.563707
35.534501
33.411980
32.886863
31.793714
30.721426
28.738976
27.637482
25.844574
25.419593
24.416447
22.853613
22.421479
21.212697
20.748973
18.374920
17.471910
16.407967
15.349984
14.082789
13.381839
13.463497
11.814833
11.679530
11.095405
10.140538
9.770989
9.403825
8.795857
8.175969
8.438826
7.267594
7.425547
7.410645
7.150769
7.131696
6.578565
6.777644
6.869435
6.498694
6.474853
6.454587
5.984902
6.238818
5.995631
5.384684
5.706549
5.448461
5.693436
5.165935
5.305409
5.167723
4.924536
##ZVALUE=285
1.094937
1.076460
1.206994
1.123548
1.236796
1.334548
1.496673
1.207590
1.181960
1.540780
1.323819
1.296997
1.450777
1.433492
1.516938
1.645684
1.734495
1.557469
1.700521
2.205968
2.005696
2.003908
2.394915
2.794862
6.569624
35.197735
84.347725
175.146461
389.382839
611.021519
956.445932
1015.712023
1015.712023
1015.712023
1015.712023
1015.712023
878.695846
611.757636
326.586962
191.698670
85.084438
53.323507
50.184727
65.843463
93.723536
118.197799
144.377947
162.921548
173.283815
171.867609
158.990622
141.894817
112.033486
92.169642
70.526600
57.641864
44.652820
40.211678
37.706494
37.007928
35.460591
34.979582
33.160448
32.741427
31.331778
30.809641
30.163527
28.827786
27.247667
26.396513
25.465488
25.191903
23.907423
22.462606
21.371841
21.155477
19.264817
18.345714
16.923547
16.622543
14.873743
15.054941
13.922453
12.926459
12.369752
11.976957
11.152625
10.578632
10.571480
10.092854
9.464622
8.818507
8.673668
8.293986
7.815957
8.020997
7.233620
7.587671
7.079840
7.474422
6.516576
6.696582
6.664991
6.845593
6.143451
6.537437
6.310940
6.245971
6.214976
5.866885
6.168485
5.440712
5.902648
5.347729
5.414486
5.170703
##ZVALUE=290
1.009703
1.250505
1.112819
1.278520
1.337528
1.038909
1.382828
1.243949
1.303554
1.267791
1.350641
1.263618
1.277924
1.304746
1.408458
1.523495
1.373887
1.401901
1.454949
1.718998
1.893640
1.786947
1.913905
2.093911
1.997948
2.589822
3.258586
14.531612
43.542981
134.208798
255.655646
522.135496
774.925947
1015.712619
1015.712619
1015.712619
1015.712619
1015.712619
1015.712619
733.379722
483.725667
245.592594
132.043958
54.784417
38.405657
46.594739
62.984824
89.627504
110.750794
138.649940
154.694915
165.470839
165.714622
150.069594
130.399466
103.476644
82.712770
61.050653
48.292875
37.679672
31.504631
27.881861
26.299953
25.882721
25.616884
24.567842
23.725629
22.920966
22.424459
22.061467
20.820498
20.698905
20.010471
19.257665
18.846989
18.304586
16.607642
15.952587
14.956594
14.218688
13.077855
12.930632
12.173653
12.442470
11.394620
10.988712
10.528564
10.335445
9.310842
9.518862
8.772612
8.700490
8.462667
7.919669
7.723570
7.403493
7.387996
7.299781
7.123947
6.993413
6.875992
6.832480
6.598830
6.720424
6.370544
6.248951
6.377697
6.391406
6.304979
5.798936
6.025434
5.719662
5.774498
5.303621
5.237460
5.094409
##ZVALUE=295
1.110435
1.050830
1.173615
1.188517
0.952482
1.129508
1.118779
1.176000
1.094937
1.264811
1.001954
1.158714
1.124740
1.320839
1.367927
1.444817
1.377463
1.423955
1.446605
1.582503
1.508594
1.684427
1.493692
1.878738
1.862645
2.125502
2.242923
2.398491
2.647638
4.637837
24.139881
67.310929
191.865563
364.259481
689.785480
965.908766
1015.712023
1015.712023
1015.712023
1015.712023
1015.712023
901.723504
620.034933
328.535438
181.506872
68.247914
37.681460
30.015707
37.878752
52.157640
77.687502
97.659826
125.984550
140.674710
152.281523
149.053931
134.078860
118.150711
92.745423
74.499846
52.456856
38.677454
28.062463
23.299456
18.890500
17.479658
16.475916
16.298890
16.145706
16.314983
15.982985
15.509725
15.506744
14.682412
14.524460
14.002919
13.311505
12.945533
12.210608
11.629462
10.812879
10.958910
10.416508
10.280609
9.831786
9.375811
9.109974
8.613467
8.147955
8.144975
8.080602
7.774830
7.518530
7.069707
7.177591
7.014871
6.721616
6.687641
6.908774
6.502867
6.410480
6.218553
6.470680
6.359816
6.124973
6.361604
6.117821
5.928874
5.683899
6.153584
6.084442
5.640984
5.680919
5.727410
5.550981
5.198717
##ZVALUE=300
1.084805
1.067519
0.991821
0.964999
1.124740
0.947714
0.936985
1.159906
1.047850
1.177788
1.012683
1.024604
1.215935
1.160502
1.117587
1.311898
1.295805
1.248717
1.245737
1.189709
1.456738
1.268983
1.555681
1.555681
1.538992
1.588464
1.973510
1.970530
2.211928
2.280474
2.723932
2.802610
10.135770
38.548708
131.309628
254.818797
525.918007
797.154903
1015.712619
1015.712619
1015.712619
1015.712619
1015.712619
1012.057662
774.289370
425.206423
253.094435
114.382505
54.610968
26.686788
22.820830
30.740499
47.807693
64.791441
91.693997
110.485554
129.705667
138.297677
137.185454
128.149986
107.222795
88.289976
64.275861
47.371984
30.287504
22.024512
15.525818
12.893677
11.713505
11.063814
10.754466
10.773540
11.065602
10.332465
10.624528
10.287762
9.872913
9.531975
9.783506
9.027719
8.117557
8.535981
8.401871
8.029938
7.841587
7.617474
7.261634
7.238984
7.129908
6.855726
6.712675
6.751418
6.442666
6.715655
6.446838
5.853772
6.164908
5.921721
6.260872
6.055832
5.729795
5.896688
6.470680
5.719662
5.943775
5.884767
5.597472
5.951524
5.793571
5.582571
5.567670
5.283952
5.355477
5.063415
5.414486
5.189776
##ZVALUE=305
0.932813
0.764728
0.918508
0.840425
1.007915
0.842810
0.880957
1.042485
1.149774
1.194477
1.071692
1.038909
1.180768
1.026988
1.154542
0.999570
1.121759
1.136661
1.130700
1.334548
1.178980
1.296997
1.212955
1.537800
1.424551
1.579523
1.640916
1.552701
1.723766
1.902580
1.931787
1.976490
2.280474
2.576709
5.773902
21.423697
85.745454
190.593600
423.585773
657.549500
996.197462
1015.712023
1015.712023
1015.712023
1015.712023
1015.712023
875.438452
608.930588
322.885513
176.958442
67.467690
29.835701
15.853643
18.857718
28.879642
41.025877
63.697696
80.528855
103.412867
118.053555
127.123594
128.126740
115.180612
101.505518
79.063773
60.540438
40.693879
28.142929
16.935468
12.497902
9.778738
9.249449
8.509755
8.090734
8.116961
8.162856
8.055568
7.576942
7.395744
7.512569
7.109642
6.570816
6.514788
6.681681
6.850958
6.271601
6.515980
6.387830
6.246567
6.117821
6.075501
5.901456
5.712509
5.425811
5.663633
5.660653
5.312562
5.816817
5.514622
5.557537
5.520582
5.333424
5.287528
5.417466
5.454421
5.550981
5.267859
5.321503
5.240440
5.332828
5.124807
4.902482
5.126595
5.282760
4.868507
4.868507
##ZVALUE=310
0.968575
0.993609
1.014471
0.999570
0.919700
0.875592
0.902414
0.887513
0.830889
0.857711
0.960827
0.913739
1.113415
1.090765
0.890493
1.183748
1.157522
1.172423
0.992417
1.121759
1.116991
1.247525
1.329780
1.176000
1.251698
1.564622
1.348853
1.301765
1.587868
1.604557
1.803637
1.783967
1.857877
2.010465
2.094507
2.559423
3.100634
8.875728
47.395825
112.765431
279.762745
474.931002
827.980638
1015.712023
1015.712023
1015.712023
1015.712023
1015.712023
1010.824442
780.657530
450.286865
267.039537
110.215545
50.469637
18.000603
12.713671
16.732812
22.951961
36.467910
50.659776
72.683692
89.874864
110.000968
118.272901
117.992759
110.910535
95.656514
78.423619
54.036975
39.564967
24.068952
17.075539
11.532903
8.887649
7.533431
6.855726
6.226897
6.399751
5.987883
5.996823
5.734563
5.721450
5.686879
5.693436
5.721450
5.412698
5.456805
5.719662
5.120635
4.903674
5.165935
5.302429
5.064607
4.940629
4.917979
4.838705
5.001426
4.764795
4.884601
4.762411
4.878640
5.001426
4.813671
4.584789
4.763603
4.634857
4.720688
4.869699
4.779696
4.682541
4.579425
4.669428
4.633665
4.658699
4.454851
4.147887
##ZVALUE=315
0.896454
0.847578
0.753999
0.873804
0.715852
0.900626
0.900626
0.914931
0.927448
1.106858
0.895858
0.959635
0.985861
0.959635
0.925660
0.821948
0.894666
0.847578
0.910759
1.076460
1.113415
1.032948
1.061559
1.155734
1.059771
1.138449
1.408458
1.270771
1.498461
1.438856
1.446605
1.398921
1.409650
1.733899
1.686811
1.841784
2.071857
2.257824
2.521873
4.399419
24.071932
69.449544
200.172663
362.884998
688.267946
972.670913
1015.712023
1015.712023
1015.712023
1015.712023
1015.712023
931.301713
578.050017
357.813835
164.594650
76.431632
23.149848
11.681914
11.486411
13.865829
21.418929
31.666756
49.848557
64.975619
85.410476
99.470615
110.172629
111.429691
103.454590
90.263486
69.232583
53.815842
35.802722
25.054812
15.193820
10.913610
7.182956
6.025434
5.236864
5.011559
4.836917
4.906654
4.831553
4.632473
4.702806
4.650950
4.535913
4.746914
4.514456
4.568696
4.521608
4.659891
4.586577
4.464984
4.259944
4.381537
4.089475
4.152656
4.030466
4.305840
4.159808
3.994703
3.943443
4.092455
3.955960
4.253983
4.214644
4.275441
4.345775
4.118681
4.086494
4.125834
3.953576
3.824830
3.914833
3.762841
##ZVALUE=320
0.912547
0.715852
0.813603
0.887513
0.767708
0.884533
0.844598
0.894666
0.936985
0.830889
0.955462
0.948906
0.860691
0.875592
0.884533
0.966787
0.899434
1.108646
1.154542
0.883937
1.062751
0.999570
1.077652
1.105666
1.170635
1.310706
1.191497
1.102686
1.143813
1.222491
1.246929
1.243949
1.249909
1.452565
1.507998
1.477599
1.679659
1.767874
1.961589
2.255440
2.320409
2.858639
11.199713
37.312508
130.494833
260.772705
520.847440
781.082511
1015.712023
1015.712023
1015.712023
1015.712023
1015.712023
1015.712023
735.020638
474.378467
220.137835
113.970637
39.261580
16.857982
9.335876
9.770989
12.985468
17.997622
29.024482
40.668845
60.625672
76.505542
95.400810
104.212761
104.790926
98.971725
85.241795
70.232749
50.369501
36.849976
21.495819
14.214516
8.402467
6.423593
4.899502
4.523993
4.380941
3.975630
3.936887
3.642440
3.779531
3.824830
3.808737
3.905892
3.892779
3.646612
3.745556
3.909469
3.785491
3.851652
3.597736
3.687739
3.740788
3.592968
3.608465
3.676414
3.670454
3.757477
3.332496
3.716946
3.367662
3.614426
3.652573
3.626943
3.503561
3.626943
3.685951
3.376603
3.590584
3.215671
##ZVALUE=325
0.908971
0.751615
0.639558
0.888705
0.813603
0.835657
0.953674
0.841618
0.902414
0.919700
0.767708
0.890493
0.896454
1.031756
0.993609
0.973940
0.856519
0.832677
0.942945
0.801682
0.796914
0.889897
1.043677
1.021624
0.998974
1.008511
1.147985
1.278520
1.063943
1.012683
1.130700
1.167655
1.335740
1.372695
1.422763
1.474619
1.398921
1.599789
1.719594
1.897812
2.014637
1.892447
2.269745
2.428889
5.757809
21.900535
85.252523
182.914734
408.968925
646.674633
986.962914
1015.712023
1015.712023
1015.712023
1015.712023
1015.712023
799.693465
549.529791
290.310979
157.531500
57.214499
23.126602
9.364486
8.151531
9.163618
11.256933
17.956495
26.329756
43.052435
58.045983
76.722503
88.179708
96.386671
97.949505
90.489984
79.315901
60.700774
45.730472
29.191971
20.120740
12.096763
8.304715
5.469918
4.430413
4.159808
3.933907
3.746748
3.701448
3.239512
3.498793
3.481507
3.390908
3.257990
3.271699
3.495812
3.306866
3.244877
3.323555
3.313422
3.298521
3.309846
3.424883
3.170967
3.223419
3.381968
3.267527
3.174543
3.164411
3.066659
3.094673
2.934933
2.950430
2.906919
3.035665
3.097653
2.835989
##ZVALUE=330
0.657439
0.853539
0.758767
0.762939
0.891685
0.738502
0.833869
0.909567
0.879765
0.793934
0.807643
0.931621
0.903606
0.971556
1.010895
0.834465
0.971556
0.890493
0.864863
0.863671
0.795722
0.902414
0.970960
0.935793
0.900626
1.037717
0.973940
0.983477
1.098514
0.977516
1.153946
1.193881
1.308918
1.258850
1.150966
1.344681
1.512766
1.393557
1.512766
1.425743
1.517534
1.616478
1.917481
1.966953
2.097487
2.442598
3.176928
10.100603
51.019788
122.019649
295.823812
494.160652
836.263895
1015.712023
1015.712023
1015.712023
1015.712023
1015.712023
951.962471
694.364905
387.457013
216.108561
82.935691
36.230683
11.794567
7.950664
7.376671
7.824898
11.104941
16.114712
27.125478
37.260652
53.952932
67.893863
82.672834
89.254975
91.291666
84.271431
71.158409
58.404803
41.237473
30.209422
19.306540
13.023615
7.720590
5.749464
4.151464
3.798604
3.310442
3.392696
3.173947
3.214478
2.935529
3.064871
3.056526
2.968907
3.005862
2.955794
2.995729
3.017783
3.169775
2.980828
3.194809
3.102422
2.944469
2.835989
2.932549
2.848506
3.006458
2.882481
2.938509
2.981424
2.826452
2.736449
2.730489
2.692938
##ZVALUE=335
0.755787
0.687838
0.736713
0.914931
0.889897
0.791550
0.730753
0.878572
0.644922
0.671744
0.666976
0.722408
0.745654
0.822544
0.813603
0.783801
0.884533
0.843406
0.912547
0.960827
1.013875
0.904799
0.921488
1.026988
0.967979
0.966787
1.001954
0.978708
1.074672
0.955462
1.082420
1.082420
1.041889
1.222491
1.384616
1.191497
1.166463
1.192689
1.444817
1.432896
1.333952
1.439452
1.511574
1.620650
1.785755
1.780987
1.848936
2.036691
2.460480
4.838705
26.796460
73.160529
203.617811
366.134048
669.366717
943.938494
1015.712023
1015.712023
1015.712023
1015.712023
1015.712023
798.988938
469.383597
285.830498
125.757456
56.059957
16.039610
8.045435
7.004738
6.907582
8.061528
10.240674
15.688539
22.907853
36.422610
48.175454
65.214634
75.509548
84.880590
84.315538
77.788830
68.201423
54.417849
43.181777
28.828979
20.372868
12.218952
8.235574
5.612969
4.054904
3.163815
3.315806
3.027916
2.781749
2.863407
2.916455
2.950430
2.764463
2.831817
2.869964
2.831817
2.862811
2.859831
2.782941
2.738833
2.900958
2.888441
2.819896
2.883673
2.854466
2.906919
2.757907
2.573729
2.628565
2.531409
2.448559
##ZVALUE=340
0.641942
0.780821
0.623465
0.696778
0.694990
0.786781
0.851750
0.688434
0.761747
0.810623
0.778437
0.720620
0.728965
0.881553
0.916719
0.809431
0.819564
0.856519
0.897646
0.882745
0.834465
0.810623
0.886917
0.953674
0.874996
0.989437
0.958443
1.078844
0.998974
1.108646
1.007915
0.925660
1.060963
1.177788
1.198649
1.219511
1.267791
1.082420
0.956655
1.234412
1.217723
1.332760
1.299977
1.476407
1.425743
1.539588
1.511574
1.679659
1.727939
2.072453
2.080798
2.796650
12.953877
43.299794
146.011710
278.757811
549.821854
812.859535
1015.712619
1015.712619
1015.712619
1015.712619
1015.712619
918.040872
573.735833
356.938839
164.215565
77.254772
21.696687
9.504557
6.886721
6.862879
6.654859
7.646680
10.059476
13.764501
22.611618
32.129884
47.689676
60.037971
72.344542
77.604651
78.902841
74.614882
63.572526
53.833723
39.092898
29.198527
18.696785
12.770891
7.727742
5.362630
3.882647
3.306866
3.013611
2.985597
2.640486
2.825856
2.756715
2.751946
2.685785
2.617836
2.624989
2.635717
2.605915
2.765656
2.843738
2.635717
2.638698
2.683997
2.645850
2.593994
2.855659
2.521873
2.491474
2.743602
##ZVALUE=345
0.809431
0.661612
0.883937
0.782609
0.920892
0.803471
0.761747
0.748634
0.743866
0.676513
0.714660
0.842810
0.746846
0.754595
0.843406
0.781417
0.856519
0.793934
0.712872
0.782609
0.816584
0.778437
0.860691
0.749826
0.864863
0.849962
0.865459
1.007915
0.966787
1.105666
0.839829
0.865459
0.764728
0.972748
0.926852
0.920892
1.132488
1.147985
1.204610
1.129508
1.098514
1.156926
1.265407
1.121759
1.301765
1.389980
1.406670
1.385808
1.454949
1.512766
1.633763
2.027750
1.847744
2.286434
5.973577
22.619963
88.926554
190.176964
413.294435
633.260608
967.357755
1015.712619
1015.712619
1015.712619
1015.712619
1002.416611
696.393847
454.162955
207.183957
102.020502
35.462976
14.426708
7.578731
6.552935
5.933642
6.176829
6.721616
8.146763
13.311505
19.671917
31.624436
41.583776
54.616928
63.519478
70.895553
73.355436
68.623424
61.912537
50.468445
39.792657
27.581453
19.595623
11.966825
8.408427
5.083680
4.020929
3.193617
2.937913
2.836585
2.859831
2.791882
2.511740
2.586842
2.395511
2.541542
2.639890
2.494454
2.524853
2.661943
2.755523
2.584457
2.470613
2.492666
2.472997
2.419949
2.474785
##ZVALUE=350
0.676513
0.807643
0.524521
0.820756
0.735521
0.678897
0.864863
0.765920
0.660419
0.816584
0.850558
0.781417
0.787973
0.762939
0.755787
0.752807
0.840425
0.779629
0.885725
0.799894
0.833869
0.885725
0.843406
0.646710
0.873804
0.722408
0.721812
0.878572
0.978708
0.951886
0.975728
0.975728
0.927448
0.924468
1.101494
1.004934
1.055598
0.882745
1.061559
1.052618
1.097918
1.083612
1.116991
1.168847
1.105666
1.249909
1.235604
1.149774
1.336932
1.294613
1.449585
1.691580
1.754761
1.735687
1.949668
2.144575
3.475547
11.230707
53.514838
122.924447
296.037793
505.283475
834.536552
1015.712023
1015.712023
1015.712023
1015.712023
1015.712023
776.486993
523.024797
263.019800
143.503547
53.687692
20.480752
7.970929
6.291866
5.592704
5.384684
5.447865
5.647540
7.827878
11.275411
18.106699
25.434494
37.343502
46.968460
58.429837
64.206719
65.623522
63.636899
55.944920
47.795773
35.951734
27.465820
18.198490
12.994409
8.122921
5.780458
3.985763
3.343821
2.956986
2.907515
2.638698
2.545714
2.367496
2.544522
2.409816
2.642870
2.522469
2.676845
2.416968
2.326965
2.469420
2.445579
2.547503
2.393723
##ZVALUE=355
0.676513
0.659823
0.754595
0.749826
0.763535
0.757575
0.784993
0.827909
0.824928
0.772476
0.799894
0.767708
0.734925
0.760555
0.791550
0.953674
0.746846
0.905991
0.794530
0.950694
0.898838
0.730753
0.950694
0.863671
0.939965
0.859499
0.816584
0.912547
1.040697
0.797510
0.767708
0.888705
0.911951
0.879765
0.834465
1.037717
1.097918
1.110435
0.969768
0.945926
1.056790
1.097918
1.032948
1.163483
1.045465
1.168847
1.246929
1.132488
1.280904
1.140833
1.408458
1.400709
1.388788
1.585484
1.810789
1.770854
1.782775
2.206564
2.628565
5.285740
29.129982
77.118874
208.531022
369.560719
676.338673
923.040509
1015.712023
1015.712023
1015.712023
1015.712023
883.007646
635.691881
340.361595
185.776949
75.126886
30.832887
9.245872
6.427765
5.367994
5.295873
4.831553
4.975796
5.309582
6.359816
10.093451
14.220476
22.904873
30.516982
42.239428
50.804615
57.331920
59.486628
58.661699
53.546429
44.371486
36.738515
26.487708
20.036697
13.035536
9.132624
5.680919
4.237890
3.154874
2.896786
2.745986
2.714992
2.431870
2.524853
2.538562
2.446771
2.346635
2.467632
2.411604
2.248883
2.456903
2.192855
##ZVALUE=360
0.691414
0.802875
0.785589
0.790954
0.712872
0.668764
0.731945
0.748634
0.757575
0.776649
0.782609
0.894666
0.845790
0.728965
0.848770
0.610948
0.619888
0.712872
0.795722
0.775456
0.902414
0.769496
0.849962
0.883937
0.832677
0.752807
0.857711
0.856519
0.915527
0.844598
0.890493
1.056790
0.977516
0.782609
0.984669
0.942945
0.976920
1.125932
0.952482
1.092553
1.083612
1.053810
0.914931
1.042485
1.159906
1.176000
1.197457
1.205802
1.202822
1.281500
1.282692
1.190901
1.302958
1.309514
1.496673
1.437664
1.513958
1.829863
1.871586
2.214909
2.359748
3.121495
14.120936
42.359829
132.532716
257.167816
509.697795
745.667815
1015.712619
1015.712619
1015.712619
1015.712619
981.112719
748.710036
441.378951
258.956552
102.919936
43.319464
11.936426
6.548762
5.474687
4.842877
4.814863
4.345775
4.471540
4.709959
5.877614
7.807612
12.353659
18.050671
27.353764
34.952760
44.280887
50.469637
54.460764
54.251552
50.526857
45.234561
35.923719
28.800964
19.647479
14.607906
8.942485
6.546974
4.390478
3.569722
2.710819
2.679825
2.686977
2.465844
2.229810
2.207756
2.329946
2.255440
2.182722
2.133846
##ZVALUE=365
0.710487
0.819564
0.698566
0.694990
0.646710
0.761747
0.779629
0.701547
0.653863
0.860691
0.808835
0.941753
0.809431
0.904799
0.797510
0.615716
0.743866
0.710487
0.606775
0.780821
0.783801
0.847578
0.801682
0.873804
0.810623
0.850558
0.813603
0.817776
0.885725
0.910759
0.906587
0.824928
0.903606
0.913739
0.937581
0.898838
1.025796
0.897646
0.960827
0.989437
1.026988
1.026988
0.933409
0.991821
1.228452
1.207590
1.072884
0.987649
1.187921
1.254678
1.378655
1.280904
1.170635
1.298785
1.445413
1.431704
1.478791
1.525879
1.600981
1.745820
1.858473
1.910925
2.276897
2.358556
6.058812
20.553470
81.042647
176.150799
401.232839
625.213981
925.715566
1015.712023
1015.712023
1015.712023
1015.712023
865.317583
550.575852
337.651968
146.873593
67.954659
19.507408
8.171797
5.408525
4.958510
4.749894
4.458427
3.980994
3.987551
3.946424
4.409552
6.858706
9.532571
15.346408
21.578670
30.666590
36.877990
45.122504
49.135685
50.463676
48.449636
43.463707
36.628842
27.332902
21.155477
14.079809
10.251999
6.532669
4.413724
3.265738
2.807975
2.717972
2.335906
2.281666
2.005696
2.006888
2.131462
##ZVALUE=370
0.774860
0.691414
0.774860
0.760555
0.737906
0.790954
0.765920
0.745654
0.668764
0.787973
0.901818
0.606775
0.810623
0.693798
0.784993
0.777841
0.716448
0.774860
0.773668
0.714660
0.916719
0.609756
0.843406
0.748634
0.811815
0.877976
0.754595
0.810623
0.695586
0.799894
0.807643
0.937581
0.743866
0.727773
0.851750
0.962615
0.850558
0.996590
1.000762
0.953674
0.853539
0.933409
0.835657
0.924468
0.898838
0.900626
0.983477
1.016855
1.077652
1.125932
1.218915
1.049638
1.093745
1.233816
1.177788
1.188517
1.066923
1.286864
1.317859
1.430511
1.513958
1.571774
1.479983
1.767874
2.046824
2.143979
3.310442
11.150837
56.765676
135.826468
319.823623
506.312847
807.752013
1009.081006
1015.712023
1015.712023
1015.712023
941.973925
626.006722
406.862497
188.284516
95.124841
33.850670
12.995601
5.516410
4.782677
4.363656
4.209876
3.702641
3.632903
3.447533
3.433824
4.211664
5.548596
8.700490
12.256503
19.106865
25.095940
34.442544
39.941669
45.648813
47.299862
45.383573
41.708946
35.399795
28.853416
21.312833
14.317632
10.471940
7.026792
5.127788
3.505945
3.055930
2.411604
2.285838
2.042651
##ZVALUE=375
0.752807
0.794530
0.810623
0.735521
0.722408
0.714660
0.746846
0.718832
0.734925
0.674725
0.633597
0.610948
0.600815
0.626445
0.542998
0.692606
0.835657
0.741482
0.956655
0.845790
0.705719
0.931621
0.804663
0.793934
0.680685
0.764728
0.725985
0.812411
0.841618
0.845790
0.772476
0.943542
0.834465
0.963807
0.915527
0.847578
0.852942
0.846982
0.965595
0.966787
0.850558
0.878572
0.934601
0.958443
0.883937
0.832677
0.869632
0.934601
0.902414
0.959635
1.090765
0.930429
0.952482
0.944734
1.087785
1.037717
1.191497
1.022816
1.141429
1.282692
1.188517
1.464486
1.588464
1.561642
1.615882
1.760721
1.924634
1.869798
2.364516
5.936623
32.686591
81.640482
211.243629
376.345515
661.999583
889.908671
1015.712619
1015.712619
1015.712619
1003.928781
742.979646
519.936681
279.504657
155.710578
59.530735
24.238825
7.486939
4.925728
4.399419
4.158616
3.901720
3.622770
3.228784
3.155470
3.037453
3.610849
4.892945
6.537437
10.595918
14.730692
22.128820
28.378963
35.757422
40.527582
44.242740
44.373870
40.346980
35.221577
30.271411
22.986531
18.039942
12.353659
8.841753
5.257726
4.131794
2.995729
##ZVALUE=380
0.663996
0.730753
0.507832
0.624657
0.703931
0.715852
0.572801
0.743866
0.655651
0.746846
0.620484
0.588894
0.656843
0.726581
0.643730
0.754595
0.788569
0.635982
0.665784
0.628829
0.837445
0.692606
0.848770
0.781417
0.829697
0.755787
0.786781
0.614524
0.820756
0.690818
0.790954
0.725985
0.787973
0.843406
0.803471
0.791550
0.803471
0.857711
0.859499
0.990629
0.966787
0.870824
0.966787
0.882745
1.004934
0.984669
0.910759
0.947714
0.891685
0.912547
1.002550
0.852942
1.115799
1.001954
0.925660
1.095533
1.063943
1.043677
1.280904
1.135468
1.173615
1.165867
1.275539
1.170635
1.143813
1.517534
1.404881
1.588464
1.696944
2.094507
2.249479
3.923774
13.715625
64.090490
146.953464
338.172913
541.675687
836.725831
1015.712619
1015.712619
1015.712619
1015.712619
878.015757
589.216948
392.646790
191.263556
100.082755
36.576986
13.842583
5.120635
4.273653
3.727674
3.877878
3.520846
3.314614
3.088713
3.132820
3.013611
3.157854
4.010797
5.751848
9.324551
13.424754
20.098686
25.878549
33.380985
37.551522
40.993690
42.039752
39.757490
35.992861
30.060410
24.239421
17.276406
12.592673
8.356571
##ZVALUE=385
0.727773
0.667572
0.771880
0.647902
0.592470
0.547767
0.589490
0.698566
0.693798
0.657439
0.740886
0.655651
0.685453
0.553727
0.607967
0.654459
0.561476
0.627637
0.723600
0.471473
0.712872
0.766516
0.717640
0.717640
0.710487
0.746846
0.826716
0.929832
0.875592
0.854731
0.812411
0.705719
0.917912
0.850558
0.900626
0.854731
0.801682
0.846982
0.851750
0.807643
0.955462
0.884533
0.757575
0.948906
0.928640
1.109838
0.779629
0.905991
1.046658
0.912547
0.943542
0.974536
1.044869
1.017451
1.003742
0.887513
1.108646
1.047850
1.073480
1.131892
1.096725
1.176000
1.195669
1.093745
1.252890
1.375675
1.468658
1.524687
1.526475
1.770854
1.953840
2.072453
2.107620
2.485514
7.665753
26.049614
96.490979
209.016800
441.393852
666.460991
965.659022
1015.712023
1015.712023
1015.712023
980.778933
774.062872
489.316583
310.662985
140.290856
68.025589
21.238923
7.605553
4.302859
4.111528
3.546476
3.460646
3.454685
3.414750
3.098845
2.844930
3.132820
3.114939
3.805757
4.652739
7.423759
10.662675
16.116500
22.514462
27.698874
33.058524
37.094951
38.818717
38.118958
35.028458
30.512810
23.611784
##ZVALUE=390
0.698566
0.634789
0.678897
0.648499
0.585914
0.698566
0.632405
0.621676
0.645518
0.768900
0.670552
0.543594
0.658631
0.764728
0.544786
0.580549
0.605583
0.561476
0.741482
0.618696
0.676513
0.719428
0.551939
0.707507
0.798702
0.597835
0.745654
0.775456
0.759959
0.832677
0.725985
0.737906
0.955462
0.742674
0.748634
0.979900
0.902414
1.058578
0.996590
0.917912
0.896454
0.712872
1.024604
0.981688
0.803471
0.953674
1.009703
0.968575
1.069903
1.073480
1.174808
1.102686
1.095533
0.944734
0.972748
0.868440
1.143813
1.078844
1.133680
1.111627
1.123548
1.219511
1.131892
1.148582
1.205802
1.371503
1.437664
1.304746
1.460910
1.657605
1.811981
1.743436
1.868606
1.957417
1.913905
2.045631
4.328489
16.548634
70.656538
154.423714
343.693495
542.941689
826.214552
1004.904509
1015.712023
1015.712023
1015.712023
915.517807
625.481009
421.303511
212.218761
107.984543
36.708713
13.128519
4.780889
4.281998
3.886819
3.789663
3.485680
3.541708
3.469586
3.273487
3.082752
2.793670
2.875924
3.142953
4.384518
6.667972
8.804798
13.279915
17.694831
23.751855
28.453469
33.850670
35.781860
35.797954
##ZVALUE=395
0.671744
0.800490
0.781417
0.716448
0.656843
0.727773
0.719428
0.596642
0.641942
0.625849
0.728965
0.527501
0.633597
0.688434
0.572801
0.604987
0.620484
0.545979
0.629425
0.573993
0.731945
0.662804
0.820756
0.700951
0.698566
0.777841
0.568628
0.745654
0.576973
0.874996
0.617504
0.888705
0.583529
0.740886
0.785589
0.829697
0.923872
1.064539
1.062751
0.939965
0.755787
1.097918
1.085997
1.001954
1.163483
1.115799
0.999570
0.975728
1.191497
1.072884
1.122952
1.118779
1.077652
1.119971
0.984669
1.200438
1.005530
0.856519
1.153946
0.967979
1.134872
1.182556
1.078844
1.207590
1.019835
1.243949
1.404881
1.393557
1.455545
1.392961
1.672506
1.520514
1.598597
1.596808
1.683831
1.669526
1.899600
1.986623
2.669692
8.176565
43.521523
106.312633
251.728892
423.250794
709.667802
926.813483
1015.712619
1015.712619
1015.712619
1008.247733
750.481486
522.444844
275.966525
146.067739
53.629875
22.366643
6.711483
4.345775
3.968477
3.814697
4.028678
3.800988
3.474951
3.549457
3.340840
2.994537
2.766848
2.908707
2.930760
3.511906
5.150437
6.987453
10.836720
14.725924
20.855665
27.830601
##ZVALUE=400
0.808835
0.772476
0.683665
0.543594
0.567436
0.767708
0.579953
0.626445
0.541806
0.633597
0.581741
0.688434
0.512600
0.744462
0.681877
0.711679
0.688434
0.646710
0.469685
0.690818
0.713468
0.657439
0.692606
0.692606
0.631809
0.657439
0.753999
0.758767
0.799894
0.897646
0.706911
0.764728
0.799894
0.841618
0.793934
0.819564
0.943542
0.960827
0.789762
0.902414
0.982881
1.047850
1.141429
0.875592
1.081824
0.964999
0.905991
1.115799
1.003742
0.993609
1.005530
1.125932
1.142621
1.188517
1.130700
1.224875
1.029968
1.273751
1.193881
1.183748
1.172423
1.048446
1.146793
1.181960
1.154542
1.331568
1.327991
1.466870
1.572967
1.479983
1.705885
1.565814
1.666546
1.628995
1.595616
1.594424
1.556873
1.533628
1.632571
1.956820
2.120733
5.359650
19.368529
77.407956
161.753893
353.949666
547.434688
817.328691
1004.237533
1015.712023
1015.712023
1015.712023
872.993469
595.943928
393.480659
196.730494
104.211569
35.230517
13.432503
4.805923
4.169941
4.038811
3.727674
3.773570
3.764629
3.641844
3.549457
3.103614
2.870560
2.846718
2.733469
2.856851
3.190637
4.152656
5.884767
9.610653
##END
