##TITLE=3-1
##FORMAT=SPECTACLE-ASCII V-1.2
##DATA TYPE=ULTRAVIOLET SPECTRUM
##SECOND TYPE=ULTRAVIOLET SPECTRUM
##DATE=04/11/18
##TIME=14:22:13
##SPECTROMETER/DATA SYSTEM=SPECTACLE
##XUNITS=NM EM
##YUNITS=ENERGY
##YFACTOR=1
##FIRSTX=220
##LASTX=450
##NPOINTS=116
##3DDATA=Equidistant
##ZUNITS=NM EX
##FIRSTZ=210
##LASTZ=400
##ZPOINTS=39
##XYDATA=(Y..Y)
##ZVALUE=210
17.182827
16.441941
14.730692
11.784434
12.019873
9.784698
10.141730
9.417534
7.680655
6.719828
5.039573
3.506541
3.494620
3.223419
3.534555
3.282428
3.738999
4.232526
3.595948
3.338456
4.112720
3.496408
4.535913
4.351735
3.777742
4.713535
4.755855
4.655719
5.120635
5.218983
4.840493
5.089641
5.569458
6.258488
5.760789
6.297827
7.205606
6.656647
6.892681
7.469654
7.152557
8.762479
7.031560
7.735491
7.911921
8.291602
8.073449
8.695722
8.538961
8.565784
9.385943
8.995533
10.681748
8.547902
10.067821
9.242892
9.289980
10.118484
10.106564
9.082556
9.697676
9.170771
8.675456
8.471608
9.051561
8.661747
9.828806
9.340644
10.316968
10.664463
12.752414
13.305545
15.029907
16.418695
16.100407
18.004775
16.242862
16.853809
14.458895
16.091466
13.572574
12.272596
12.493730
10.383725
9.387732
8.575916
7.596612
7.391572
8.364916
9.514689
10.887980
14.197826
17.389655
22.042990
28.154850
29.343963
38.685799
42.954683
48.582554
52.495599
58.062673
62.149763
60.197711
59.327483
56.819916
53.091645
44.943690
41.643977
38.046837
32.018423
26.471615
21.802783
18.078685
14.061928
15.354753
13.409853
##ZVALUE=215
45.033693
44.518709
34.490824
28.018951
22.841692
18.655658
16.865730
16.281605
15.069842
15.100837
12.017488
9.201765
8.052588
5.753636
4.706979
4.014969
4.344583
3.513694
4.273653
4.149675
3.581643
4.018545
4.089475
4.646778
4.633665
5.321503
5.567670
4.658699
5.180836
5.288720
4.962683
6.303787
6.696582
6.451607
6.978512
6.903410
7.210970
7.998943
7.832646
8.897781
7.836819
8.475780
9.037852
8.036494
8.627772
8.402467
9.024739
9.416938
9.864569
9.561777
10.478497
10.553598
10.494590
11.583567
10.700822
10.947585
12.180805
11.700988
12.130737
11.006594
11.063814
11.821985
12.211800
11.140704
10.660887
9.768605
11.531711
11.898875
12.537837
12.165904
13.752580
15.835762
14.823675
15.103817
18.681884
15.628934
17.341971
15.954971
15.776753
15.465617
13.390779
11.881590
11.979938
10.469556
9.989738
9.227991
8.238554
7.243752
7.445812
7.066727
7.455945
6.701946
7.885695
7.832646
10.347962
13.494492
16.313791
21.969676
28.678775
34.454465
45.365691
52.138567
65.055490
71.503520
82.629919
85.142851
87.968707
86.233616
85.828900
83.912611
76.197982
71.399808
63.620806
52.792430
45.880675
34.980774
##ZVALUE=220
96.304417
95.181465
94.182491
86.304545
68.436861
51.505566
39.255619
30.318499
29.460788
26.048422
25.646687
24.052858
21.603703
19.899607
13.800859
10.593534
9.037852
6.249547
4.807711
4.234910
4.255772
3.924966
5.365610
4.872680
5.369782
5.668998
4.641414
5.554557
5.519986
6.063581
5.767941
7.149577
6.415844
6.661415
8.099675
8.238554
8.031726
8.272529
8.895993
10.100603
8.737445
9.966493
10.757446
10.814667
10.598898
10.933876
11.441708
12.862682
11.919737
13.219714
12.526512
13.535619
15.151501
15.307665
14.826655
15.220642
16.190410
15.874505
17.584562
16.648769
15.054941
15.854836
14.200807
14.899969
13.433695
14.414787
13.858676
14.180541
15.967488
15.347600
16.991496
16.380548
16.989708
18.461943
20.104647
18.445849
17.978549
19.212961
15.984774
16.819835
14.701486
14.245510
12.225509
11.396408
10.927916
8.795857
8.894801
7.937551
7.864833
7.595420
7.849932
7.653832
6.962419
6.497502
7.289648
6.808639
6.990433
7.557869
8.429885
11.312962
14.435649
19.998550
31.121969
38.866997
53.246617
65.249801
80.307722
96.947551
106.433630
115.834475
124.386549
126.170516
130.218863
133.630633
126.137733
117.363930
##ZVALUE=225
128.655434
130.402446
158.716440
168.830752
168.757439
153.964758
129.274726
94.352961
69.528818
49.761534
43.656826
37.936568
38.185716
39.878488
36.281943
33.817887
27.832985
21.566749
15.986562
10.594726
8.354783
5.426407
5.421638
5.758405
5.687475
5.282760
5.601645
5.537868
5.722642
6.287694
7.069707
6.608963
6.979704
8.042455
8.016825
7.324815
9.265542
10.306835
9.564757
10.772943
12.276769
11.255741
11.574626
12.354851
12.894869
11.790991
12.268424
12.667775
14.452934
15.653968
15.088916
16.534925
18.668771
17.714500
17.775893
17.457604
18.264651
18.019676
17.227530
19.213557
18.364787
18.463731
18.994808
16.933680
17.813444
17.591715
18.102527
15.748739
17.441511
17.313957
18.089414
18.101931
17.901659
19.230843
19.614697
19.420981
19.275546
17.294884
16.669631
16.991496
14.304519
13.682842
13.426542
12.581944
11.335611
10.828972
10.756850
9.766817
9.560585
9.240508
9.152889
8.346438
8.433461
7.953644
8.181930
9.132624
7.506609
7.729530
6.810427
7.433891
7.165670
7.365942
8.734465
11.219978
13.409853
17.960668
30.449629
45.956969
58.571696
76.348782
94.563961
117.773414
135.090947
159.892440
181.095004
194.319487
##ZVALUE=230
82.904696
88.524818
142.505765
188.751817
229.317546
271.443725
283.417702
265.456438
238.501430
173.593760
130.861998
88.529587
65.585971
55.327415
57.975650
59.555769
58.061481
55.831671
48.156977
37.790537
29.332638
20.426512
12.649894
9.008646
7.310510
6.158948
5.856752
5.757809
7.202625
6.905794
7.136464
6.449819
7.037520
8.114576
8.723736
8.771420
9.052753
10.634661
9.381771
10.271668
11.015534
11.976957
11.437535
12.999773
13.722777
14.171600
14.065504
14.479756
15.870929
14.860630
15.911460
17.180443
18.476844
19.719601
18.065572
19.046664
19.856691
18.712878
20.530820
19.702911
18.526912
18.729568
19.269586
19.584894
19.572973
19.080639
17.699599
18.638968
20.552874
19.886494
19.751787
20.686984
21.759868
22.354722
22.044778
21.191835
21.781921
21.244884
18.779635
18.953681
16.895533
16.304851
14.230609
13.947487
13.393760
11.911988
11.303425
11.269450
11.988878
9.500980
11.425614
10.925531
10.497570
10.290742
10.748506
8.985996
10.291934
9.993911
9.514689
9.056926
9.593964
9.344816
7.761717
9.397864
8.767843
7.941723
9.020567
9.446740
10.570884
16.829967
22.905469
37.573576
50.519705
76.495409
97.221732
135.258436
##ZVALUE=235
24.281740
27.202964
60.622692
110.284686
175.790787
268.680453
342.572927
422.739983
444.466472
421.657562
381.027460
282.648802
216.187835
140.422583
103.217959
80.384612
78.291893
82.960725
83.875656
87.800622
77.154636
70.025921
51.235557
38.275719
23.896694
15.305877
11.389852
9.170771
7.109642
7.778406
7.963777
8.075833
8.753538
9.622574
8.099675
9.414554
9.247661
10.728836
11.149645
10.691881
11.921525
11.018515
11.359453
12.472868
13.218522
12.924671
12.694597
13.417602
14.243722
16.007423
15.188456
15.922785
15.502572
17.245412
17.312765
17.506480
17.535686
16.940832
18.696785
18.504858
16.952753
17.955899
18.155575
19.079447
19.700527
17.960668
18.903613
20.031929
20.844936
21.376610
21.602511
22.081733
22.484660
23.383498
23.780465
23.972988
22.761822
23.476481
21.718740
19.137859
18.414855
16.644597
17.839670
16.638637
15.969872
15.446544
15.349984
14.759898
16.155839
14.061928
12.244582
11.813641
11.894703
12.792945
11.830926
11.909604
11.398792
10.647774
11.274815
11.014938
10.881424
9.779930
10.104775
10.233521
9.823442
10.878444
10.910630
11.637807
10.638833
10.145903
9.775758
10.319948
10.015965
12.881756
18.900633
29.883981
##ZVALUE=240
2.882481
3.203750
9.583831
25.994778
56.490898
130.423903
213.985443
371.178985
483.640432
608.819723
651.841760
647.040606
581.748486
457.811952
351.731777
225.651860
162.144899
116.786957
98.632574
104.519725
114.907622
120.900869
119.697452
103.860497
88.321567
65.211654
46.225786
33.400655
20.589828
14.127493
11.642575
9.782910
8.063912
8.447766
9.280443
10.214448
9.547472
10.376573
9.918809
10.790825
11.241436
12.380481
10.730624
12.197495
12.265444
12.388825
12.938976
14.115572
12.600422
14.596581
12.925863
13.803840
14.199615
15.373826
15.721917
15.486479
16.162992
15.637875
15.460849
17.099977
15.710592
16.764998
17.198920
16.096830
16.906857
17.059445
18.155575
17.394423
18.986464
18.971562
20.208955
21.328926
23.286939
25.015473
23.157597
23.905635
24.739504
22.967458
23.648739
21.419525
20.479560
19.023418
18.372536
17.855763
16.057491
16.122460
16.166568
15.299916
16.016960
14.499426
12.982488
15.579462
14.426708
13.687611
12.984872
12.737513
12.764931
12.052655
13.470650
12.511611
11.336803
12.199879
12.121797
11.993647
11.246800
12.459755
11.942983
11.016726
11.933446
12.612939
12.285709
10.438561
10.308623
11.871457
11.126995
11.227727
##ZVALUE=245
2.454519
2.357960
2.522469
2.870560
5.408525
18.140674
43.745637
116.349459
202.338696
348.586440
489.639640
651.116967
740.431547
767.883658
726.416707
607.389808
483.528972
322.730541
225.378871
142.338872
112.842917
102.750659
115.296841
130.764842
132.384896
127.231479
114.831924
101.735592
76.901913
58.409572
34.035444
23.593903
15.172958
10.518432
8.991957
8.706450
9.691715
9.027719
10.991693
9.806752
10.414720
11.088848
11.235476
12.219548
10.418892
11.697412
11.565685
12.005568
12.593865
11.637807
13.533831
13.119578
13.125539
13.327599
12.929440
13.932586
12.972951
12.931824
12.720823
13.656616
13.025999
12.036562
13.329983
14.444590
14.801621
13.937950
14.026761
14.112592
15.354753
15.579462
15.489459
16.675591
19.100904
18.260479
18.146634
19.929409
19.526482
18.815994
17.316937
18.053651
17.768741
17.951727
15.098453
14.844537
13.064742
13.858676
12.168884
14.163852
14.267564
12.847781
12.687445
11.496544
11.104941
10.917783
11.306405
11.688471
11.542439
10.782480
11.657476
10.834932
10.522604
10.316968
10.719895
10.274649
10.862947
11.118650
11.072755
10.657907
9.787679
10.585785
10.633469
10.518432
9.341836
11.419654
9.600520
9.995699
##ZVALUE=250
1.799464
2.381802
2.449751
1.966953
2.815723
2.592802
3.128648
11.082888
31.884909
87.834597
168.995857
330.155492
482.039452
668.677688
772.974491
870.446563
864.892006
759.927630
649.061799
436.706543
307.474732
180.983543
123.080611
98.985434
107.836723
119.288564
137.678981
140.653849
137.146711
120.976567
101.375580
81.430674
54.173470
40.780902
21.821856
15.309453
10.152459
9.557605
9.985566
10.430813
10.307431
10.113716
11.774898
11.558533
10.875463
11.045933
12.891889
11.740923
11.562705
13.167858
12.204647
12.909770
12.726784
12.464523
12.406707
11.699796
12.673736
11.356473
11.763573
11.876822
12.285709
11.572838
12.234449
11.959672
12.444854
10.906458
11.515617
11.775494
13.018847
12.736917
14.683604
15.540719
15.866756
15.072823
15.798807
15.314817
15.338659
14.877915
14.102459
13.630986
12.517571
11.959672
11.313558
11.638999
10.403991
10.854602
10.430813
10.207891
9.378791
10.612607
8.580685
8.458495
8.906722
8.678436
8.204579
8.857846
9.717941
8.998513
8.109808
8.653998
8.376837
7.989407
8.711815
7.862449
8.394718
8.632541
9.169579
8.406639
8.409619
7.706881
8.291602
8.252859
8.306503
7.745624
7.657409
7.631779
##ZVALUE=255
2.076626
2.104640
1.926422
1.973510
1.926422
2.153516
2.149940
2.423525
2.634525
6.124973
19.163489
67.810416
136.982799
284.033418
429.140925
649.988651
805.682540
945.176482
975.878835
908.681750
798.452497
589.771867
420.254469
236.220956
149.559975
96.563697
91.140866
106.500983
125.499964
137.207508
148.998499
143.625736
130.727887
111.951828
82.436800
61.670542
37.949681
25.183558
15.840530
12.609959
11.723638
11.103749
12.212992
12.626648
12.421608
12.099743
12.584925
12.963414
12.193918
13.419986
13.739467
13.452768
13.011694
13.904572
13.190508
13.434887
13.177991
12.868643
13.946891
13.079643
12.747645
11.979938
12.342930
11.733770
11.750460
11.170506
11.385679
11.519790
10.944605
12.906790
12.783408
12.418628
13.189912
12.241602
13.909936
12.143850
12.021661
12.126565
10.825992
10.557771
9.406805
9.657741
9.030700
9.248853
7.758737
8.020997
8.297563
8.145571
7.542968
7.329583
7.005930
7.345676
7.014871
7.089972
6.794930
6.703734
7.150769
6.571412
7.132888
6.798506
6.832480
7.109642
6.827712
6.870627
6.124973
6.751418
7.112622
6.775856
7.106662
6.483793
6.664991
6.773472
6.541610
6.084442
6.468892
7.062554
##ZVALUE=260
1.772642
1.725554
1.783967
1.617670
1.701713
1.808405
1.828671
2.060533
2.135634
2.003908
2.622604
3.715754
11.356473
44.021606
93.568563
217.832923
359.801650
590.792894
776.347518
993.325710
1015.712619
1015.712619
978.126526
749.294758
551.375747
331.670642
212.971568
138.264894
88.205934
84.914565
106.921792
128.201842
148.768425
156.575441
151.709914
139.204860
117.389560
91.932416
61.961412
45.567751
29.339790
19.481778
14.724731
13.882518
14.479756
13.788939
14.676452
14.498830
14.954805
14.788508
15.958548
15.126467
14.397502
15.990734
14.979839
15.116930
14.745593
14.970899
13.957620
13.847947
13.947487
14.393926
13.300776
13.032556
12.334585
12.237430
12.514591
11.908412
11.852980
11.862516
11.607409
12.660623
12.755990
12.548566
12.788773
11.438727
11.638999
10.518432
10.453463
10.289550
9.310842
9.276867
8.488894
8.293986
7.878542
7.692575
7.005930
6.851554
7.010698
6.629825
6.836653
6.505847
5.625486
6.501675
6.047487
6.515980
6.433725
6.581545
5.755424
5.943775
6.405711
5.874634
6.130934
6.040931
5.752444
5.911589
6.279945
5.830526
5.884767
5.719662
5.892515
5.910993
6.335974
5.840659
6.111860
5.516410
##ZVALUE=265
1.682639
1.504421
1.692772
1.553893
1.846552
1.337528
1.820922
1.898408
2.057552
1.804829
1.770854
2.154708
2.365708
3.104806
5.670786
27.441978
67.892671
170.362592
299.210548
551.701784
761.026740
1003.688574
1015.712619
1015.712619
1015.712619
942.044854
693.174005
499.130487
274.421573
167.350769
94.913840
76.163411
88.708997
111.981630
139.274597
152.484775
163.202882
159.279704
138.005614
119.921565
90.523958
69.109797
45.346618
33.394694
22.848845
19.168854
16.963482
17.065406
16.811490
17.682910
17.362833
17.365813
19.235611
18.256903
18.614531
17.237663
18.112659
17.571449
16.873479
16.139746
16.156435
16.459823
15.360713
15.123487
13.919473
12.876987
13.375878
13.614893
13.313890
12.698770
13.193488
12.781620
13.317466
13.252497
12.165904
12.354851
11.923909
11.331439
9.983778
10.062456
8.596778
9.081960
8.167624
7.591844
7.526875
7.726550
7.550716
7.055998
6.812811
7.247925
6.956458
6.465912
6.165504
6.040931
6.084442
5.967617
5.640984
5.882978
5.463958
5.634427
5.769730
5.990863
5.621910
5.817413
5.416870
5.635619
6.049871
5.199909
5.614758
5.437732
5.866885
5.572438
5.827546
5.178452
4.892945
4.902482
##ZVALUE=270
1.565814
1.265407
1.403689
1.420975
1.557469
1.397729
1.576543
1.519918
1.561642
1.749992
1.649857
1.742840
1.841784
2.050996
2.083778
2.304912
3.095865
13.612509
39.467812
124.285817
236.589909
465.692878
702.973604
946.722627
1015.712619
1015.712619
1015.712619
1015.712619
866.838694
655.203462
402.655602
247.528553
120.530725
76.782703
70.053935
86.341500
117.515922
140.704513
161.424875
167.211890
163.653493
150.203705
123.632550
100.741982
70.401430
53.867698
36.021471
28.349757
22.880435
21.547675
20.196438
20.807981
20.097494
21.040440
20.531416
20.283461
20.053983
19.666553
19.277930
18.660426
18.332601
18.116832
17.488599
16.529560
16.566515
15.909672
15.258789
15.066862
13.624430
14.610887
13.751984
14.183521
13.906956
14.045835
13.167858
13.150573
12.309551
11.688471
10.863543
10.770559
9.489655
9.590983
8.716583
8.738637
8.369684
7.983446
7.557869
7.473826
7.417798
6.632805
6.887913
6.541610
6.279945
6.080866
6.151795
6.097555
5.660653
6.203651
5.849600
5.854964
5.665421
6.313920
5.964637
5.544424
5.385876
5.082488
5.704761
5.479455
5.675554
4.921556
5.537868
5.633831
5.257726
5.337596
4.788637
5.009770
##ZVALUE=275
1.228452
1.353621
1.390576
1.329780
1.190901
1.476407
1.439452
1.316667
1.654625
1.659989
1.501441
1.504421
1.634955
1.663566
1.763701
1.875758
2.150536
2.052784
2.544522
6.023645
22.720695
84.174871
178.382397
393.429995
611.178875
927.838683
1015.712619
1015.712619
1015.712619
1015.712619
1015.712619
852.306485
547.323823
343.315601
165.309906
93.516707
61.388612
66.989660
92.640519
115.000606
146.594644
159.784555
168.596506
165.424943
148.772597
127.361417
96.406937
77.168941
54.047704
40.757656
30.187964
26.216507
23.364425
22.427440
21.641850
21.751523
21.000504
21.310449
21.330714
20.452738
20.412803
19.519925
18.708706
17.742515
17.918944
16.840696
16.640425
16.040802
15.432835
15.846491
15.121698
15.043616
14.686584
14.847517
14.319420
13.754964
12.870431
12.296438
11.758804
11.104941
10.778904
9.835958
9.363890
8.893609
8.617640
8.460879
8.085966
7.634759
7.626414
7.469654
6.897449
7.134676
6.682873
6.691813
6.064773
6.366968
6.479621
6.055832
6.181598
6.037951
6.319880
5.978942
6.022453
6.071925
5.754828
5.791783
5.393624
5.822778
6.015897
5.757809
5.581975
4.996657
5.269647
5.702972
5.229712
5.215406
##ZVALUE=280
1.136661
1.322627
1.222491
1.084805
1.241565
1.437664
1.515746
1.264811
1.474619
1.542568
1.566410
1.404881
1.649857
1.568794
1.693964
1.426935
1.685619
2.072453
1.851916
2.349615
2.297759
4.023910
13.478994
60.720444
134.840608
309.119821
492.370725
718.488693
1008.753777
1015.712619
1015.712619
1015.712619
1015.712619
978.108644
654.291511
437.448621
223.947763
121.681690
60.015917
52.012801
66.740513
88.839531
119.675994
139.053464
161.542892
165.615678
160.683990
147.524476
122.965574
100.174546
72.947741
56.100488
38.973689
30.503869
24.378896
22.385716
21.390915
20.451546
19.590855
19.493699
18.763542
19.449592
18.371940
17.635822
16.967654
17.147660
16.380548
15.560985
15.232563
15.375614
15.300512
14.759898
14.462471
14.176965
13.927817
13.190508
12.962818
12.213588
11.375546
11.422634
10.534525
10.029674
9.190440
9.250641
9.294748
9.015799
8.633733
8.025765
7.814765
8.094907
7.412434
7.755756
7.299781
7.002950
6.867647
6.265640
6.279945
6.189942
6.790757
6.549954
6.384850
6.423593
6.236434
5.841851
6.052852
6.273985
6.193519
5.614758
5.509853
5.682707
5.499721
5.452633
5.047917
5.099773
5.352497
5.317926
##ZVALUE=285
1.087785
1.028776
1.219511
1.084805
1.157522
1.291633
1.171827
1.368523
1.335740
1.370907
1.352429
1.427531
1.408458
1.351833
1.374483
1.423955
1.366735
1.543760
1.827478
1.772642
1.935959
2.176762
2.161860
2.639890
5.990863
31.175613
75.185895
200.294852
356.786847
570.978522
901.477933
1015.712619
1015.712619
1015.712619
1015.712619
1015.712619
839.609504
581.695437
310.190916
180.552602
93.631744
44.526458
42.419434
61.243773
82.997680
113.176703
133.816004
154.291987
161.092877
159.679651
143.245459
125.446916
96.557736
76.529980
52.201748
37.057996
26.369691
21.807551
18.661618
17.328858
17.368793
16.496778
16.208887
15.665889
15.817881
14.795661
15.138984
14.182925
14.435649
13.860464
13.774633
13.959408
13.763905
13.464689
13.104677
13.070703
11.791587
11.667609
11.321902
11.287928
10.527968
10.318756
9.958744
9.283423
9.156466
8.839965
8.668900
8.654594
8.023977
8.368492
7.844567
7.475615
7.619858
7.025599
7.306933
7.296801
6.782413
6.743670
6.773472
6.402731
6.419420
6.547570
6.627440
6.193519
6.493926
6.225705
5.966425
5.747676
6.092787
6.027818
5.700588
5.667806
5.727410
5.524755
5.585551
5.316734
##ZVALUE=290
1.213551
0.985861
1.287460
1.270771
1.122952
1.136661
1.149774
1.181960
1.069903
1.159906
1.299977
1.215935
1.183748
1.209974
1.403689
1.276731
1.540780
1.433492
1.460910
1.588464
1.759529
1.660585
1.837611
1.856685
2.134442
2.665520
2.972484
13.370514
42.278767
103.471875
256.401896
437.675714
754.205585
1003.202796
1015.712023
1015.712023
1015.712023
1015.712023
981.943607
736.208558
488.251448
241.122842
127.563477
48.757792
32.024980
40.497780
54.326653
78.743696
100.596547
121.755600
145.483613
153.984427
150.049925
138.552785
113.839507
93.830824
67.009926
49.923658
31.775832
24.044514
18.032789
15.346408
13.606548
13.030767
12.828708
13.327599
12.465715
12.305975
12.366772
12.486577
12.638569
12.230873
12.099743
12.309551
11.922717
11.755824
10.602474
11.147857
10.437965
10.295510
10.087490
9.339452
9.360909
9.257793
9.078979
8.940697
8.570552
8.283854
8.076429
7.715821
7.916689
7.817745
7.426739
7.364750
7.505417
7.219911
6.800890
6.928444
6.564856
7.073879
6.724000
6.907582
6.901622
6.453991
6.284714
6.404519
6.338954
6.076694
6.225705
6.433725
5.812645
5.804896
5.909801
5.462766
5.864501
5.488992
##ZVALUE=295
1.068711
1.011491
0.901818
1.160502
1.011491
1.097918
1.063943
1.076460
1.166463
1.121759
1.079440
1.094937
1.138449
1.237988
1.177788
1.025796
1.194477
1.422763
1.409650
1.485944
1.567602
1.778603
1.550913
1.622438
1.813769
2.015829
1.966953
2.145767
2.608895
4.012585
21.869540
61.116815
173.274875
335.774422
638.469458
897.383690
1015.712619
1015.712619
1015.712619
1015.712619
1015.712619
903.234482
557.249784
345.229506
156.378746
76.643825
30.901432
24.457574
34.773946
48.410892
72.949529
92.464685
119.593740
133.166909
143.245459
141.790509
124.943852
110.480785
84.827542
65.619946
44.210553
30.059814
20.144582
14.641881
11.338592
10.665655
10.006428
9.945631
10.000467
10.119677
10.165572
10.275841
10.196567
10.178685
10.621548
10.103583
9.758472
9.850860
9.490848
8.740425
9.206533
8.367896
8.348823
8.442998
8.138418
8.052588
7.926822
7.881522
7.811785
7.636547
7.563829
7.262826
7.066727
7.071495
6.439686
6.918907
6.464720
6.690621
6.719828
6.617904
6.689429
6.653666
6.704926
6.426573
6.483793
6.721616
6.212592
6.286502
6.016493
6.053448
6.015897
5.837679
5.756617
5.891919
5.551577
5.679727
##ZVALUE=300
0.916719
0.894666
0.995994
0.981688
1.019835
1.025796
0.915527
1.058578
1.023412
1.231432
1.204610
1.198649
1.119971
1.160502
1.256466
0.997782
1.214743
1.225471
1.269579
1.384616
1.375675
1.316667
1.243949
1.639724
1.644492
1.567602
1.828671
1.905560
1.965761
2.217889
2.541542
2.603531
10.456443
35.885572
119.554996
236.551762
488.215685
737.497807
1015.712023
1015.712023
1015.712023
1015.712023
1015.712023
1015.712023
704.571009
455.560684
228.137970
121.491551
44.344664
22.087693
20.568967
26.996732
44.160485
60.353875
84.687471
105.521679
126.187801
131.729841
131.543875
122.938752
102.745891
85.009933
60.445666
43.663979
26.938915
19.142628
12.642741
10.270476
8.780956
8.751750
8.490682
8.493662
8.581877
8.569956
8.728504
8.633733
8.205771
8.315444
7.937551
8.152723
7.691979
7.584691
7.870793
7.698536
7.378459
6.859899
7.126927
6.989837
7.401705
7.102489
6.859899
6.806850
6.830692
6.328821
6.754994
6.289482
6.704926
6.412864
6.020665
6.181598
6.566644
6.260872
6.287694
6.090999
5.980730
6.220937
6.084442
6.105900
6.182790
5.665421
5.999804
5.565882
5.725622
5.683899
5.701780
5.299449
##ZVALUE=305
0.803471
0.916719
0.930429
0.870824
1.024604
0.959635
0.988841
1.206994
0.949502
1.045465
1.123548
0.892878
1.025796
1.081824
1.187921
1.055598
1.141429
1.161695
1.221895
1.049638
1.137853
1.218915
1.348853
1.428723
1.449585
1.606941
1.574755
1.644492
1.673698
1.618862
1.861453
2.012849
2.116561
2.633929
5.531907
19.461513
77.966452
171.809793
389.884710
611.262918
959.175825
1015.712619
1015.712619
1015.712619
1015.712619
1015.712619
817.067623
567.117929
297.747850
166.104436
64.207911
28.221607
14.822483
17.592907
27.254820
38.920641
61.776638
78.780651
101.443529
114.922523
124.946833
124.615431
113.858581
98.582506
76.820850
60.786605
39.181709
27.000904
15.941858
11.426806
8.810759
7.927418
7.968545
7.891655
7.963777
7.849932
7.394552
7.523894
7.137656
6.820560
6.969571
6.973743
6.961823
6.823540
6.848574
6.736517
6.823540
6.393790
6.627440
6.527901
6.451607
6.120801
5.774498
6.286502
5.576611
6.079674
5.981922
5.733967
5.692840
5.942583
6.027818
5.968809
5.824566
5.860925
5.770922
5.607605
5.657673
5.696416
5.550981
5.459785
5.598664
5.409718
5.219579
5.131960
5.216599
5.230904
##ZVALUE=310
0.903606
0.851750
1.088977
0.967979
0.972748
0.824928
0.852942
0.847578
1.096725
1.081824
0.921488
1.038909
1.044869
1.147985
1.156926
1.129508
1.092553
0.906587
0.993609
1.211762
1.181960
1.202822
1.231432
1.287460
1.419783
1.437664
1.432896
1.314878
1.481771
1.521707
1.665950
1.680851
1.741648
1.855493
2.305508
2.331734
2.897978
8.087754
43.389797
103.482008
259.534717
445.982814
781.641603
1014.717817
1015.712619
1015.712619
1015.712619
1015.712619
977.129936
725.615025
420.402884
248.434544
103.751421
48.004985
16.760826
12.068748
15.926957
22.044778
35.959482
50.131679
71.567893
89.669824
108.256936
118.903518
118.722916
111.869574
96.369982
78.664422
54.918528
39.708614
23.937821
17.542839
11.439919
8.695722
7.455945
6.953478
6.592870
6.431937
6.030798
6.147623
6.010532
5.711913
5.960464
5.811453
5.955696
5.858541
5.944967
5.888939
6.017685
5.765557
5.516410
5.552769
5.630851
5.170703
5.453825
5.297661
5.152822
5.390644
5.627871
5.353689
5.379915
5.166531
5.000830
5.026460
5.208850
4.994869
5.152822
4.989505
4.994869
4.755855
4.937649
4.959702
4.990697
4.969835
4.756451
4.602671
##ZVALUE=315
0.936985
0.886917
0.895858
1.018643
0.856519
0.917912
0.855923
0.808835
0.933409
0.935793
0.879765
0.882745
1.057982
0.966787
0.927448
1.001954
0.992417
1.193881
1.023412
1.088977
1.104474
1.167655
1.196861
1.166463
1.101494
1.340508
1.075864
1.221895
1.318455
1.353621
1.417994
1.534820
1.433492
1.851916
1.680851
1.785755
2.091527
2.135634
2.554655
5.331635
18.314719
76.515675
165.025592
376.484394
602.285862
967.308879
1015.712619
1015.712619
1015.712619
1015.712619
1015.712619
820.488930
572.738647
303.452611
162.572861
59.855580
24.228692
11.071563
10.520816
14.495850
19.887686
33.548474
47.289729
66.075921
82.641840
100.566745
109.216571
110.314488
104.610920
87.896585
72.656870
52.495599
38.167834
23.890734
16.005635
10.059476
7.800460
6.077886
5.871654
5.281568
5.306602
5.267859
5.098581
5.120635
4.850626
5.162954
5.152822
5.139709
4.890561
4.881620
4.963875
4.760623
4.924536
5.014539
4.789829
4.745722
4.688501
4.530549
4.800558
4.520416
4.492998
4.643798
4.405975
4.657507
4.773736
4.701614
4.544854
4.539490
4.334450
4.447699
4.558563
4.498959
4.280806
4.055500
3.923774
4.174709
##ZVALUE=320
0.893474
0.712872
0.744462
0.735521
0.846982
0.912547
0.692606
0.912547
0.914931
0.707507
0.998974
1.029968
0.882745
0.925660
0.929832
0.982881
0.898838
0.908971
0.979900
0.978708
1.000762
1.050830
1.107454
1.130700
1.065731
1.259446
1.311898
1.250505
1.192689
1.154542
1.158714
1.292825
1.403689
1.265407
1.597404
1.682639
1.534820
1.708865
1.837611
1.996756
2.227426
2.717972
10.280609
32.894611
120.084882
239.205360
486.061573
728.443861
1015.712619
1015.712619
1015.712619
1015.712619
1015.712619
991.175771
671.395659
433.869958
201.860666
105.390549
37.080646
16.283989
9.374619
9.370446
12.973547
17.742515
29.571652
41.742921
60.206652
76.167583
93.705654
101.716518
103.938580
99.229813
84.829926
69.372654
50.133467
36.726594
22.274852
14.717579
8.844733
6.703734
5.465746
4.786849
4.842877
4.484653
4.356503
4.432797
4.373789
4.547834
4.277825
4.321933
4.312992
4.220605
4.134774
4.183650
4.518628
4.104972
3.963709
4.197955
4.013777
4.205704
4.158616
4.275441
4.057884
4.312992
4.060864
3.891587
3.975630
3.931522
4.047751
4.056692
3.987551
3.987551
3.795624
3.807545
3.587604
3.505945
##ZVALUE=325
0.823736
0.893474
0.883937
0.927448
0.982881
0.843406
0.899434
0.872612
0.755787
0.907779
0.795722
0.949502
0.889897
0.935793
0.857711
0.840425
0.951886
0.865459
0.806451
1.029968
0.962615
0.984669
1.189709
1.097918
1.060963
1.083612
1.143813
1.052618
1.233816
1.156926
1.186728
1.260638
1.170635
1.133680
1.367927
1.455545
1.366735
1.574755
1.528859
1.847744
1.742840
1.989603
2.155900
2.347827
4.462004
26.582479
71.230531
187.909603
344.665647
563.897491
904.337764
1015.712023
1015.712023
1015.712023
1015.712023
1015.712023
757.767558
513.974428
266.671777
147.012472
54.072738
22.145510
9.545684
8.414984
9.113550
11.441708
17.617941
25.620461
42.621493
57.526827
75.327754
87.340474
97.861886
98.493695
91.214776
81.422925
61.695576
47.786832
30.296445
20.753741
12.133718
8.683801
6.032586
4.892945
4.612803
4.123449
3.645420
3.891587
3.826618
3.924966
3.746748
3.856421
3.597736
3.677607
3.565550
3.641844
3.622770
3.732443
3.914833
3.849864
3.855824
3.753901
3.679991
3.537536
3.585815
3.551841
3.527999
3.614426
3.567934
3.655553
3.461838
3.484488
3.405809
3.448725
3.026724
3.119707
##ZVALUE=330
0.732541
0.800490
0.708699
0.747442
0.817776
0.725985
0.622869
0.748634
0.737906
0.764728
0.843406
0.802875
0.714660
0.766516
0.866652
0.831485
0.897646
0.915527
0.902414
0.959635
1.036525
0.870824
0.965595
0.904799
1.026988
0.959635
1.062751
1.057982
1.011491
1.027584
0.857711
1.061559
1.236796
1.254678
1.249909
1.201630
1.307726
1.344681
1.306534
1.367927
1.423955
1.513958
1.737475
1.893640
1.937747
2.408624
2.814531
11.574626
39.168000
100.139976
256.650448
438.526869
751.518011
985.293984
1015.712023
1015.712023
1015.712023
1015.712023
855.099559
626.286864
348.670483
198.581815
80.663562
34.606457
10.871887
7.687807
7.250905
7.990599
11.382699
16.033649
26.355982
36.371946
55.601001
68.977475
82.960725
89.727640
90.328455
85.364580
70.888996
58.679581
41.128993
30.611753
19.572973
13.636947
8.278489
6.015897
4.327893
4.217625
3.744960
3.573895
3.609657
3.486872
3.241897
3.439784
3.232956
3.228784
3.300905
3.379583
3.414750
3.124475
3.452897
3.513694
3.282428
3.441572
3.298521
3.198981
3.158450
3.426671
3.273487
3.136992
3.063679
3.043413
3.013611
2.995729
3.035665
2.924800
##ZVALUE=335
0.805855
0.871420
0.595450
0.759959
0.596642
0.610948
0.805855
0.807643
0.815988
0.730753
0.817776
0.768900
0.789762
0.868440
0.917912
0.899434
0.803471
0.912547
0.887513
1.011491
0.869632
0.943542
0.976920
0.769496
0.872612
0.966787
0.944734
0.786781
1.004934
1.076460
1.003742
0.923872
1.070499
1.048446
1.067519
1.193881
1.174808
1.204610
1.236796
1.361966
1.394749
1.350641
1.399517
1.520514
1.669526
1.755953
1.891851
1.946688
2.551675
4.292727
24.900436
67.293644
187.059641
336.077809
612.812638
858.534575
1015.712619
1015.712619
1015.712619
1015.712619
970.329642
726.385713
431.512594
264.363885
116.374493
52.811503
16.288757
8.505583
7.011890
6.831884
7.953644
9.765625
15.695691
23.401976
36.771894
48.057437
65.278411
76.050758
83.635449
84.935427
78.056455
68.831444
53.747892
43.246746
28.955936
20.777583
12.447834
8.609891
5.630851
4.293919
3.773570
3.345609
3.345609
3.116727
3.261566
3.033876
3.013611
3.147721
3.083944
3.138781
3.217459
3.156662
3.302693
3.201962
3.023744
3.122687
3.087521
3.007650
3.160834
2.818704
2.991557
2.925992
2.889633
2.826452
2.859831
2.676845
##ZVALUE=340
0.708699
0.692606
0.759959
0.723600
0.758767
0.655651
0.664592
0.708699
0.828505
0.763535
0.759959
0.687838
0.693798
0.829697
0.792742
0.687838
0.974536
0.936985
0.807643
0.878572
0.852942
0.757575
0.824928
0.969768
0.793934
0.913739
0.663996
0.958443
0.918508
1.038909
1.110435
0.977516
0.912547
1.004934
1.158714
1.093745
1.066923
1.129508
1.107454
1.169443
1.147985
1.139641
1.418591
1.340508
1.313686
1.462698
1.593828
1.752973
1.787543
2.033710
2.167821
2.850890
12.518764
40.626526
129.386783
257.375836
518.140793
745.823979
1009.221673
1015.712619
1015.712619
1015.712619
1011.283994
828.722715
526.508689
329.671502
150.292516
72.008967
20.699501
9.159446
6.697774
6.446838
6.639957
7.539988
10.154843
13.692975
22.316575
32.583475
47.717690
59.324503
72.042942
77.677965
78.135729
74.416995
64.369440
54.237843
40.038824
29.422641
19.195676
13.290644
7.985830
5.559921
4.351735
3.502965
3.279448
3.169775
2.902746
2.759695
2.864599
2.962947
2.787709
2.995729
2.954602
2.977848
3.037453
2.972484
2.844930
2.933741
2.862811
2.896786
2.920628
2.862811
2.912879
2.636909
2.772808
2.601743
##ZVALUE=345
0.654459
0.794530
0.607967
0.757575
0.803471
0.781417
0.604987
0.914931
0.636578
0.825524
0.767708
0.784993
0.735521
0.701547
0.735521
0.689626
0.685453
0.787973
0.916719
0.838637
0.709891
0.851750
0.880957
0.927448
0.897646
0.954866
0.804663
0.878572
0.990629
0.861883
0.893474
0.884533
0.845790
0.908971
0.950694
1.146793
1.012683
1.090765
1.093745
1.135468
1.173615
1.145601
1.145601
1.247525
1.224875
1.367927
1.290441
1.334548
1.326799
1.402497
1.539588
1.838803
1.917481
2.152920
5.169511
19.482970
79.172850
171.068907
371.471643
571.574569
879.566669
1015.712619
1015.712619
1015.712619
1015.712619
932.737589
640.841722
420.936942
195.519924
97.000599
35.147667
14.351606
7.390976
6.424785
5.960464
6.059408
6.535649
8.083582
13.246536
19.048452
31.355619
40.924549
54.714680
62.994957
71.167946
73.187947
69.209933
62.407851
50.385594
40.444732
28.070807
19.940734
12.222528
8.508563
5.564690
4.196763
3.404617
3.140569
2.985597
2.833605
2.858639
2.930760
2.921820
2.771616
2.760887
2.831817
2.862811
2.743602
2.571940
2.766848
2.758503
2.841949
2.709627
2.865791
2.812743
2.566576
##ZVALUE=350
0.723600
0.707507
0.677705
0.719428
0.738502
0.772476
0.743866
0.663996
0.658631
0.761747
0.790954
0.686646
0.884533
0.818968
0.800490
0.834465
0.909567
0.720620
0.567436
0.799894
0.836849
0.859499
0.806451
0.885725
0.887513
1.007915
0.822544
0.945926
0.885725
0.820756
0.745654
0.754595
0.753999
0.914931
0.953674
1.024604
0.940561
0.993609
1.181960
1.072884
1.047850
1.108646
1.305938
1.263618
1.227856
1.105666
1.164675
1.256466
1.263618
1.289845
1.253486
1.504421
1.282692
1.521707
1.742840
2.228618
2.790689
13.467669
40.427446
126.892924
246.918797
494.171977
714.733005
985.413790
1015.712023
1015.712023
1015.712023
964.702964
740.388632
459.933877
276.275873
122.705698
55.635571
15.578866
7.829666
6.190538
5.816817
5.311966
5.108714
5.703568
7.635951
12.065768
17.448664
27.254820
36.172867
48.272610
57.137609
63.815713
66.011548
62.787533
57.403445
46.651959
38.291812
27.646422
19.646883
12.577772
8.912683
5.621910
4.117489
3.301501
3.026724
2.899766
2.784729
2.784729
2.668500
2.648830
2.609491
2.685785
2.556443
2.740622
2.491474
2.559423
2.622604
2.516508
2.545714
2.509952
##ZVALUE=355
0.746846
0.667572
0.729561
0.721812
0.618696
0.821948
0.749826
0.884533
0.865459
0.725985
0.701547
0.724792
0.784993
0.795722
0.797510
0.831485
0.785589
0.862479
0.771880
0.826716
0.730753
0.830889
0.672936
0.841618
0.814795
0.939965
1.031756
0.779629
0.782609
0.835657
0.804663
0.943542
0.814795
0.943542
0.860691
0.873804
0.988841
1.011491
1.054406
0.985861
1.034737
1.062751
1.046658
1.055598
1.110435
1.131892
1.239777
1.239777
1.345873
1.383424
1.254678
1.309514
1.302958
1.522899
1.546741
1.679659
1.728535
1.883507
2.339482
4.575849
25.958419
72.102547
197.399855
340.098739
605.581999
828.801990
1015.712023
1015.712023
1015.712023
1013.586521
771.265030
561.896563
317.786932
175.500512
67.730546
28.721690
9.085536
6.035566
5.380511
4.981756
4.831553
4.786849
5.092621
6.657839
10.338426
14.648438
22.896528
30.796528
41.931868
50.143600
56.579709
59.785843
58.139563
53.450465
43.904781
36.891699
26.883483
19.653440
12.654662
8.818507
5.549788
4.136562
3.341436
3.142953
2.975464
2.691746
2.700686
2.677441
2.652407
2.519488
2.638698
2.490878
2.316833
2.443790
2.574921
2.601743
##ZVALUE=360
0.827909
0.734925
0.741482
0.812411
0.703931
0.664592
0.699759
0.716448
0.928640
0.822544
0.599623
0.777841
0.744462
0.710487
0.807643
0.746846
0.772476
0.703931
0.786781
0.789762
0.796914
0.617504
0.912547
0.871420
0.867844
0.755787
0.898838
0.837445
0.878572
0.775456
0.865459
0.939965
0.637770
0.978708
0.955462
0.922680
0.930429
0.975728
0.896454
1.019835
0.968575
1.027584
0.956655
0.962615
1.011491
1.098514
1.127720
1.081824
1.219511
1.259446
1.205802
1.369715
1.381636
1.272559
1.525879
1.436472
1.611710
1.621842
1.937747
2.103448
2.168417
2.929568
12.775660
37.851930
121.210814
234.441757
466.456413
683.711767
975.056887
1015.712619
1015.712619
1015.712619
890.418887
676.776767
403.595567
238.081813
96.043944
40.412545
11.879802
6.338954
5.337000
5.030632
4.453659
4.405975
4.215837
4.444718
5.692840
7.767677
12.499690
17.522573
26.447773
34.515858
44.337511
50.283670
54.590702
54.286718
50.348639
45.023561
35.887957
28.992891
19.743443
14.452934
9.128451
6.363988
4.201531
3.534555
3.039837
2.675653
2.516508
2.416968
2.540946
2.445579
2.525449
2.395511
2.396703
2.203584
##ZVALUE=365
0.686646
0.804663
0.780821
0.713468
0.764728
0.642538
0.853539
0.705719
0.793934
0.739694
0.708699
0.677705
0.724792
0.766516
0.757575
0.748634
0.742674
0.872612
0.807643
0.732541
0.791550
0.802875
0.868440
0.861883
0.985861
0.753999
0.751615
0.880957
0.941753
0.835657
0.818968
0.739694
0.931621
0.838637
0.762939
0.914931
0.926852
1.083612
1.045465
0.931621
0.862479
0.965595
1.088977
1.027584
0.998974
1.037717
1.060963
1.111627
1.029968
1.071692
1.169443
1.250505
1.161695
1.258850
1.230836
1.343489
1.431704
1.406670
1.572967
1.490712
1.785755
1.890659
2.060533
2.390742
5.670786
18.960834
75.917840
164.404511
371.126533
579.753518
863.781571
1013.118029
1015.712619
1015.712619
961.431861
769.380927
478.382707
290.936828
129.535794
62.019825
19.705892
8.182526
5.442500
4.773736
4.679561
4.092455
3.916621
3.813505
4.044771
4.828572
6.772876
9.644628
15.640855
21.431446
29.786825
36.699772
43.776631
48.311949
50.058961
48.589706
43.084621
36.768913
28.160810
21.668673
14.512539
10.257959
6.664991
4.788637
3.596544
2.846718
2.641678
2.412796
2.293587
2.400875
2.058744
2.272725
##ZVALUE=370
0.592470
0.599623
0.708699
0.806451
0.701547
0.717640
0.707507
0.842810
0.697970
0.758767
0.715852
0.714660
0.773668
0.829697
0.666976
0.830889
0.732541
0.714660
0.757575
0.617504
0.712872
0.647902
0.836849
0.835657
0.694990
0.671744
0.836849
0.917912
0.896454
0.898838
0.806451
0.873804
0.874996
1.058578
0.724792
0.949502
0.908971
0.874996
0.813603
1.041889
0.909567
0.819564
0.913739
0.914931
0.903606
0.954866
0.939965
0.931621
0.754595
0.949502
0.993609
1.058578
1.212955
1.230836
1.110435
1.101494
1.315475
1.210570
1.422763
1.479983
1.396537
1.348853
1.499653
1.607537
1.681447
1.869798
3.106594
10.077953
51.404834
124.112964
290.623903
463.089943
728.999972
927.868485
1015.712619
1015.712619
1006.128788
838.741660
559.861660
364.421606
172.013640
88.396668
32.127500
12.658834
5.274415
4.683733
4.300475
3.983974
3.773570
3.434420
3.417730
3.407598
4.046559
5.510449
8.828640
12.089610
19.099712
25.246739
33.571720
39.469600
45.567751
47.194958
46.048760
42.653680
35.510659
29.178858
21.093488
14.493465
10.751486
7.302761
5.332828
3.551841
2.957582
2.617836
2.394915
2.072453
##ZVALUE=375
0.562668
0.724792
0.809431
0.803471
0.646710
0.724792
0.686646
0.708699
0.653863
0.721812
0.669956
0.761747
0.780821
0.813603
0.669956
0.591874
0.812411
0.621676
0.732541
0.817776
0.881553
0.721812
0.776649
0.876784
0.726581
0.651479
0.676513
0.749826
0.686646
0.698566
0.894666
0.938773
0.775456
0.753999
0.799894
0.719428
0.740886
0.869632
0.839829
0.791550
0.960827
0.931621
0.899434
0.870824
0.945926
0.832677
0.844598
0.869632
0.915527
1.039505
0.962615
0.966787
0.917912
0.979900
1.043677
1.007915
1.053810
1.194477
1.027584
1.151562
1.223683
1.258850
1.163483
1.349449
1.434684
1.489520
1.597404
1.906753
2.474785
5.445480
26.869774
72.911978
201.573968
353.544950
604.408979
809.418559
1015.712619
1015.712619
1015.712619
930.875540
663.819909
467.851758
258.379579
145.105720
55.834651
22.918582
6.951690
4.652739
4.169941
3.817677
3.585815
3.485680
3.191829
3.125668
3.060699
3.562570
4.902482
6.505847
10.279417
14.168620
21.688938
27.871728
36.539435
40.645599
44.526458
43.650866
40.726662
36.514997
29.339790
24.026632
16.817451
12.601614
8.014441
5.667806
3.700852
2.642870
##ZVALUE=380
0.612736
0.617504
0.788569
0.550747
0.612736
0.597835
0.628829
0.440478
0.665784
0.668764
0.562668
0.699759
0.619888
0.697970
0.770688
0.742674
0.852942
0.739694
0.849962
0.481606
0.588894
0.575781
0.666976
0.707507
0.723600
0.673532
0.715852
0.733733
0.712872
0.802875
0.656843
0.925660
0.714660
0.707507
0.644922
0.809431
0.699759
0.816584
0.903606
0.897646
0.750422
0.937581
0.737906
0.845790
0.897646
0.902414
1.000762
0.934601
0.877976
0.889897
0.911951
0.866652
0.897646
0.992417
1.067519
0.967979
1.012683
1.134872
1.060963
1.233816
1.000762
0.997782
1.169443
1.244545
1.283884
1.222491
1.295805
1.694560
1.684427
1.968741
2.283454
3.174543
15.340447
47.895908
146.840811
274.387002
534.662604
752.166510
994.313955
1015.712619
1015.712619
995.137691
775.465369
579.572916
338.984728
199.781656
81.802607
37.231445
10.280609
5.040765
3.916621
3.863573
3.764629
3.478527
3.280640
3.138781
3.014803
2.797842
3.292561
4.024506
5.899668
8.470416
13.409853
18.497705
26.143789
31.980872
38.470626
41.452646
41.250587
39.691925
36.198497
30.181408
25.081635
17.352700
12.853742
8.269548
##ZVALUE=385
0.632405
0.742674
0.794530
0.652671
0.632405
0.761747
0.640750
0.556707
0.566840
0.671744
0.655651
0.525713
0.668764
0.698566
0.732541
0.751615
0.502467
0.756979
0.691414
0.612736
0.581741
0.574589
0.703931
0.629425
0.741482
0.674725
0.755787
0.682473
0.740886
0.665784
0.667572
0.849962
0.770688
0.852942
0.747442
0.667572
0.794530
0.853539
0.846982
0.885725
0.931621
0.777841
0.924468
0.774860
0.905991
0.837445
0.764728
0.942945
0.937581
0.915527
0.855923
0.975728
0.854731
0.956655
0.984669
0.942945
0.908971
0.926852
0.971556
1.060963
1.046658
1.007915
1.030564
1.121759
1.006722
1.143813
1.218915
1.198649
1.532435
1.590848
1.681447
1.785755
2.020597
2.221465
6.861687
23.793578
88.831782
189.812779
404.257774
609.411597
883.626938
1012.777686
1015.712619
1015.712619
885.522962
700.902939
445.587635
282.864571
128.340721
62.857866
19.601583
7.303953
3.914833
3.842711
3.616810
3.404617
3.278852
3.340840
3.116727
2.910495
2.793670
2.869964
3.745556
4.680753
7.382631
10.487437
16.113520
22.861958
27.450919
32.153726
36.478639
38.461685
37.883520
35.241842
30.002594
23.227930
##ZVALUE=390
0.609756
0.583529
0.715852
0.717640
0.598431
0.659823
0.527501
0.763535
0.672936
0.578761
0.644922
0.742674
0.638962
0.721812
0.698566
0.597835
0.555515
0.619888
0.596642
0.579953
0.571609
0.751615
0.722408
0.769496
0.768900
0.588894
0.725985
1.016855
0.755787
0.778437
0.713468
0.788569
0.661612
0.737906
0.791550
0.714660
0.780821
0.823736
1.000762
0.811815
0.992417
1.002550
0.997782
0.978708
1.079440
0.845790
0.996590
0.913739
0.885725
0.981688
0.832677
0.791550
1.020432
0.853539
0.956655
1.071692
0.931621
1.041889
0.893474
1.090765
1.081824
0.985861
1.094937
1.154542
1.162887
1.127720
1.219511
1.470447
1.421571
1.543760
1.572967
1.704693
1.588464
1.690984
1.820922
1.968741
3.787875
15.565753
67.548752
146.711469
319.757462
505.136847
766.880512
937.480927
1015.712619
1015.712619
983.543992
823.808908
563.248992
373.531580
180.112720
92.665553
31.068921
11.858940
4.649758
3.852844
3.597736
3.786683
3.484488
3.619790
3.325939
3.083944
2.948642
2.897978
2.835989
3.356934
4.087687
6.514788
8.926988
13.190508
17.581582
23.853779
28.641820
33.792853
35.990477
36.826730
##ZVALUE=395
0.571609
0.539422
0.697970
0.705719
0.677705
0.676513
0.600815
0.484586
0.604987
0.660419
0.835657
0.635982
0.541806
0.643730
0.751615
0.617504
0.763535
0.753999
0.722408
0.464916
0.730753
0.661612
0.768900
0.515580
0.752807
0.690818
0.532866
0.724792
0.833869
0.724792
0.676513
0.669956
0.854731
0.882745
0.795722
0.865459
0.945926
0.813603
0.918508
0.926852
0.790954
0.796914
1.052618
0.918508
0.923872
0.975728
1.048446
0.963807
1.074672
1.046658
0.792742
1.009703
1.045465
1.029968
0.972748
0.919700
1.041889
1.127720
1.026988
1.056790
1.144409
0.971556
1.097918
1.106858
1.061559
1.122952
1.194477
1.391768
1.414418
1.543760
1.538992
1.697540
1.656413
1.621842
1.634955
1.685619
1.647472
1.941919
2.406836
7.591844
41.255951
99.616647
233.858824
389.578938
650.701523
851.603746
1015.712619
1015.712619
1015.712619
943.647027
691.103935
485.245585
256.487727
137.862563
50.827861
20.910501
6.418824
4.251599
3.802776
3.714561
3.806949
3.795624
3.498793
3.536940
3.212690
2.874732
2.577901
2.474785
2.910495
3.399849
5.064607
6.980896
10.856986
14.742613
21.361709
27.067661
##ZVALUE=400
0.685453
0.789762
0.705719
0.640750
0.634789
0.580549
0.643730
0.622869
0.631809
0.635982
0.764728
0.783801
0.702739
0.784993
0.651479
0.642538
0.607967
0.651479
0.516772
0.520945
0.547767
0.647902
0.609756
0.739694
0.820756
0.764728
0.714660
0.529885
0.673532
0.650883
0.806451
0.935793
0.796914
0.773668
0.731945
0.869632
0.784993
0.750422
0.964999
0.908971
0.957847
0.880957
1.117587
1.099706
0.960827
0.887513
0.964999
1.080632
0.976920
0.927448
1.208782
0.962615
0.965595
0.901818
0.984669
0.966787
1.130700
1.039505
1.090765
1.218915
1.037717
1.165867
0.906587
1.015663
1.051426
1.174808
1.201630
1.263618
1.426935
1.268983
1.428723
1.489520
1.549721
1.438856
1.508594
1.457930
1.398921
1.540780
1.640916
1.949668
2.203584
3.957748
20.378828
56.758523
159.853697
289.583802
530.942678
727.210641
966.762900
1015.712619
1015.712619
971.858501
743.746758
551.321507
329.592824
195.612907
84.029436
37.914515
10.663867
4.917979
3.887415
3.585815
3.824830
3.599524
3.796816
3.430843
3.486872
3.316998
3.069639
2.604723
2.573729
2.631545
3.002882
4.340410
6.134510
9.527802
##END
