##TITLE=3-2
##FORMAT=SPECTACLE-ASCII V-1.2
##DATA TYPE=ULTRAVIOLET SPECTRUM
##SECOND TYPE=ULTRAVIOLET SPECTRUM
##DATE=04/11/18
##TIME=14:26:43
##SPECTROMETER/DATA SYSTEM=SPECTACLE
##XUNITS=NM EM
##YUNITS=ENERGY
##YFACTOR=1
##FIRSTX=220
##LASTX=450
##NPOINTS=116
##3DDATA=Equidistant
##ZUNITS=NM EX
##FIRSTZ=210
##LASTZ=400
##ZPOINTS=39
##XYDATA=(Y..Y)
##ZVALUE=210
17.561913
15.175939
13.917685
11.220574
11.045933
11.537671
10.237694
8.365512
7.491708
6.060600
4.997849
4.048944
3.429651
3.376603
3.389716
3.377795
3.521442
3.766418
3.403425
3.827810
3.731847
3.950596
4.066825
4.930496
4.723668
4.354715
4.676580
5.539656
5.694628
5.619526
5.723834
5.664825
6.101727
6.523728
6.119609
6.989837
6.662607
7.151961
6.971955
6.940961
6.581545
7.122755
7.107854
8.590817
9.182692
7.480979
8.682609
8.566976
8.256435
9.155869
9.262562
10.430813
8.692741
9.661913
8.653998
8.816719
9.662509
9.068847
9.637475
10.048747
9.316802
8.370876
9.145737
8.920431
9.252429
9.342432
8.630753
9.376407
10.007620
10.229945
12.818575
15.153885
14.933944
16.428828
16.479492
16.900897
17.494559
17.538667
16.541481
15.104413
14.672875
14.026761
12.685657
11.081696
9.067655
8.960962
8.200407
7.989407
7.372499
9.020567
10.767579
13.533831
18.875599
21.657944
26.679635
31.665564
38.156509
45.244694
44.941902
54.817796
55.138469
58.892965
60.548782
56.685805
55.189729
51.934719
50.237775
42.930841
40.719509
35.105944
27.988553
24.151802
19.816756
15.181899
14.106631
13.784766
##ZVALUE=215
42.264462
43.488741
34.814477
27.528405
23.917556
19.450784
16.237497
16.721487
17.497540
13.751984
13.360977
10.417700
8.345842
6.070733
5.148649
3.457665
4.197955
3.953576
3.477931
3.725886
3.653765
3.844500
4.586577
4.587770
4.745722
4.856586
5.109906
4.953742
5.016923
5.476475
5.226731
6.023645
7.033944
6.961823
6.705523
7.295609
7.421970
8.243918
7.533431
8.439422
8.285642
7.734895
8.739829
9.698868
9.623766
8.562803
9.750724
9.832978
9.221435
8.761883
10.342598
10.898709
10.903478
11.775494
10.212660
10.764599
10.736585
10.987520
12.124777
12.533665
11.649728
11.478662
11.708736
10.407567
10.549426
9.981990
10.338426
10.907650
12.030602
11.388659
13.468862
13.678670
14.585853
15.804768
16.615987
16.489625
15.972853
17.452836
14.676452
14.404655
14.684796
12.958646
10.843873
8.983612
10.444522
8.505583
7.513762
7.220507
6.641746
6.572604
6.340742
6.743670
7.145405
8.506775
10.409951
12.172461
16.046762
20.945668
31.523705
35.047531
46.381950
56.231618
65.252781
73.601604
77.659488
83.608627
85.947514
82.996488
84.799528
79.660416
78.650713
70.644617
63.771605
57.570934
47.512650
36.458969
##ZVALUE=220
95.025897
93.173981
92.776418
82.434416
72.748661
53.211451
39.705634
31.702518
24.041533
24.946928
25.367737
24.484992
21.010637
17.908812
16.571879
11.257529
9.085536
5.404949
4.873872
3.841519
3.730655
4.031658
4.378557
4.637837
4.832745
5.289912
3.926754
5.732775
5.626678
5.495548
6.318688
6.671548
6.424785
8.640885
7.374883
8.447766
8.522868
8.423924
8.472800
9.012818
10.526776
9.461641
10.266900
9.722710
11.278987
11.502504
11.885762
10.002851
13.004541
12.127757
13.340712
13.153553
13.682842
14.936924
14.563799
15.058517
15.952587
15.451908
15.325546
15.749931
15.807748
15.028715
13.751984
14.016628
14.915466
13.099909
14.582872
13.411641
13.606548
14.833808
13.775826
16.117692
15.129447
17.602444
17.117858
16.059875
16.780496
17.239451
17.091632
14.266968
14.921427
12.655854
12.583733
11.328459
10.446906
9.403825
8.046627
8.575916
8.663535
7.382631
7.304549
7.720590
7.420778
7.545948
7.145405
7.367730
7.164478
7.926822
9.050965
10.015965
15.410781
20.910501
29.361844
39.813519
49.581528
62.592626
77.075958
94.322562
104.044676
121.003985
125.292540
130.262971
131.718516
130.939484
124.312639
123.460889
##ZVALUE=225
123.448968
121.235847
145.489573
160.493851
160.758495
140.604973
122.398734
93.557835
72.226524
48.696995
43.456554
39.830804
37.987828
38.052797
37.260652
31.610727
28.413534
21.430850
15.096664
10.403991
8.272529
5.748868
4.976988
5.147457
6.042719
4.998446
5.357862
5.658865
6.468892
5.717874
6.683469
6.552935
7.013679
7.799864
7.394552
8.252859
9.706616
10.748506
11.805892
10.362864
10.436773
12.531877
10.537505
12.086630
11.678934
12.921691
13.476610
14.036894
14.601946
14.756918
16.984940
15.935898
16.459823
19.043684
17.550588
17.918944
19.734502
18.046498
17.872453
18.395782
19.086599
18.298626
18.815994
18.095970
17.226934
17.226934
18.124580
16.615987
18.876791
17.758608
18.247962
17.806888
18.791556
18.698573
19.763708
19.151568
19.040704
17.837882
16.428828
15.919805
16.315579
14.106631
12.799501
12.326837
11.739731
10.627508
9.657741
10.410547
8.770823
9.854436
8.737445
8.626580
7.708669
8.375645
7.651448
8.395910
8.067489
7.607937
8.137822
7.487535
7.954836
7.887483
8.634925
10.466576
12.066960
21.147728
28.171539
40.125847
54.346919
72.636604
89.602470
112.250447
133.571625
154.716969
173.512697
190.097690
##ZVALUE=230
83.992481
89.340806
138.924718
187.083483
222.813487
263.245702
267.448425
253.844857
216.979980
161.383748
123.549700
80.358982
67.301989
56.344867
59.094429
63.493848
61.135888
56.274533
51.487684
38.705468
29.387474
22.555590
13.152957
9.433627
6.402731
6.202459
6.021857
6.276965
7.771850
6.158948
7.122755
7.245541
6.951690
8.041859
8.107424
10.956526
9.566545
10.250807
10.682940
10.470748
10.714531
13.219714
12.717843
13.254881
13.320446
13.483763
15.010834
14.818907
15.020967
15.761852
16.557574
19.225478
18.382668
19.135475
20.922422
19.125938
19.972920
20.087957
19.821525
20.297766
18.992424
19.699931
20.908713
19.364953
19.041896
18.591881
20.069480
18.535852
18.966794
18.112659
20.899773
20.595789
20.677447
20.950437
22.159815
21.275878
21.447539
21.057725
18.493533
19.000769
17.747879
15.892982
14.392734
15.383959
14.439821
13.316870
10.931492
11.332631
11.151433
12.079477
10.967851
10.986924
9.239912
9.846687
9.961724
9.462833
9.465814
9.376407
9.685755
10.294914
8.884668
8.974671
8.853674
8.562803
9.031892
9.647608
9.608865
10.711551
12.410879
17.040968
23.623705
37.753582
51.284432
77.901483
99.246502
136.722922
##ZVALUE=235
22.828579
26.617646
65.168738
112.426877
172.933936
259.963870
328.157544
416.528583
435.722470
417.306423
377.509594
285.578966
212.891698
138.863921
103.606582
80.516934
80.572963
85.285902
88.091493
88.783503
80.912709
65.682530
51.899552
34.649968
23.336411
16.308427
10.388494
8.817911
7.101893
7.517934
8.782744
8.039474
7.990599
9.239912
9.162426
9.259582
9.705424
10.712743
10.355711
10.972619
12.654662
12.326837
12.353659
13.467669
13.316870
13.534427
14.085770
14.055967
14.922619
15.126467
14.949441
16.993880
17.369986
16.603470
18.527508
17.551780
19.247532
18.287897
18.758774
19.195676
19.783974
20.720959
19.524693
21.885633
19.638538
19.784570
19.047856
19.972920
21.242499
21.194816
22.119880
21.855831
22.144914
23.847818
24.407506
23.102760
22.094846
23.327470
20.987988
20.753741
19.815564
18.738508
19.404888
16.941428
15.866756
16.636848
15.104413
13.667941
14.609694
14.634728
13.050437
12.424588
12.986660
14.519691
13.891459
12.625456
11.549592
11.051893
12.204647
12.144446
12.360811
11.949539
11.215806
12.042522
10.882616
10.986924
10.292530
11.505485
10.427833
10.813475
11.000633
11.160970
12.242794
13.372898
19.136667
30.145645
##ZVALUE=240
2.764463
3.861785
10.436773
25.064945
57.701468
127.064586
211.041570
356.586576
464.235544
577.523708
641.346574
633.571744
563.516617
449.935794
342.359543
218.933821
155.989528
112.311840
99.152923
108.341575
114.669800
119.767785
117.542744
104.947686
84.339976
68.469644
49.171448
33.155680
21.873713
14.977455
10.351539
10.342598
8.870959
9.540915
10.551810
10.743737
10.221601
11.327863
10.963678
12.080669
12.322664
13.482571
13.542771
14.197826
14.212728
13.818741
15.911460
14.359951
15.325546
15.457869
16.209483
16.501546
16.988516
17.239451
17.374754
15.722513
17.346740
17.124414
18.726587
17.178655
17.313957
18.036962
17.978549
17.439723
18.461943
18.410683
19.569993
18.481612
20.572543
20.114779
23.545623
22.281408
24.439692
25.960803
27.134418
24.280548
24.951696
25.191903
22.595525
23.563504
22.019744
20.567775
20.745993
19.966960
18.844604
17.640591
16.498566
16.499758
15.509725
15.921593
15.080571
14.544725
14.296770
13.635755
15.057921
13.019443
13.375878
13.923645
13.705492
12.533665
13.859868
13.218522
12.812614
12.940764
14.178753
11.592507
12.418628
12.976527
11.980534
11.892915
12.562871
11.212826
11.837482
11.497736
11.323690
11.611581
##ZVALUE=245
2.207756
2.599955
2.422929
2.564788
4.775524
17.682910
42.309761
114.701986
195.857882
342.939496
477.345586
638.563633
731.437802
750.022531
721.419454
593.284965
471.101999
314.593911
222.101808
134.922862
106.723905
99.159479
118.341446
127.018690
131.735802
124.667883
116.313696
97.739697
73.755980
55.394769
35.504699
23.834705
15.803576
11.799932
9.928942
9.496808
10.018945
9.446740
10.529757
10.686517
11.244416
11.096597
11.025667
11.236668
12.236834
12.180805
12.726784
11.873841
13.697743
13.375878
13.967752
13.845563
14.343858
13.926625
13.443828
13.969541
14.199615
15.043616
15.048981
14.287829
14.729500
14.625788
13.995767
15.308857
15.384555
15.436411
14.870763
16.190410
16.478896
17.276406
17.324686
19.168854
19.118786
20.010471
21.221638
20.842552
20.511746
20.539761
19.440651
19.488931
17.409921
16.978979
16.275644
16.085505
15.097857
15.491843
14.627576
13.600588
13.659596
12.485981
12.183785
13.321638
11.276603
12.074709
10.800958
12.014508
11.167526
10.956526
10.977983
11.430979
10.722876
11.557937
10.536909
10.670424
10.509491
10.913610
11.240840
10.206699
10.617971
11.027455
9.109974
10.717511
10.355711
9.698868
10.232925
9.950995
##ZVALUE=250
2.306700
2.042651
2.094507
2.062917
2.506971
2.291799
3.519654
8.749962
39.017797
81.251860
187.948942
306.090713
446.673632
632.069707
755.842924
839.820504
821.038485
742.083788
622.096658
426.130891
288.873911
194.024444
118.313432
98.152757
106.428862
122.546554
137.619972
141.839981
132.778883
123.353004
106.168985
80.927610
59.388876
36.611557
25.323629
15.945435
11.291504
10.414720
10.177493
9.520650
11.770725
11.757612
11.524558
11.730790
12.034774
11.595488
12.630820
11.898875
13.321638
12.166500
13.800859
13.808608
13.710856
14.384985
13.303757
13.693571
13.506413
13.294816
13.504624
13.612509
12.889504
13.718605
13.201833
12.767911
12.206435
12.627840
12.795925
13.302565
13.889670
13.232827
15.548468
14.735460
14.731884
14.810562
15.328526
15.436411
15.899539
14.751554
14.522672
15.028715
13.918877
12.669563
13.497472
13.022423
10.241866
10.630488
9.883642
9.822845
9.333491
8.815527
9.644628
8.889437
9.156466
9.025931
8.370876
8.366704
9.016991
9.065866
8.815527
9.024739
8.065701
8.215904
8.078814
8.216500
8.437634
9.225607
8.517504
9.051561
8.686781
8.605719
9.077787
8.692741
8.513927
8.656979
8.617640
8.551478
##ZVALUE=255
2.039671
2.039671
1.831651
1.807809
1.946688
2.194643
1.813769
2.108812
2.157688
5.839467
19.480586
66.551566
129.374862
268.958807
403.870940
627.110004
768.193007
908.387899
951.136947
876.460671
770.599842
558.591485
398.441553
223.751664
143.169761
95.883608
91.187954
102.254748
123.679638
141.038895
149.763823
145.531893
128.208995
111.511946
81.067681
61.290860
37.776828
25.722980
16.647577
12.854934
11.528730
11.390448
11.235476
12.167692
12.635589
12.955666
12.634993
12.608767
13.133883
13.967752
12.705922
13.990998
13.384819
14.906526
14.804602
14.151931
13.502836
14.366508
12.521744
12.574792
12.128949
12.055635
12.781620
13.277531
12.100935
11.859536
11.467934
11.986494
12.623668
12.415648
12.153983
13.118982
13.878942
13.194680
12.647510
13.035536
12.466908
12.655854
12.010932
12.660623
10.278821
10.235906
9.092689
8.966923
8.782744
8.140802
7.418990
7.799864
7.200837
8.071661
7.553697
7.526875
7.764697
6.916523
7.548928
7.421970
6.881952
5.577803
7.038713
7.040501
7.071495
7.135868
6.174445
6.711483
6.713867
6.964803
7.482767
7.654428
7.523894
6.953478
6.972551
6.648898
7.480979
7.106662
7.078648
6.519556
##ZVALUE=260
1.885891
1.562834
1.838803
1.867414
2.093911
1.919866
2.033710
1.648664
1.997948
2.673864
2.349615
3.813505
10.357499
41.585565
90.214610
212.637782
344.257951
563.688874
741.626024
940.982699
1015.712023
1012.795568
923.960805
707.433820
527.569652
311.583877
205.485821
112.739801
85.975528
82.987547
105.394721
127.656460
148.695707
158.313513
152.353644
138.649940
114.667416
90.902448
62.472820
43.656826
31.537414
20.760894
15.891790
13.970733
13.794899
13.847947
14.400482
14.820695
15.574694
15.133619
15.399456
16.088486
15.299916
15.396476
16.301870
15.973449
15.476942
15.288591
14.727712
14.734864
13.994575
13.477802
13.183951
13.526678
13.008714
13.295412
12.665987
12.909770
12.440681
12.038946
12.424588
12.714863
12.700558
12.586713
12.881756
11.817813
12.085438
11.366606
10.642409
10.628700
9.809732
9.701848
8.636713
8.005500
8.010864
7.593632
7.378459
7.422566
7.238984
7.150769
6.463528
5.534887
6.393790
6.292462
6.531477
6.217957
5.821586
6.199479
6.268620
6.178617
5.770922
5.911589
6.062984
6.022453
6.072521
6.259680
6.079674
5.966425
6.184578
6.193519
6.152987
6.363988
5.838871
6.141663
5.732775
5.331635
##ZVALUE=265
1.642704
1.741648
1.380444
1.533628
1.774430
1.666546
1.801848
1.487732
1.799464
2.067685
2.119541
1.935959
2.381802
2.567768
5.596876
27.137995
65.829754
160.753727
285.313725
528.082848
731.183887
961.116552
1015.712023
1015.712023
1015.712023
863.365531
680.134892
428.049564
277.636647
167.247653
90.352893
74.113607
86.761713
108.800530
138.163567
156.658888
162.727833
159.043670
135.411620
117.780566
95.800757
67.787766
49.198866
31.946898
23.782849
18.679500
17.593503
16.880631
17.062426
17.347932
17.851591
18.706918
18.184781
17.883778
18.276572
18.448830
17.524958
17.405748
17.501712
16.941428
15.706420
16.097426
15.186667
15.161633
14.598966
13.839602
14.061928
13.785958
13.326406
13.959408
13.519526
13.009906
13.157725
12.919903
12.841821
12.214780
11.647940
11.077523
10.184646
10.629892
9.061694
9.194613
8.394718
8.241534
8.206964
7.529855
6.923676
7.390976
7.290840
6.808639
6.490946
6.939769
6.726980
6.451607
5.595684
5.993843
6.393790
5.943775
5.998611
5.666614
5.818605
6.101727
6.015897
5.323887
5.761981
5.858541
5.718470
5.820990
5.896688
5.614758
5.706549
5.933642
5.045533
5.317926
5.475879
5.244613
##ZVALUE=270
1.510978
1.380444
1.527667
1.601577
1.552701
1.374483
1.622438
1.213551
1.564622
1.534820
1.820922
1.959801
1.975894
1.910925
2.418756
2.142787
3.056526
12.277961
37.992597
118.522644
226.068497
444.314480
659.775734
943.623781
1015.712619
1015.712619
1015.712619
1015.619636
852.234960
640.811920
382.303596
242.372751
117.055774
74.334741
68.971515
86.201429
116.665959
142.048001
164.182782
167.682767
161.061883
149.102807
124.692917
101.696849
71.566701
52.601695
37.139654
29.544830
22.657514
20.906925
20.396709
20.316839
20.218492
20.716786
20.714998
20.452738
20.814538
19.639730
19.140840
19.562840
18.441677
18.723607
18.136501
16.813874
17.034411
16.291738
15.889406
15.645623
14.717579
14.114976
14.198422
14.398694
14.519691
13.507605
13.446808
13.074875
12.108684
12.218952
10.831952
10.187626
10.406971
9.422898
8.941889
8.549690
8.405447
8.157492
8.274913
7.607937
8.266568
7.022619
7.455945
6.611943
6.443858
6.580949
6.118417
6.254911
5.717874
5.382895
5.968809
6.043911
5.572438
5.874634
5.648732
5.610585
5.848408
5.514622
5.971789
5.710721
5.615950
5.525947
5.794764
5.330443
5.066991
4.767776
5.273819
4.733801
##ZVALUE=275
1.274943
1.255870
1.490712
1.562834
1.459718
1.411438
1.501441
1.472831
1.435876
1.373887
1.617670
1.787543
2.026558
1.723766
1.633763
2.027750
1.953840
2.238750
2.585649
6.802678
22.428632
80.744624
172.264576
370.596647
576.490760
866.822600
1015.712619
1015.712619
1015.712619
1015.712619
993.776917
799.915791
515.052676
322.137475
153.923631
88.262558
57.617426
64.342618
93.809962
115.975738
146.225691
159.427524
170.190930
164.703727
148.553848
128.014684
99.322796
77.383518
53.831935
40.700436
30.683875
26.124716
22.793412
22.024512
21.695495
21.090508
21.723509
21.352768
20.947456
20.642877
20.265579
19.967556
18.894672
18.650889
17.420650
17.134547
16.626716
16.487837
16.050935
15.393496
15.154481
15.076995
15.335679
14.525652
14.496446
13.431907
12.726784
12.487769
11.924505
11.583567
10.653734
10.248423
10.495782
9.320974
9.237528
8.332729
8.290410
7.885695
7.844567
7.477999
7.739663
7.205606
6.469488
6.805658
6.900430
6.078482
6.785989
6.144643
6.212592
6.261468
6.328821
5.759597
5.978942
5.967617
5.850792
5.897880
5.943775
5.789995
5.843639
5.697608
5.469918
5.510449
5.143881
5.341768
5.064607
5.259514
##ZVALUE=280
1.368523
1.252890
1.229644
1.284480
1.399517
1.352429
1.435876
1.249909
1.409650
1.438856
1.408458
1.387596
1.536608
1.350641
1.352429
1.659989
1.875758
1.880527
1.862645
2.159476
2.471805
3.401637
13.047457
56.693554
130.026937
290.519595
462.158918
669.666529
962.806940
1015.712619
1015.712619
1015.712619
1015.712619
918.666720
613.046885
408.686996
210.011601
116.148591
57.804585
50.395727
67.538619
88.004470
118.397474
138.749480
160.628557
168.078542
162.057877
145.576596
123.531818
101.087689
72.831511
54.820776
38.352609
30.947924
24.485588
22.325516
20.754933
20.879507
20.273924
19.309521
19.594431
18.697977
18.430948
17.893910
17.616749
17.419457
16.615987
16.692877
16.130805
16.091466
15.138984
15.212893
14.615655
14.120936
13.596416
13.590455
13.015866
12.903810
10.720491
11.136532
11.302829
10.434985
10.212660
9.871721
9.472966
9.122491
8.250475
8.352995
7.996559
7.892847
7.622838
7.140636
7.345676
7.390976
6.774664
6.911755
6.581545
7.158518
6.368756
6.379485
6.237626
6.237626
6.180406
5.883574
6.449819
5.750656
6.035566
5.542636
5.801916
5.952716
5.474687
5.402565
5.466938
5.556941
4.902482
4.996657
##ZVALUE=285
1.114607
1.116991
1.041889
1.154542
1.161695
1.100898
1.207590
1.161695
1.041889
1.449585
1.568794
1.457930
1.481771
1.277924
1.373887
1.576543
1.332760
1.674891
1.709461
1.746416
1.946688
2.008677
2.087951
2.683997
5.718470
30.058622
73.282719
153.518915
338.737965
538.171530
837.858915
1015.712619
1015.712619
1015.712619
1015.712619
1015.712619
787.668824
549.307466
290.769935
169.109702
74.820518
45.265555
43.991804
57.668686
85.885525
107.281804
136.307478
151.431561
161.523819
159.359574
141.687989
123.901963
95.803738
74.200630
51.978827
37.974715
27.340651
21.887422
19.031763
17.872453
17.643571
17.592907
16.127825
16.200542
15.861988
15.614629
15.207529
15.207529
14.681816
15.063882
14.414787
13.932586
14.221668
13.584495
13.335943
12.722611
12.363791
12.426972
11.455417
11.101961
10.186434
10.629892
9.734631
9.967685
9.475946
9.453893
8.773804
8.916855
8.584857
7.910728
8.129478
7.510781
7.975698
7.681847
7.423759
7.147789
7.268786
7.148981
6.626844
6.427765
6.581545
6.270409
6.563663
6.907582
6.182790
6.366968
6.083846
6.079674
5.898476
5.861521
6.017685
5.832911
5.523562
5.431771
5.277991
5.298853
##ZVALUE=290
1.092553
1.015663
1.149774
1.212955
1.232624
1.069903
1.012683
1.262426
1.265407
1.152754
1.051426
1.352429
1.260638
1.245737
1.187921
1.302958
1.436472
1.443624
1.307726
1.640916
1.577735
1.637936
1.949668
1.756549
2.334714
2.435446
3.015995
8.480549
40.693879
98.200440
239.216685
408.563614
700.752735
959.371924
1015.712619
1015.712619
1015.712619
1015.712619
945.412517
708.827972
414.349437
241.368413
105.640888
52.069426
30.719638
36.528707
55.372715
74.539781
103.883743
124.907494
146.907568
154.443979
151.678920
140.198469
117.962956
94.327927
65.950751
49.529672
33.079982
25.069714
18.215775
15.579462
13.879538
13.213754
12.657642
13.135672
12.427568
12.396574
13.012886
12.458563
13.041496
12.292862
12.897849
12.383461
11.982918
11.946559
10.735989
11.445880
11.049509
10.069609
9.924769
10.295510
9.053946
9.430647
9.144545
8.983612
8.697510
8.461475
8.296967
8.492470
7.752776
7.893443
7.474422
7.138848
7.213950
7.588863
7.142425
7.354617
6.776452
6.791949
6.718636
6.787777
7.001758
6.724596
6.543994
6.851554
6.520748
6.550550
6.431937
6.405711
6.282926
6.252527
5.889535
6.069541
5.410910
5.446672
##ZVALUE=295
1.134872
1.122952
1.059771
1.131892
0.922680
1.111627
1.235604
1.047850
1.113415
1.231432
1.067519
1.192689
1.083612
1.332760
1.182556
1.072884
1.205802
1.205802
1.238585
1.366735
1.343489
1.520514
1.556873
1.652837
1.825690
1.803637
2.195835
2.159476
2.537966
4.183650
21.321774
60.467720
169.845819
321.395993
601.115823
842.602849
1015.712023
1015.712023
1015.712023
1015.712023
1015.712023
840.702653
526.176691
322.783589
144.449472
69.660544
30.142665
24.095774
34.658909
49.003959
73.541999
92.020631
119.532943
134.412646
143.907666
142.809749
126.179457
109.896660
84.364414
65.840483
43.463707
30.821562
19.981861
14.911890
11.967421
10.816455
10.121465
10.427833
10.311604
10.170937
10.573864
10.574460
10.706782
10.721684
9.929538
10.005832
10.407567
9.932518
9.561777
9.121895
8.747578
8.712411
8.504987
8.509755
8.506775
8.467436
8.502603
8.077621
7.966757
7.365942
7.328987
7.563829
7.107854
7.261634
6.933808
7.426739
6.722808
6.724000
6.905794
6.965995
7.303953
7.022619
7.036924
6.529689
6.842613
6.608963
6.428957
6.394982
6.329417
6.324649
6.257892
6.181598
5.610585
6.150603
5.757809
5.907416
##ZVALUE=300
1.043677
1.038909
1.227856
0.974536
1.115799
1.079440
0.999570
0.933409
0.918508
1.008511
1.014471
1.119971
1.130700
1.133680
1.182556
1.138449
1.229644
1.130700
1.296997
1.111627
1.179576
1.417994
1.366735
1.236796
1.847744
1.691580
1.782775
1.946688
1.897812
2.074838
2.142787
2.853870
10.250807
34.107566
114.977956
226.694942
464.852452
702.841878
1004.588008
1015.712023
1015.712023
1015.712023
1015.712023
988.436937
659.465790
426.603556
209.527612
111.174583
42.058825
22.348762
20.405650
28.394461
45.065880
60.735941
86.692572
105.667710
125.772953
134.437680
131.181479
123.399496
103.361607
84.980726
60.343742
44.877529
27.571917
19.795895
12.737513
10.152459
9.236932
8.868575
8.596778
8.509755
8.705854
8.919835
8.931756
9.055734
8.466840
8.774996
8.208752
8.463860
8.206964
8.323789
7.761717
7.755756
7.875562
7.479787
7.500648
7.329583
7.387996
7.164478
6.740689
6.728768
6.794930
6.883740
6.564856
6.669760
6.635785
6.472468
6.561875
6.455779
6.462932
6.311536
6.538630
6.213784
6.519556
6.391406
6.438494
6.466508
5.987883
6.098747
5.865693
5.835891
6.050467
5.943775
5.263686
5.342960
##ZVALUE=305
0.806451
0.910759
0.885725
0.998974
1.008511
0.913739
0.943542
0.892878
0.960827
1.095533
0.942945
0.929832
1.132488
1.115799
1.006722
0.950694
1.196861
1.149774
1.143813
1.239777
1.303554
1.201630
1.288652
1.307726
1.623631
1.549721
1.428723
1.428723
1.625419
1.791716
1.886487
1.905560
2.279878
2.302527
5.403757
18.375516
74.672699
162.733793
365.351439
584.439635
835.194588
1015.712619
1015.712619
1015.712619
1015.712619
1007.185578
803.795457
510.239601
308.469534
167.766809
63.706636
28.912425
15.042424
17.930865
27.432442
39.186478
60.702562
77.984929
103.217959
116.195679
125.418901
125.305653
114.704967
100.622773
77.361465
58.266521
39.441586
27.401447
16.605854
12.061000
8.910894
8.339882
7.759929
7.686615
7.505417
7.567406
7.136464
7.408857
7.218719
7.207990
7.358789
7.040501
7.104874
6.977916
6.748438
7.214546
6.813407
6.809831
6.607771
6.308556
6.728768
6.286502
6.002784
6.127954
6.153584
6.116629
6.010532
6.103516
6.083846
6.214976
6.096959
5.892515
5.906820
6.037951
5.788803
6.002784
5.892515
5.867481
6.058812
5.564690
5.944967
5.719662
5.615950
5.446672
5.413890
5.362630
##ZVALUE=310
0.899434
0.908971
0.975728
0.891685
1.154542
0.963807
0.974536
0.902414
0.972748
0.972748
0.929832
0.915527
1.040697
0.880957
0.985861
1.141429
0.954866
1.094937
1.106858
1.136661
1.250505
1.218915
1.171827
1.297593
1.258850
1.316667
1.556873
1.511574
1.455545
1.425743
1.533628
1.651645
1.627803
1.946688
2.086759
2.098680
2.854466
8.081794
40.499568
97.196698
240.299702
418.828726
723.733902
975.827575
1015.712023
1015.712023
1015.712023
1015.712023
937.138796
688.560605
390.551686
231.048465
96.389651
44.245720
16.372800
12.022853
16.046762
22.371411
35.679936
50.319433
72.920918
90.901852
109.053850
118.138790
118.686557
111.787915
95.139742
78.497529
54.866672
39.563775
24.950504
17.477870
11.657476
8.819699
7.405877
7.123947
6.596446
6.335974
6.201863
5.961657
5.847812
6.145835
6.343722
6.139874
5.986691
6.309748
6.002784
6.242990
5.961657
5.857944
5.558729
5.840659
5.889535
5.309582
5.315542
5.505681
5.363822
5.530715
5.361438
5.319715
5.190969
5.524755
5.593896
5.432963
5.450845
5.311966
5.314946
5.291700
5.315542
5.191565
5.196929
5.283952
5.174875
5.135536
5.168915
4.945993
##ZVALUE=315
0.874996
0.949502
0.886917
0.833869
0.971556
0.724792
0.875592
0.890493
0.941753
0.817776
1.005530
0.842810
1.011491
1.009703
0.885725
1.053810
1.059771
1.030564
0.918508
1.161695
1.111627
1.170635
1.034737
1.080632
1.139641
1.230836
1.107454
1.206994
1.368523
1.392961
1.280904
1.500845
1.533628
1.543760
1.726747
1.795888
2.051592
2.003908
2.390742
4.017949
20.149946
58.186650
170.005560
311.729908
597.016811
846.055746
1015.712023
1015.712023
1015.712023
1015.712023
1015.712023
823.527575
505.031943
313.750505
143.984556
67.849755
20.772815
11.404753
11.218786
13.443828
21.461844
31.166673
48.528910
64.440966
86.260438
99.633932
109.936595
111.916661
102.861524
89.936852
69.682002
54.670572
37.065744
25.752783
15.632510
11.030436
7.436872
6.522536
5.947948
5.622506
5.410910
5.409718
5.120635
5.322695
5.381703
5.311966
5.249977
5.253553
5.066991
4.937649
4.988909
4.916787
4.848838
5.225539
5.024672
5.123615
4.824996
4.939437
5.057454
4.893541
5.113482
4.884601
4.804730
4.562736
4.958510
4.616976
4.843473
4.925728
4.815459
4.769564
4.793406
4.554987
4.714727
4.564524
4.469752
4.405975
##ZVALUE=320
0.868440
0.830889
0.833869
0.772476
0.769496
0.994802
0.845790
0.850558
0.961423
0.912547
0.836849
0.857711
0.840425
1.011491
0.909567
1.088977
1.008511
0.904799
0.908971
1.023412
1.019835
0.955462
1.100898
0.965595
1.031756
1.157522
1.352429
1.301765
1.123548
1.258850
1.196861
1.431704
1.228452
1.450777
1.511574
1.480579
1.520514
1.837611
1.895428
1.889467
2.119541
2.638698
9.619594
32.400489
113.225579
224.157572
455.737710
684.700012
994.979739
1015.712619
1015.712619
1015.712619
1015.712619
964.995027
640.735626
408.333540
188.143849
96.803904
35.068989
15.654564
9.059906
9.904504
13.001561
17.548800
29.263496
41.809678
60.613751
76.308846
95.386505
102.557540
105.251670
99.239945
85.951686
70.680976
50.451756
36.703944
21.753907
14.668703
9.075999
6.684661
5.293489
5.140901
4.836917
4.605651
4.413724
4.550815
4.441738
4.505515
4.373789
4.477501
4.414916
4.396439
4.493594
4.249811
4.301667
4.537702
4.598498
4.662871
4.406571
4.197955
4.618764
4.257560
4.421473
4.334450
4.324913
4.177690
4.144907
4.227757
4.238486
4.342794
4.311800
4.051924
4.121661
4.007816
3.811717
3.807545
##ZVALUE=325
0.843406
0.691414
0.844598
0.820756
0.948906
0.824928
0.787973
0.755787
0.775456
0.752807
0.779629
0.864863
0.784993
0.883937
0.902414
0.803471
0.988841
1.188517
0.870824
0.909567
1.083612
0.984669
0.902414
0.863671
1.102686
1.110435
1.095533
1.068711
1.048446
0.973940
1.330972
1.152754
1.325607
1.325607
1.402497
1.356602
1.352429
1.464486
1.598597
1.542568
1.743436
1.799464
2.158880
2.423525
5.512834
19.158721
74.128509
158.743858
357.946754
570.450425
889.715552
1015.712619
1015.712619
1015.712619
1015.712619
1009.612679
707.624555
484.702587
252.986550
139.429569
52.114725
21.407604
9.102821
8.088946
8.920431
11.177659
17.630458
26.252866
42.921901
58.031678
77.628493
88.735819
98.684430
98.741651
90.808868
81.464648
62.765479
47.499537
30.801892
21.105409
12.389421
8.853674
6.211996
5.148649
4.594922
4.221797
4.215837
4.072785
4.044771
4.027486
3.966689
3.974438
3.827810
3.834963
3.939867
3.968477
3.807545
3.920794
3.845692
3.859997
4.043579
3.981590
3.890991
3.926754
3.962517
3.938675
3.825426
3.840923
3.628731
3.748536
3.689528
3.647804
3.793836
3.670454
3.582835
3.498793
##ZVALUE=330
0.737906
0.825524
0.859499
0.778437
0.925660
0.684857
0.800490
0.840425
0.769496
0.882745
0.897646
0.904799
0.916719
0.699759
0.914931
0.752807
0.934601
0.783801
0.850558
1.006722
0.890493
0.918508
0.966787
1.023412
0.915527
0.941753
0.944734
1.005530
0.917912
1.027584
1.206994
1.025796
1.317859
1.212955
1.264811
1.224875
1.350641
1.437664
1.447797
1.265407
1.522899
1.853704
1.722574
1.865625
1.814961
2.324581
2.683997
11.514425
37.175417
118.907690
230.310559
468.753576
699.460506
996.828675
1015.712619
1015.712619
1015.712619
1015.712619
873.488784
565.066934
354.412794
160.948634
80.405474
28.459430
12.188554
7.480979
7.417798
8.167624
10.565519
17.303824
24.776459
39.394498
52.332878
70.742965
82.366467
90.953708
91.727972
83.882809
73.552728
56.956410
43.433905
28.938651
20.253658
12.389421
8.474588
5.997419
4.915595
4.397631
4.100800
3.910661
3.632903
3.754497
3.625751
3.584623
3.470778
3.622770
3.401637
3.642440
3.595948
3.614426
3.663898
3.834963
3.518462
3.778934
3.623962
3.353953
3.623962
3.416538
3.477931
3.371835
3.507733
3.533959
3.475547
3.312826
3.384948
3.038645
##ZVALUE=335
0.924468
0.901818
0.733733
0.767708
0.887513
0.798702
0.849962
0.715852
0.748634
0.763535
0.777841
0.883937
0.911951
0.794530
0.726581
0.813603
0.899434
0.825524
0.818968
0.572801
0.975728
0.866652
0.884533
0.964999
0.977516
0.952482
0.858903
1.061559
0.830889
0.917912
1.032948
0.883937
1.079440
1.122952
1.259446
1.147985
1.232624
1.369715
1.248717
1.315475
1.313686
1.230836
1.665950
1.573563
1.435876
1.593828
1.708865
2.093911
2.251863
4.329681
23.345947
62.446594
177.224874
319.243670
590.613484
839.638710
1015.712619
1015.712619
1015.712619
1015.712619
958.330631
709.571838
414.052010
250.661969
109.926462
49.540997
15.205741
8.552670
7.018447
6.740689
8.133650
10.470748
15.806556
23.363829
36.605000
48.501492
65.754652
76.828599
85.109472
85.390806
78.839660
68.908930
54.837465
42.533875
28.974414
20.428896
12.556911
8.987784
5.658865
4.679561
3.983974
3.754497
3.541708
3.395677
3.454685
3.347993
3.325939
3.443956
3.436804
3.418922
3.506541
3.307462
3.214478
3.431439
3.428459
3.631711
3.436804
3.465414
3.357530
3.223419
3.174543
3.097653
3.231764
3.180504
3.078580
3.095865
##ZVALUE=340
0.790954
0.708699
0.783801
0.777841
0.835657
0.686646
0.804663
0.781417
0.817776
0.754595
0.703931
0.739694
0.764728
0.722408
0.788569
0.722408
0.798702
0.633597
0.724792
0.739694
0.792742
0.865459
0.873804
0.871420
0.911951
0.933409
0.756979
0.943542
0.937581
1.153946
1.112819
1.091957
0.868440
0.953674
1.155734
1.014471
0.867844
0.988841
1.192689
1.069903
1.241565
1.440644
1.157522
1.291633
1.341701
1.346469
1.475811
1.539588
1.589656
1.790524
2.086759
2.507567
10.952950
37.283897
123.337507
245.294571
502.432585
721.344948
997.428894
1015.712619
1015.712619
1015.712619
1004.710793
807.574987
496.319532
308.421850
142.417550
68.320632
19.610524
9.488463
7.051826
6.794930
6.679893
7.400513
9.930730
13.958812
22.563934
32.698512
48.164725
59.977770
72.910786
78.383684
79.043508
75.199604
64.554811
54.416656
39.802790
29.976964
18.777847
12.896657
8.148551
5.683899
4.170537
3.717542
3.362894
3.164411
3.266931
3.195405
3.179908
3.143549
3.182888
3.063679
3.073812
3.054738
3.140569
3.160834
3.303885
3.219843
3.309846
3.338456
3.019571
3.118515
3.096461
3.111959
2.874732
3.069639
##ZVALUE=345
0.560880
0.739694
0.722408
0.729561
0.774860
0.651479
0.691414
0.807643
0.881553
0.695586
0.695586
0.714660
0.733733
0.756979
0.779629
0.693798
0.762939
0.803471
0.751615
0.805855
0.822544
0.857711
0.905991
0.893474
0.768900
0.882745
0.782609
0.845790
0.793934
0.874996
0.860691
0.768900
0.910759
0.958443
1.005530
1.039505
1.003742
0.967979
1.118779
1.083612
1.011491
1.169443
1.178980
1.266599
1.089573
1.218915
1.327991
1.310706
1.481771
1.697540
1.797676
1.858473
1.853704
2.081990
5.091429
19.305944
79.747438
165.216923
355.694890
554.324985
860.710740
1015.712023
1015.712023
1015.712023
1015.712023
918.940902
614.923835
401.469469
180.329680
88.075995
28.644800
12.447834
7.612705
6.820560
6.088614
5.968809
6.817579
8.029938
13.070703
19.719601
31.500459
41.693449
54.225922
63.632727
71.405768
72.181821
68.894625
62.261820
50.310493
40.046573
28.381944
20.287633
12.386441
8.506775
5.604625
4.512668
3.662705
3.247857
3.177524
3.004670
3.087521
3.059506
2.901554
2.926588
2.943873
3.090501
2.878904
2.829432
3.072619
2.964735
3.154874
2.902746
3.042817
2.976656
2.875924
2.856851
##ZVALUE=350
0.762939
0.766516
0.706911
0.792742
0.863671
0.713468
0.732541
0.697970
0.768900
0.737906
0.886917
0.671744
0.814795
0.813603
0.633597
0.700951
0.787973
0.822544
0.750422
0.838637
0.935793
0.889897
0.910759
0.786781
0.868440
0.852942
0.852942
0.838637
0.808835
0.953674
0.900626
0.855923
0.915527
1.010895
0.909567
0.910759
0.968575
0.999570
1.031756
1.036525
0.993609
1.097918
1.043677
1.231432
1.278520
1.181960
1.186728
1.204610
1.346469
1.310706
1.447797
1.557469
1.744628
1.644492
1.850724
2.039671
2.994537
9.858608
45.505762
104.458928
254.881978
435.951948
731.706023
945.737958
1015.712619
1015.712619
1015.712619
987.358689
683.392882
452.011824
223.728418
121.905804
45.779943
18.377900
7.314682
6.112456
5.761981
5.326867
5.356669
5.785823
7.690787
11.512637
18.394589
25.424957
37.250519
46.213865
57.588816
63.818693
66.593885
64.533949
56.663752
48.999786
36.898851
28.317571
18.803477
12.991428
8.182526
6.012917
4.270673
3.732443
3.440976
3.140569
3.096461
2.874732
2.845526
3.009439
2.944469
2.811551
2.776980
2.720952
2.857447
3.058910
2.930760
2.933741
2.800822
2.855659
##ZVALUE=355
0.668764
0.693798
0.756979
0.797510
0.720620
0.692606
0.665784
0.730753
0.700951
0.773668
0.661612
0.798702
0.711679
0.783801
0.884533
0.804663
0.816584
0.973940
0.677705
0.819564
0.848770
0.717640
0.816584
0.698566
0.808835
0.853539
0.748634
0.737906
0.855923
0.874996
0.980496
0.709891
0.897646
0.905991
1.141429
0.834465
0.965595
1.003742
0.936985
0.913739
1.156926
1.043677
0.968575
0.995994
1.170635
1.177788
1.191497
1.188517
1.262426
1.179576
1.283884
1.367927
1.409650
1.403689
1.580715
1.483560
1.836419
1.889467
2.161860
4.617572
24.578571
67.411661
183.745027
326.891541
604.410768
832.737684
1015.712023
1015.712023
1015.712023
1012.662649
777.723789
554.892421
293.040872
161.200762
65.693855
27.246475
8.739829
6.132722
5.319715
5.240440
4.776716
4.569888
5.342960
6.785989
10.253787
14.953613
23.186803
30.892491
42.321682
50.563812
57.558417
60.849786
59.324503
54.046512
45.059919
37.549734
26.530623
20.134449
13.337731
9.480715
5.749464
4.539490
3.538728
3.237724
3.067851
2.984405
2.881885
2.864599
2.946854
2.714992
2.835989
2.835989
2.721548
2.749562
2.801418
2.722740
##ZVALUE=360
0.726581
0.763535
0.760555
0.859499
0.876784
0.832677
0.810623
0.633597
0.699759
0.711679
0.672936
0.778437
0.662804
0.651479
0.653863
0.816584
0.841618
0.807643
0.771880
0.873804
0.809431
1.104474
0.852942
0.771880
0.981688
0.956655
0.993609
0.716448
0.836849
0.783801
0.742674
0.838637
0.904799
0.751615
0.884533
0.891685
1.050830
1.026988
1.001954
1.086593
0.990629
1.014471
1.107454
1.003742
0.938773
1.110435
1.286864
0.998974
1.249909
1.191497
1.046658
1.189709
1.338720
1.401901
1.395941
1.364946
1.503825
1.575947
1.911521
2.006888
2.097487
2.664924
11.165738
36.319494
118.721724
229.145885
454.206467
675.184727
979.045630
1015.712619
1015.712619
1015.712619
884.891748
661.643744
389.133692
230.826735
97.289681
41.404963
12.048483
6.663799
5.437732
5.016923
4.855990
4.494786
4.358888
4.781485
5.863905
7.655621
12.457967
17.757416
26.331544
34.191608
44.427514
50.659776
54.204464
54.414868
50.556660
45.196414
36.025643
29.357672
19.918680
14.418960
9.518862
6.969571
4.597902
3.671646
2.998710
2.781749
2.812743
2.903938
2.805591
2.601743
2.637506
2.615452
2.439618
2.575517
##ZVALUE=365
0.765920
0.733733
0.622869
0.800490
0.635982
0.774860
0.793934
0.690818
0.679493
0.745654
0.650883
0.754595
0.740886
0.682473
0.826716
0.614524
0.765920
0.756979
0.678897
0.769496
0.684857
0.830889
0.699759
0.700951
0.879765
0.849962
0.815988
0.854731
1.023412
0.963807
0.906587
0.806451
0.896454
0.892878
0.725985
0.867844
0.797510
1.021624
0.845790
0.997782
1.066923
0.975728
1.136661
1.142621
1.022816
1.053810
1.153946
1.026988
1.055598
1.303554
1.213551
1.030564
1.257658
1.164675
1.309514
1.375675
1.348853
1.441836
1.692772
1.576543
1.620650
1.826882
1.952648
2.028942
5.424619
18.587708
71.149468
156.552792
366.728902
573.251843
855.782628
1015.712023
1015.712023
1015.712023
973.801613
772.790909
485.992432
292.936563
127.538443
58.853626
17.093420
7.855892
5.233884
4.839897
4.663467
4.536510
4.177690
4.027486
4.018545
4.751682
6.762743
9.509921
15.541911
21.635890
30.625463
37.358403
44.755936
48.617721
50.188899
49.190521
43.068528
36.912560
27.917624
21.634698
14.428496
10.397434
6.468892
5.040765
3.699660
3.081560
2.743602
2.755523
2.602935
2.425909
2.287626
2.344847
##ZVALUE=370
0.578761
0.528693
0.640750
0.596642
0.612736
0.730753
0.704527
0.675917
0.845790
0.790954
0.727773
0.699759
0.670552
0.740886
0.633597
0.910759
0.677705
0.781417
0.872612
0.709891
0.733733
0.843406
0.772476
0.617504
0.819564
0.834465
0.864863
0.845790
0.709891
0.808835
0.852942
0.772476
0.814795
0.801682
0.905991
0.779629
0.917912
0.724792
0.849962
0.932813
0.781417
0.916719
0.911951
0.972748
0.987649
0.898838
1.055598
0.806451
0.950694
1.033545
0.999570
0.813603
1.267791
1.170635
1.170635
1.313686
1.200438
1.197457
1.337528
1.375675
1.435876
1.309514
1.564622
1.627803
1.801848
2.078414
3.155470
9.760857
49.621463
118.967891
286.502838
460.846424
742.135644
956.744552
1015.712023
1015.712023
1011.230946
834.590793
540.910959
349.949598
167.763829
84.760785
29.568672
12.070537
5.294681
4.732609
4.306436
4.094839
3.918409
3.713965
3.372431
3.573895
4.279613
5.498528
8.851886
12.263656
19.240975
25.208592
34.445524
40.016770
45.818686
47.367811
45.778751
42.224526
35.304427
29.110909
21.061897
14.712811
10.895729
7.477999
5.420446
3.981590
3.143549
2.591610
2.405643
2.421737
##ZVALUE=375
0.775456
0.613928
0.759959
0.820756
0.660419
0.688434
0.549555
0.606775
0.687838
0.754595
0.617504
0.852942
0.782609
0.514984
0.635982
0.584722
0.670552
0.703931
0.620484
0.815988
0.828505
0.782609
0.658631
0.632405
0.717640
0.916719
0.776649
0.855923
0.666976
0.795722
0.888705
0.734925
0.724792
0.970960
1.023412
0.818968
0.882745
0.552535
0.766516
0.864863
0.639558
0.886917
0.960827
0.791550
0.956655
0.933409
0.908971
1.005530
0.935793
1.008511
0.909567
1.015663
0.985861
0.960827
1.109838
1.000762
0.978708
0.893474
1.127720
1.198649
1.188517
1.290441
1.399517
1.400709
1.411438
1.565814
1.636744
1.839995
2.236962
5.477667
28.501749
71.714520
186.814666
339.722633
613.871813
834.083557
1015.712619
1015.712619
1015.712619
950.652957
665.683746
457.938910
248.109698
137.465000
52.475929
21.775961
6.878972
4.847646
4.268885
3.918409
3.755689
3.623962
3.248453
3.196597
3.162622
3.540516
4.842877
6.713867
10.759830
15.120506
22.660494
28.757453
36.410689
40.644407
44.780970
44.360757
40.609837
35.239458
30.584931
23.046732
18.032789
12.140870
9.271502
5.616546
4.191995
3.215671
##ZVALUE=380
0.625849
0.677705
0.722408
0.666976
0.611544
0.671744
0.709891
0.674725
0.722408
0.672936
0.521541
0.621676
0.691414
0.737906
0.699759
0.694990
0.516772
0.688434
0.729561
0.668764
0.650883
0.795722
0.691414
0.747442
0.874996
0.753999
0.951886
0.727773
1.046658
0.959635
0.671744
0.840425
0.799894
0.767708
0.905991
0.790954
0.848770
0.681877
0.812411
0.839829
0.856519
0.763535
0.766516
0.745654
0.964999
0.817776
0.916719
0.975728
0.901818
1.071692
0.973940
1.024604
0.923872
0.933409
0.964999
0.925660
0.940561
1.011491
1.097918
1.220703
1.116991
0.898838
1.161695
1.129508
1.210570
1.231432
1.283884
1.655817
1.604557
1.772642
2.142787
3.204942
14.742613
44.719577
136.712790
257.946849
501.824617
743.405819
1003.961563
1015.712619
1015.712619
1008.099914
785.864592
576.575994
326.825976
188.713670
76.632500
34.307837
9.864569
4.981756
4.190803
4.017949
3.661513
3.456473
3.232956
3.270507
2.998710
2.927780
3.409982
4.080534
5.959868
8.634925
13.784766
18.666983
26.311874
32.207966
38.401484
41.835904
42.390823
40.095448
36.629438
30.231476
24.746656
17.757416
13.016462
8.414984
##ZVALUE=385
0.620484
0.592470
0.549555
0.580549
0.538826
0.637770
0.583529
0.600815
0.595450
0.658631
0.588894
0.798702
0.670552
0.669956
0.682473
0.631809
0.742674
0.740886
0.835657
0.717640
0.690818
0.618696
0.648499
0.578761
0.515580
0.730753
0.677705
0.786781
0.648499
0.772476
0.789762
0.778437
0.797510
0.791550
0.669956
0.822544
0.923872
0.762939
0.762939
0.816584
0.850558
0.801682
0.784993
0.946522
0.848770
0.786781
0.852942
0.886917
0.862479
0.806451
0.954866
1.024604
1.032948
0.939965
0.929832
0.984669
0.991821
1.012683
0.798702
1.090765
1.092553
0.853539
1.040697
1.114607
0.980496
1.250505
1.225471
1.355410
1.466870
1.600981
1.661777
1.963973
2.121925
2.235770
6.560683
22.161603
83.920956
180.319548
394.076705
609.807968
902.544856
1015.712023
1015.712023
1015.712023
907.011032
710.407495
442.881584
275.108814
121.835470
58.499575
19.047856
7.281899
4.200935
3.800988
3.580451
3.464818
3.578663
3.240705
3.267527
3.032684
2.973676
3.105998
3.672838
4.928708
7.276535
10.525584
16.149879
22.972822
27.762651
32.813549
37.004948
38.387775
38.097501
35.589933
30.135512
23.648739
##ZVALUE=390
0.620484
0.680685
0.730753
0.611544
0.455976
0.609756
0.458956
0.591874
0.557899
0.597835
0.557899
0.512600
0.613928
0.709891
0.646710
0.698566
0.659823
0.600815
0.589490
0.690818
0.648499
0.717640
0.758767
0.565648
0.753999
0.658631
0.865459
0.706911
0.766516
0.786781
0.869632
0.712872
0.678897
0.806451
0.827909
0.807643
0.839829
0.879765
0.817776
0.759959
0.875592
0.933409
0.807643
0.942945
0.953674
0.874996
0.990629
0.937581
0.894666
0.952482
0.985861
1.089573
1.075864
1.092553
1.124740
1.097918
0.993609
1.005530
0.931621
1.068711
1.063943
1.148582
0.942945
1.183748
1.135468
1.101494
1.260638
1.388788
1.461506
1.401901
1.518726
1.553893
1.777411
1.926422
1.838803
1.929998
3.672838
14.279485
63.129663
136.738420
309.372544
500.651002
778.416991
969.306827
1015.712023
1015.712023
1008.030772
852.620006
569.475889
371.229649
172.732472
86.973906
29.356480
11.432767
4.865527
4.066825
3.648996
3.702641
3.770590
3.495812
3.273487
3.173947
3.006458
2.755523
2.941489
3.096461
4.078746
6.843805
8.854866
13.510585
17.875433
24.110675
28.477907
34.400821
36.313534
36.231875
##ZVALUE=395
0.707507
0.733733
0.619888
0.783801
0.697970
0.597835
0.680685
0.598431
0.777841
0.614524
0.680685
0.549555
0.669956
0.567436
0.521541
0.654459
0.773668
0.708699
0.568628
0.682473
0.681877
0.730753
0.688434
0.657439
0.601411
0.675917
0.748634
0.707507
0.737906
0.724792
0.747442
0.697970
0.938773
0.810623
0.841618
0.871420
0.835657
0.933409
0.855923
0.813603
1.039505
0.984669
0.869632
1.030564
0.952482
1.049638
0.932813
1.079440
1.098514
0.912547
1.041889
1.042485
1.072884
0.936985
1.058578
1.134872
0.960827
1.037717
1.139641
1.008511
1.066923
1.017451
0.973940
1.147985
1.148582
1.131892
1.228452
1.264811
1.420975
1.421571
1.533628
1.477599
1.475811
1.569986
1.630783
1.587868
1.707673
1.945496
2.633929
7.305741
36.585927
90.520978
219.805837
374.093652
647.110939
866.649747
1015.712619
1015.712619
1015.712619
974.691510
678.941011
461.850762
236.675739
128.229856
50.845742
21.244884
6.461740
4.272461
3.793836
3.896952
3.992915
3.855824
3.798604
3.729463
3.234744
2.941489
2.881885
2.807975
2.833605
3.997684
5.049706
7.465482
10.190606
16.083717
20.247698
27.131438
##ZVALUE=400
0.856519
0.956655
0.655651
0.741482
0.572801
0.647902
0.537634
0.491738
0.616908
0.877976
0.615716
0.642538
0.690818
0.526905
0.548959
0.596642
0.538826
0.596642
0.515580
0.714660
0.545979
0.617504
0.804663
0.772476
0.812411
0.632405
0.642538
0.582933
0.735521
0.585914
0.760555
0.914931
0.811815
0.827909
0.762939
0.939965
0.898838
0.948906
0.919700
0.931621
0.826716
0.897646
0.971556
0.961423
1.201630
1.044869
1.142621
1.140833
0.909567
0.851750
0.952482
1.045465
0.996590
0.985861
1.107454
0.943542
1.022816
1.067519
1.076460
1.037717
1.120567
1.039505
0.969768
1.041889
1.186728
1.297593
1.514554
1.362562
1.401901
1.520514
1.488924
1.377463
1.449585
1.500845
1.589656
1.600981
1.488924
1.678467
1.658797
1.791716
1.915693
3.562570
18.979907
53.085685
149.911642
273.391604
515.303016
724.054575
981.094837
1015.712619
1015.712619
1009.966731
780.445933
566.429496
316.315889
184.107423
77.655911
35.222769
10.036826
4.933476
3.850460
3.908873
3.841519
3.670454
3.655553
3.616810
3.648996
3.225803
3.156662
2.779961
2.626777
2.663732
3.203750
4.386902
6.124973
9.508729
##END
