##TITLE=3-3
##FORMAT=SPECTACLE-ASCII V-1.2
##DATA TYPE=ULTRAVIOLET SPECTRUM
##SECOND TYPE=ULTRAVIOLET SPECTRUM
##DATE=04/11/18
##TIME=14:30:13
##SPECTROMETER/DATA SYSTEM=SPECTACLE
##XUNITS=NM EM
##YUNITS=ENERGY
##YFACTOR=1
##FIRSTX=220
##LASTX=450
##NPOINTS=116
##3DDATA=Equidistant
##ZUNITS=NM EX
##FIRSTZ=210
##LASTZ=400
##ZPOINTS=39
##XYDATA=(Y..Y)
##ZVALUE=210
16.137958
15.545487
12.757778
12.029409
11.601448
10.395646
10.482669
8.436441
7.965565
5.645752
4.588962
4.427433
2.986789
3.150702
3.005862
3.861785
3.064871
3.203750
3.460646
3.324747
4.165769
3.653765
4.239678
4.661679
4.164577
4.518628
4.677773
4.857779
5.946755
5.651712
5.014539
5.212426
5.509853
5.672574
6.601810
6.256700
6.231666
6.067753
6.626844
7.756948
7.520914
8.486509
7.588863
8.052588
7.942915
8.286834
7.924438
8.846521
9.486675
8.269548
9.628534
9.447932
9.451509
9.376407
10.578632
9.869933
9.602904
8.914471
9.204745
8.656979
8.983612
8.996725
9.158850
9.144545
8.395910
10.070801
9.270906
9.661913
10.987520
10.544658
12.371540
14.157891
14.453530
15.939474
17.527938
15.843511
18.935800
18.077493
16.788840
17.591715
14.788508
14.658570
11.885762
10.908842
9.701848
9.321570
8.256435
8.123517
8.393526
8.479953
10.770559
13.608932
19.936562
22.073984
27.501583
32.591820
41.033626
44.629574
49.479604
52.850842
54.775476
56.729913
58.102608
58.463812
58.674812
52.478909
49.249530
44.442415
39.944649
33.357739
29.427409
23.795962
19.767880
15.186667
14.407635
14.960766
##ZVALUE=215
41.907430
45.871735
32.856464
29.107928
23.812652
18.479824
17.320514
15.307665
14.783740
13.575554
12.476444
8.999705
7.405877
6.124973
4.532933
4.006624
3.384948
4.003644
3.438592
4.224777
4.397631
3.990531
4.759431
4.699826
4.588962
5.626678
4.903674
5.088449
5.226731
5.768538
5.533695
6.460547
6.105900
7.405877
6.722808
7.388592
7.569790
8.199811
7.294416
8.542538
8.473992
8.544922
8.371472
8.430481
9.474754
8.730888
9.906888
9.282827
10.346770
9.928942
9.921789
11.021495
11.161566
12.004972
11.089444
10.854602
12.308955
11.233687
11.621714
11.917949
10.593534
10.531545
10.499954
11.260509
10.969639
10.966659
10.476708
10.820627
10.971427
12.658834
13.494492
13.932586
14.619827
16.194582
16.157627
15.212893
16.096830
16.258955
15.081763
13.729930
12.479424
12.837648
11.810660
10.328889
10.035634
9.373426
6.829500
7.206798
8.150935
6.502867
6.488562
7.334948
7.243752
8.937716
9.866953
12.858510
15.839934
23.140907
28.301477
37.697554
42.600632
53.270459
62.439442
75.609684
78.966618
87.913871
90.279579
88.776946
89.953542
81.373453
80.620646
73.080659
69.075823
53.352714
47.966838
35.799742
##ZVALUE=220
94.199777
98.352432
87.489486
83.025694
68.884492
55.880547
41.070580
30.238628
26.788712
23.320913
25.794506
24.122596
24.426579
19.125938
14.244914
12.211800
8.103848
6.003976
5.287528
4.433990
4.294515
4.036427
4.431605
4.474521
5.082488
5.169511
6.391406
5.177855
5.595684
6.352663
5.892515
6.621480
6.245971
7.587671
7.974505
8.208752
8.853674
10.101795
8.886456
10.189414
10.372996
10.458827
9.769797
11.015534
11.232495
11.660457
10.738969
11.615753
12.535453
12.898445
12.768507
14.018416
14.471412
14.246702
15.245676
16.651750
14.836788
14.465451
16.245842
15.563965
14.775991
16.086698
14.735460
15.531778
14.434457
14.075637
14.463663
12.862682
14.661551
13.402700
15.589595
16.803741
16.626716
17.435551
17.002821
19.718409
18.246770
17.155409
17.633438
16.666651
15.410781
13.994575
13.131499
11.289716
11.650920
9.520650
8.970499
8.407831
8.275509
8.042455
8.418560
7.424951
6.827712
7.636547
7.547736
6.718636
7.675886
8.243918
7.906556
11.755824
14.035702
22.268891
29.745698
42.456985
52.067637
67.805648
77.766776
95.426440
107.460618
116.498470
123.255849
136.016607
131.443739
130.117536
127.786994
119.498968
##ZVALUE=225
118.936896
121.452808
145.221949
160.356760
156.918764
145.636797
124.378800
94.792843
70.479512
51.851869
41.304827
37.340522
37.399530
39.567947
36.594868
32.135844
27.404428
19.865632
16.680956
10.418892
6.957650
5.577803
4.792809
5.311966
4.671812
5.539656
5.925894
6.338954
5.926490
5.011559
6.477833
6.919503
7.186532
9.215474
9.226799
9.577870
9.955764
9.806752
10.647774
10.864735
11.245608
11.873841
10.916591
12.483597
11.854768
13.111830
13.110638
13.266802
14.916658
14.801621
15.507936
16.069412
18.148422
17.389655
17.291903
18.843412
18.900633
19.650459
19.201636
19.720793
19.533634
18.506646
18.545985
17.652512
18.636584
16.899705
16.756654
16.975999
18.470883
18.712878
19.321442
19.650459
19.211769
19.622445
18.973947
18.464923
19.604564
18.254519
17.076731
17.194748
15.818477
13.690591
13.425946
12.220740
10.596514
11.297464
11.758804
10.043979
9.003878
9.448528
8.539557
8.130670
9.004474
8.601546
9.111762
7.993579
8.568764
8.528829
9.209514
7.798672
8.297563
8.274913
8.889437
10.247827
13.298988
19.117594
28.657913
41.230917
54.057837
75.442791
90.696812
114.769936
136.884451
160.013437
180.251002
195.290446
##ZVALUE=230
82.415938
90.497732
141.817927
183.124542
234.355927
265.340805
273.612738
252.580643
222.451687
172.149539
124.523640
85.427761
68.570971
55.818558
56.567788
58.991909
62.348843
57.112575
49.143434
37.340522
28.421879
20.282865
12.467504
8.199811
6.091595
5.732775
6.422997
6.129742
6.766915
7.317662
6.504655
7.579923
7.769465
7.576942
9.151697
9.172559
10.902882
10.406971
11.419654
11.449456
11.927485
13.451576
12.339950
12.904406
14.207959
13.615489
14.754534
14.371872
14.353991
15.725493
17.071962
17.248988
18.613935
18.090606
16.979575
19.218922
20.433664
19.764900
20.050406
19.615889
20.002723
19.065738
19.748807
19.887686
19.811988
20.784736
19.503832
17.870665
19.268990
20.920634
20.722747
21.090508
21.062493
20.380616
22.127628
21.766424
20.750761
20.014644
18.940568
18.117428
17.922521
16.436577
15.611649
13.438463
13.302565
12.390614
12.567639
12.809634
11.345744
10.452867
10.527968
9.716749
10.319948
9.476542
10.113716
10.581613
9.512901
9.257793
10.496974
9.224415
9.104609
9.499788
9.061694
9.761453
9.730458
8.845925
9.763837
10.653734
11.494756
16.664863
24.985671
37.417412
50.078630
78.859925
102.217793
133.658648
##ZVALUE=235
24.678707
26.632547
64.573884
115.145445
166.536570
264.581442
328.253508
403.964520
431.033969
410.754681
360.867977
279.128551
203.414559
136.389732
101.452470
84.051490
77.016950
86.618662
89.093447
85.373521
78.297853
64.656734
52.194595
37.489533
24.941564
15.990734
11.656880
8.545518
7.457733
7.495880
7.870793
7.159710
8.238554
8.850694
9.310842
9.633899
10.274649
10.680556
10.704994
10.088682
11.772513
11.514425
13.217926
12.918711
13.823509
13.781786
14.564991
14.489889
13.802648
14.395714
16.323924
15.451908
16.928911
15.294552
16.559958
17.340779
17.185807
17.821789
19.831657
20.344853
19.135475
16.898513
19.974709
17.921925
18.859506
19.705892
19.296408
17.955899
20.002723
20.047426
22.653937
22.228956
21.688938
23.435950
23.254752
24.668574
23.687482
23.332834
21.178722
20.134449
19.421577
18.625855
18.791556
17.649531
16.056895
15.033484
14.838576
14.178753
15.043616
14.511943
12.688637
11.791587
13.145804
12.996793
12.067556
11.490583
12.962818
11.436939
11.490583
10.894537
11.303425
12.378693
11.547804
11.231899
11.818409
12.269616
10.875463
10.380745
12.019873
11.677742
11.303425
11.395812
11.707544
13.545752
18.684864
31.523705
##ZVALUE=240
3.115535
3.341436
9.552836
25.546551
56.202412
129.883885
211.679935
359.758735
467.301011
594.332814
632.628798
624.002814
568.985939
447.057486
356.488824
227.137804
162.752867
118.509531
102.598667
107.820630
120.322704
124.345422
120.705962
102.834702
89.082718
62.372684
45.612454
34.106970
19.589663
15.024543
10.626912
8.756518
9.344816
8.264780
10.165572
9.693503
9.796619
10.067821
11.194944
11.091828
11.626482
11.329651
12.336969
13.003945
13.343692
13.106465
14.185905
15.366673
15.237927
13.990998
14.581680
14.813542
15.255809
16.213655
16.312599
15.331507
16.004443
15.236735
15.741587
17.381907
17.050505
17.236471
16.244650
16.362667
16.330481
17.923713
17.388463
19.600987
19.600987
22.129416
21.894574
22.750497
22.239685
23.795962
25.111437
24.753809
26.131868
22.758842
23.357868
22.270679
22.354722
20.381808
19.243956
19.712448
18.759966
16.792417
16.307831
15.529990
15.859604
14.482737
14.734864
14.228821
14.725924
14.731884
14.066696
14.394522
13.286471
13.257861
13.141632
13.403893
14.960766
12.669563
14.089942
13.459921
12.019873
12.624860
14.490485
13.201833
12.992620
12.162924
12.193918
12.607574
12.699962
11.362433
12.831688
11.715889
##ZVALUE=245
2.650619
2.740622
2.647638
3.018975
4.455447
19.301772
44.825673
109.689832
195.840597
341.376662
475.791693
636.911988
730.983615
747.174025
724.807978
605.571866
489.358902
329.254866
229.280591
142.449737
108.339787
103.884935
116.961598
128.125548
135.293603
126.499534
115.295649
95.032454
74.033737
53.660870
36.069751
25.237799
15.079975
11.597872
9.810925
8.990765
9.482503
9.587407
9.915829
9.719729
10.523796
10.054708
11.043549
11.989474
10.847449
13.220906
12.316704
13.046861
12.292862
13.157725
13.887882
11.956692
13.665557
14.288425
13.439655
12.857914
13.765693
13.616681
13.080835
14.354587
13.751984
14.196634
13.673902
14.763474
14.554858
14.823675
15.289783
15.680790
15.485883
16.627908
17.598867
18.866658
19.488931
18.359423
19.306540
20.376444
18.807650
19.607544
18.216968
18.556714
18.554926
16.937852
17.047524
15.435815
13.766885
14.364719
14.427900
12.976527
13.834834
12.824535
13.249516
12.647510
11.969805
11.950731
12.485981
11.404753
11.032820
11.261702
12.290478
11.101961
11.791587
12.302995
11.131763
10.692477
11.512637
10.994673
11.080503
10.893941
10.838509
10.475516
10.776520
9.771585
10.553598
10.394454
10.981560
9.812713
##ZVALUE=250
2.189875
2.279878
1.816750
2.630949
2.549887
2.528429
3.606677
11.281967
31.375885
87.337494
164.803863
323.702693
467.226505
656.692982
766.003728
844.692588
841.344595
740.024447
625.160933
432.871580
301.725864
179.040432
122.055411
98.623633
109.924674
123.315454
140.032768
141.577721
134.430528
126.372576
101.624727
82.197785
57.159662
37.717819
22.756457
16.123652
11.705756
10.059476
9.924769
10.048747
10.821819
10.978580
11.134744
11.602640
11.413693
11.867881
12.013912
12.579560
12.422800
11.598468
13.133883
13.326406
13.310909
12.360811
12.875795
12.990832
13.694763
12.941957
13.140440
12.642741
13.152957
12.984872
13.258457
12.839437
13.575554
13.187528
12.139678
11.915565
12.633801
14.047623
14.303923
15.301704
14.929771
16.329885
15.367866
16.061664
16.604662
15.181899
15.575886
13.888478
13.545752
12.386441
11.919737
11.842847
10.867715
10.826588
10.357499
10.282993
10.216832
10.532737
9.698868
9.623766
9.853840
9.070635
8.581877
9.234548
9.560585
9.000897
9.593964
8.720756
8.919835
8.867979
9.322762
9.422898
9.902716
9.324551
8.851886
8.207560
9.021759
8.600950
8.654594
8.839965
8.894801
9.280443
9.211898
9.228587
##ZVALUE=255
1.813769
1.996756
1.730919
1.802444
1.701713
2.412796
2.239943
2.347827
2.706647
6.419420
19.764900
66.586733
131.671429
278.777480
419.170856
634.697676
788.972974
925.014019
965.891480
901.622772
777.381659
637.281537
407.176614
255.317688
138.335824
102.148652
92.839599
104.324818
125.513673
141.829848
148.114562
146.551728
130.000710
112.600923
83.923936
62.227845
38.526654
26.167631
16.016960
13.140440
12.117624
11.369586
11.571646
12.326837
12.864470
14.086962
13.529658
13.161898
13.734698
14.588833
14.367700
14.177561
15.075803
15.092492
13.968945
14.530420
14.210939
13.686419
14.192462
14.030933
13.634562
13.250709
12.719631
13.714433
13.253689
13.570786
12.113452
12.928843
12.266636
13.096929
13.390779
14.293790
13.834834
14.268756
13.912916
13.623834
13.801455
12.193918
12.411475
10.873675
11.116862
10.282993
10.274649
9.597540
8.870959
9.240508
8.586645
8.479953
7.726550
7.946491
7.715821
7.601976
7.707477
7.174611
7.182956
7.240772
6.835461
7.546544
8.117557
7.652640
6.996989
7.198453
7.258654
6.572604
6.980896
7.214546
7.341504
7.431507
8.150935
7.704496
7.496476
6.690621
6.787777
6.759763
6.775856
6.743670
##ZVALUE=260
1.857877
1.791716
1.868606
1.947880
1.951456
2.084970
1.831651
1.927614
1.981854
2.428889
2.549887
3.494620
10.848641
44.705868
91.879964
215.727687
357.760787
586.107969
768.447518
984.941721
1015.712619
1015.712619
947.733521
783.970952
521.817803
354.619622
202.069879
126.331449
86.256862
85.978508
104.975700
126.227736
149.291754
157.072544
150.823593
139.289498
113.934875
88.843703
60.249567
43.979883
29.106736
21.612644
17.337799
14.854670
15.273690
14.772415
15.013814
15.364885
15.580654
16.090870
16.011596
17.687678
16.512871
17.140508
16.706586
16.954541
15.804768
15.942454
15.148520
15.470982
14.639497
16.079545
15.540719
15.052557
14.626980
13.625622
13.225675
13.125539
13.636947
13.274550
14.808774
14.325976
13.604760
13.614893
13.669729
12.967587
12.390614
12.026429
11.657476
10.432601
9.908676
9.566545
8.768439
9.025931
9.281635
8.329749
7.399917
7.400513
7.745624
6.877780
7.142425
6.260872
6.416440
6.935596
6.074905
6.911755
6.303787
6.464720
6.161928
6.728768
6.597638
6.747842
6.815791
5.838871
6.311536
6.781816
6.994605
6.575584
6.492734
6.548762
6.240606
7.291436
6.495714
6.036758
6.109476
6.242990
##ZVALUE=265
1.591444
1.646876
1.450777
1.374483
1.900792
1.834631
1.819730
1.773834
1.831651
1.940727
2.050996
2.117753
2.381802
2.670884
5.819798
26.373863
67.125559
171.552896
300.391912
547.069907
754.078627
993.144512
1015.712619
1015.712619
1015.712619
885.565877
702.595711
509.998798
285.327435
173.800588
93.684793
73.470473
88.974833
110.694766
138.883591
156.099796
162.608624
159.742832
141.225457
121.260881
90.288520
68.484545
46.543479
34.789443
24.170876
20.618439
19.063950
18.122792
17.695427
18.690825
18.868446
19.505620
20.112991
19.510984
20.217896
19.206405
19.519925
19.424558
19.233823
17.638803
17.560720
17.107725
16.978979
16.443729
15.713573
14.976859
15.503764
14.758706
14.049411
14.721751
14.308691
14.626980
14.387965
14.120936
14.418960
13.739467
13.438463
12.370944
11.914968
11.288524
10.053515
10.151863
9.593964
9.187460
8.737445
8.635521
7.747412
7.695556
7.294416
7.710457
7.287860
7.191896
7.399917
6.823540
6.635785
6.465912
6.504655
6.349683
6.541610
6.722808
6.551743
6.721616
6.306767
6.374717
6.195903
6.163716
5.744696
6.175637
6.642938
6.109476
5.931854
6.318688
6.162524
5.920529
5.438924
6.059408
##ZVALUE=270
1.404881
1.481771
1.427531
1.395941
1.426935
1.403689
1.523495
1.809597
1.658797
1.888871
1.949668
1.893640
2.007484
2.219677
2.402663
2.451539
2.759695
12.554526
38.844943
122.206807
233.458877
462.585688
691.860914
923.027992
1015.712619
1015.712619
1015.712619
1015.712619
850.648880
638.751984
390.988588
244.812965
120.853782
77.920556
69.634914
87.069869
119.033456
137.748718
161.106586
169.389844
164.707899
152.972937
120.664835
99.125504
71.832538
53.752661
36.426783
28.858781
24.317503
22.905469
22.225976
21.375418
22.970438
21.862984
21.837950
22.841692
22.033453
20.853877
21.830797
20.755529
20.073652
20.038486
18.849969
18.841624
18.179417
17.135739
17.797947
17.185807
16.182661
16.465783
16.219616
15.780926
16.519427
15.334487
15.221834
14.173985
13.440847
13.352633
12.492537
11.570454
11.644959
11.185408
10.517836
9.279847
9.388924
8.453727
8.315444
7.915497
8.423924
8.128881
7.582903
7.338524
7.436872
7.108450
7.075667
6.563663
6.761551
6.818771
6.515980
6.801486
6.327629
6.921887
6.241798
6.748438
6.661415
6.458759
6.742477
6.450415
6.268620
6.367564
6.799698
6.178617
6.423593
5.725622
6.284714
5.419850
##ZVALUE=275
1.321435
1.313686
1.323819
1.303554
1.368523
1.367927
1.403689
1.546741
1.453757
1.581907
1.703501
1.594424
1.534820
1.613498
1.708865
1.787543
2.007484
2.274513
2.528429
6.520748
21.650791
82.426667
176.775455
388.214588
601.768494
903.072953
1015.712619
1015.712619
1015.712619
1015.712619
1014.569998
849.632025
558.263659
365.902781
190.915465
113.187432
70.874691
69.834590
94.838738
115.448833
145.323873
162.257552
169.867873
168.179870
148.337483
128.589869
100.500584
78.954697
54.820776
43.402910
32.033920
28.286576
24.860501
23.939610
24.259686
23.377538
24.237633
24.230480
22.747517
23.304820
22.401810
22.232533
20.812750
20.828843
19.495487
20.315647
19.319654
17.933846
17.999411
17.760992
17.721653
18.132925
16.726851
16.124845
15.944839
15.901923
15.271902
14.136434
13.480783
13.124943
12.303591
11.702776
11.016726
10.287762
10.206699
10.165572
9.055734
9.238720
9.002686
8.995533
8.322597
8.786917
8.258820
9.050965
9.199977
8.999705
9.767413
9.633899
10.292530
10.565519
10.952950
11.104941
10.210872
10.216832
10.606647
9.846687
9.959936
10.548830
9.737611
10.506511
10.485649
10.602474
10.324717
10.095835
10.190606
9.342432
##ZVALUE=280
1.211762
1.271963
1.244545
1.293421
1.318455
1.264811
1.306534
1.488924
1.481771
1.622438
1.587868
1.624823
1.547933
1.384616
1.648664
1.744628
1.663566
1.699924
2.044439
1.928806
2.184510
3.573895
12.686849
59.481859
134.990811
310.689807
487.303734
699.047446
994.598866
1015.712619
1015.712619
1015.712619
1015.712619
988.870859
694.086552
479.817986
257.592797
145.696998
68.881512
54.665804
68.293810
90.402961
120.301843
141.179562
163.467526
168.450475
163.391829
148.192644
122.049451
102.577806
75.144768
57.943463
40.858984
33.457875
27.514696
24.367571
24.277568
23.162961
22.415519
23.098588
21.342635
21.500587
20.998716
21.192431
20.154715
19.618869
19.428730
18.570423
18.513799
17.916560
17.590523
17.700791
16.799569
16.763806
16.131997
15.327930
14.943480
14.043450
13.529658
13.144612
12.435913
11.874437
11.512637
11.168718
10.712743
10.517836
9.952784
9.903908
9.450912
9.218454
8.531809
8.741617
8.481741
9.261966
8.756518
9.416938
9.664893
9.806752
9.880662
9.698868
9.981990
9.598732
9.324551
9.645820
9.194613
9.540915
9.668469
9.699464
9.858608
9.484887
9.628534
9.343624
9.156466
9.418726
9.200573
8.723736
##ZVALUE=285
1.259446
1.246929
1.143813
1.268983
1.051426
1.143813
1.156926
1.220703
1.062751
1.187921
1.122952
1.441836
1.543760
1.404881
1.434684
1.605749
1.373887
1.631975
1.700521
1.878738
2.116561
2.178550
2.326965
2.639890
6.285906
31.208992
77.006817
160.326958
354.130864
567.221642
882.938504
1015.712023
1015.712023
1015.712023
1015.712023
1015.712023
845.474601
598.205924
330.078006
195.283890
86.780787
50.464869
46.546459
60.329437
88.131428
109.998584
136.952996
152.788758
161.222816
159.890652
144.124627
126.650929
98.371506
76.607466
54.120421
41.158795
29.931664
24.839640
21.178722
20.142794
19.476414
19.435883
19.202828
18.579960
17.934442
17.778873
17.406940
17.141700
17.078519
17.022491
16.006827
15.927553
16.070604
15.533566
15.001893
14.087558
14.476776
13.595819
12.602806
12.207627
11.946559
11.922717
11.128783
10.461807
10.210872
10.432601
10.033846
9.346604
9.448528
8.943677
9.158850
8.551478
8.463860
8.182526
8.641481
8.391738
8.293986
8.423924
8.187890
8.871555
8.276701
8.584857
8.274913
8.455515
7.803440
8.193851
7.948875
7.873774
7.798672
7.984638
7.650852
7.981658
7.944703
7.253885
7.454753
7.320642
##ZVALUE=290
1.259446
1.161695
1.090765
1.022816
1.128912
1.240969
1.228452
1.154542
1.084805
1.225471
1.044869
1.252890
1.356602
1.428723
1.265407
1.663566
1.484752
1.405478
1.768470
1.510978
1.712441
1.563430
1.902580
2.100468
1.906753
2.359748
3.263950
9.020567
41.331649
101.984739
252.555609
424.976945
733.009577
985.476971
1015.712023
1015.712023
1015.712023
1015.712023
969.986916
740.467906
447.665453
271.740556
123.120546
64.242482
34.061670
38.051605
56.903958
76.566935
104.633570
126.015544
146.426558
153.405666
151.884556
139.879584
117.307901
96.828938
66.486597
51.356554
35.121441
26.449561
20.275712
17.474890
15.893579
15.026927
15.153885
14.676452
14.776587
14.249682
14.037490
14.152527
13.803840
13.934970
14.204979
13.461709
13.815761
13.055801
12.169480
11.933446
11.871457
11.641979
10.847449
10.791421
10.471940
10.363460
9.746552
9.540915
9.482503
9.084940
9.008646
8.807778
8.560419
8.571744
8.016825
8.177757
8.085966
7.908940
7.836819
7.626414
8.186698
7.959604
7.995963
8.074641
7.732511
7.748604
7.391572
7.253885
6.877780
7.419586
7.390976
7.058978
7.076859
7.012486
7.220507
6.719828
6.137490
6.588697
##ZVALUE=295
1.194477
1.060963
1.158714
0.992417
1.279712
1.162887
1.036525
1.078844
1.064539
1.151562
1.313686
1.036525
1.191497
1.142621
1.147985
1.240969
1.299977
1.097918
1.412630
1.541972
1.392961
1.443624
1.626611
1.781583
1.685619
2.021790
2.160668
2.224445
2.569556
4.455447
21.439791
59.343576
174.125433
330.099463
627.309680
873.233676
1015.712023
1015.712023
1015.712023
1015.712023
1015.712023
870.100856
551.071763
349.589586
163.566470
82.150698
34.170747
25.500655
35.624504
50.529838
73.584914
92.990994
119.711757
135.877728
144.139528
144.084692
128.308535
110.489726
86.732507
66.505671
45.967698
32.103658
21.357536
16.019940
13.281703
11.773705
11.175871
11.046529
11.627674
11.792779
11.469722
11.608601
11.579990
11.782646
11.161566
11.131763
10.794997
10.612607
10.331869
10.271668
9.864569
9.307861
9.027719
8.778572
8.932948
8.576512
9.053946
8.363724
8.396506
8.132458
7.882714
7.898808
7.777810
7.544756
7.643700
7.197857
7.394552
7.391572
7.290840
7.476807
7.417798
7.204413
6.783605
7.415414
7.210970
6.974936
7.012486
6.983876
6.964803
6.976724
6.565452
6.460547
6.373525
6.014705
6.383657
6.191730
##ZVALUE=300
0.969768
0.982881
0.954866
0.845790
1.011491
0.984669
1.006722
1.101494
0.920892
1.029968
1.261830
1.270771
1.061559
1.077652
1.212955
1.100898
1.036525
1.249909
1.195669
1.277924
1.446605
1.319647
1.381636
1.493692
1.685619
1.791716
1.620650
1.726747
1.865625
2.050996
2.269745
2.771616
9.863973
35.205483
116.092563
227.449536
472.207665
712.803006
1009.901762
1015.712023
1015.712023
1015.712023
1015.712023
990.989804
668.548942
442.465544
223.129988
122.045875
48.223734
24.561882
21.296740
28.148890
45.061707
61.401725
86.889863
106.112957
127.418637
134.124756
132.821798
123.158693
103.551745
85.092783
61.161518
44.862628
28.937459
20.100474
12.953877
10.379553
8.960962
9.072423
9.110570
9.088516
9.413958
9.517670
9.520650
9.362698
9.266734
8.835793
8.630753
8.323789
8.675456
8.269548
8.070469
8.139610
7.856488
7.773638
7.477999
7.828474
7.431507
7.426739
6.712675
7.521510
7.120967
7.307529
6.668568
7.003546
6.651878
6.761551
7.019639
7.015467
6.946921
6.641746
6.382465
6.611943
6.763935
6.479621
6.503463
6.496906
6.251931
6.522536
6.418824
6.508827
6.099939
6.293654
5.950928
5.558729
##ZVALUE=305
0.935793
1.043677
0.909567
0.939965
0.943542
0.874996
0.913739
1.005530
1.042485
1.086593
1.103878
1.126528
0.995994
0.871420
1.007915
1.099706
1.078844
1.171827
1.182556
1.268983
1.269579
1.443624
1.396537
1.355410
1.222491
1.513958
1.588464
1.446605
1.457930
1.628995
1.705885
1.886487
2.273917
2.340674
5.259514
18.734932
76.313615
166.859627
370.832682
579.154491
895.171762
1015.712619
1015.712619
1015.712619
1015.712619
1015.712619
792.559981
554.528832
293.932557
163.514614
65.030456
28.179884
14.978647
18.054843
27.221441
39.878488
61.850548
79.127550
103.823543
116.414428
127.018690
126.664639
114.846826
101.354718
76.153874
60.166717
40.583611
27.474761
16.749501
12.315512
9.104609
8.665919
8.189678
8.426905
8.027554
7.970929
7.565618
7.302761
7.325411
7.263422
7.618666
7.213950
7.507801
7.241964
6.961823
7.350445
6.873608
6.517768
6.511807
6.574988
6.388426
6.518960
6.498694
6.632805
6.206632
6.097555
6.692410
6.241798
6.293654
6.075501
6.177425
6.230474
6.118417
6.393790
6.401539
6.155968
5.996823
5.966425
6.074905
6.141663
5.691648
5.671978
5.473495
5.757809
5.324483
5.621910
##ZVALUE=310
0.770688
0.843406
0.848770
0.975728
0.916719
1.044869
0.874996
1.028776
1.015663
0.815988
0.951886
0.964999
0.951886
0.869632
1.155734
0.915527
0.912547
1.089573
1.107454
1.239777
1.301765
1.155734
1.270771
1.283884
1.214743
1.424551
1.335740
1.335740
1.404881
1.584888
1.336932
1.498461
1.883507
1.810789
1.908541
2.169609
3.021955
8.165836
41.188598
102.705956
210.493803
441.025496
680.145621
992.880464
1015.712619
1015.712619
1015.712619
1015.712619
983.418822
742.923021
434.011817
254.806876
107.528567
48.545599
16.296506
12.332797
15.633702
22.633672
36.173463
50.528646
72.558522
89.741945
109.611750
118.619800
118.030906
111.746788
95.220804
78.268647
54.275990
39.639473
25.612712
18.510818
11.120439
9.411573
7.630587
7.215738
6.742477
6.752610
6.620884
6.389618
6.215572
6.333590
6.263852
5.787611
6.036758
6.218553
6.097555
5.992651
6.066561
5.957484
5.640984
6.180406
5.400777
5.795956
5.524755
5.711913
5.344748
5.396605
5.414486
5.440712
5.596876
5.580783
5.646944
5.398989
5.172491
5.672574
5.835891
5.856752
5.370975
5.375743
5.019903
5.471706
5.152822
5.256534
5.108714
4.991889
##ZVALUE=315
0.741482
0.765920
0.834465
0.720620
1.033545
0.793934
0.976920
1.088977
0.941753
0.747442
1.092553
0.852942
0.907779
0.870824
0.953674
0.944734
0.987649
0.952482
1.102686
0.951886
1.104474
1.082420
1.191497
1.005530
1.209974
1.110435
1.303554
1.289845
1.213551
1.326799
1.357794
1.454949
1.690984
1.638532
1.773834
1.872778
1.819730
2.201796
2.417564
4.298687
23.547411
63.328743
179.331899
323.497653
610.819459
861.243010
1015.712619
1015.712619
1015.712619
1015.712619
1015.712619
840.813518
522.817969
328.396559
152.433515
71.332455
21.809936
12.098551
11.247993
13.771653
21.244884
31.654835
49.559474
64.489841
84.983706
99.715590
110.459924
112.514496
102.920532
90.057850
69.100857
53.413510
36.155581
25.565624
15.765429
10.997653
7.673502
6.506443
6.046891
5.651712
5.631447
5.414486
5.282760
5.313754
5.115867
5.195737
5.328655
5.331635
5.289912
5.143881
5.169511
5.056858
5.261898
5.077720
4.857779
4.905462
4.850626
4.780889
4.613996
4.868507
4.998446
4.759431
5.018711
5.084872
4.878640
4.624724
4.822612
4.815459
4.628897
4.766583
4.685521
4.717708
4.554987
4.561543
4.499555
4.457831
##ZVALUE=320
0.780821
0.933409
0.845790
0.827909
0.802875
0.847578
0.728965
0.739694
0.789762
0.991821
0.861883
0.879765
0.848770
0.940561
0.950694
0.926852
0.840425
1.028776
1.069903
1.023412
1.064539
1.067519
1.110435
1.064539
0.971556
1.166463
1.194477
1.080632
1.238585
1.192689
1.113415
1.294613
1.198649
1.183748
1.435876
1.524687
1.634955
1.676679
1.988411
2.057552
2.326965
2.455711
13.464689
43.690801
133.455992
252.501965
488.148928
711.661577
999.006629
1015.712023
1015.712023
1015.712023
1015.712023
983.136892
669.437647
433.492661
201.591849
103.773475
36.535859
15.873909
9.337664
9.656549
13.218522
18.315911
29.070973
41.680932
61.150789
77.099800
95.365644
102.772713
105.037689
98.977685
84.925890
70.071816
49.716830
36.205649
22.076964
15.032887
8.898973
6.894469
5.608797
4.805923
5.019903
4.655719
4.662871
4.445910
4.597902
4.601479
4.689693
4.657507
4.508495
4.535913
4.553795
4.570484
4.284978
4.218817
4.338622
4.181862
4.335642
4.573464
4.439950
4.247427
4.019737
4.548430
4.390478
4.480481
4.200935
4.284978
4.200935
4.341602
4.104972
4.309416
4.105568
4.143715
4.162788
3.881454
##ZVALUE=325
0.876784
0.987649
0.845790
0.764728
0.908971
0.773668
0.843406
0.827909
0.774860
0.841618
0.890493
0.746846
0.976920
0.913739
0.890493
0.833869
0.953674
1.019835
1.028776
0.951886
0.918508
0.807643
1.129508
1.019835
1.186728
1.128912
0.972748
1.148582
1.197457
1.080632
1.050830
1.184940
1.256466
1.406670
1.246929
1.324415
1.546741
1.551509
1.623631
1.612902
1.746416
1.945496
2.148747
2.132654
6.489754
26.038885
91.890693
183.688998
385.719538
588.669777
894.227028
1015.712619
1015.712619
1015.712619
1015.712619
1015.712619
739.727616
519.387722
279.507637
153.631568
55.716634
22.021532
9.102821
7.972717
9.220839
11.340976
17.868876
25.559664
42.345524
57.489872
76.951981
87.986588
97.876787
98.578930
91.445446
81.370473
62.148571
47.925711
30.419827
20.905733
12.150407
8.571744
6.354451
5.174875
4.574656
4.491806
4.055500
3.930926
3.887415
4.060864
3.818870
4.002452
3.940463
3.703833
3.999472
3.807545
3.906488
3.841519
4.095435
4.001856
3.979802
3.953576
4.052520
4.036427
3.958941
3.915429
4.022717
3.801584
3.853440
3.617406
3.805757
3.704429
3.707409
3.373623
3.671646
3.561974
##ZVALUE=330
0.887513
0.861883
0.809431
0.735521
0.836849
0.793934
0.804663
0.835657
0.713468
0.794530
0.768900
0.805855
0.865459
0.843406
0.761747
0.792742
0.929832
0.827909
0.872612
0.943542
0.924468
0.949502
0.889897
0.891685
0.915527
0.814795
0.999570
1.054406
0.971556
1.078844
1.109838
1.216531
1.340508
1.208782
1.160502
1.129508
1.206994
1.237988
1.378655
1.347661
1.613498
1.653433
1.842976
1.819730
1.968741
2.150536
2.947450
9.510517
48.468709
112.624764
266.138911
438.987613
738.897920
960.553885
1015.712023
1015.712023
1015.712023
1015.712023
935.750008
709.656477
404.588580
225.772858
83.287954
35.347939
11.492968
7.779598
7.283688
7.973909
11.424422
16.265512
26.870966
36.938787
53.582788
67.545772
82.108974
90.232491
91.488957
85.210800
71.008801
58.825612
42.025447
30.405521
19.788742
13.605952
8.599758
6.077886
4.787445
4.218817
4.006624
3.956556
3.609657
3.433824
3.668666
3.784895
3.578663
3.537536
3.442764
3.490448
3.764629
3.548861
3.820658
3.709793
3.425479
3.841519
3.547668
3.468990
3.629923
3.762841
3.450513
3.459454
3.523827
3.151894
3.306866
3.464818
3.321767
3.077984
##ZVALUE=335
0.868440
0.685453
0.720620
0.707507
0.698566
0.907779
0.883937
0.834465
0.717640
0.768900
0.880957
0.714660
0.836849
0.726581
0.688434
0.825524
0.809431
0.791550
0.659823
0.831485
0.939965
0.802875
0.922680
0.890493
0.979900
0.929832
0.958443
0.803471
0.979900
0.965595
1.133680
1.091957
1.169443
1.121759
1.101494
1.247525
1.161695
1.064539
1.157522
1.204610
1.350641
1.400709
1.460910
1.506805
1.595616
1.736879
1.827478
1.959801
2.252460
4.459620
23.861527
66.033602
181.421638
322.513580
589.704514
829.536915
1015.712023
1015.712023
1015.712023
1015.712023
981.931090
759.427547
461.588502
287.233591
128.225684
56.537986
15.965700
8.466840
7.042885
6.882548
8.117557
10.076761
15.775561
22.833943
36.371946
47.822595
64.672828
75.667500
84.128976
84.295869
78.715682
69.477558
54.546595
43.125749
28.577447
20.892620
13.018847
9.098649
5.788803
4.858971
3.883839
3.757477
3.836751
3.327727
3.263950
3.227592
3.306866
3.202558
3.325939
3.509521
3.408790
3.489852
3.328919
3.410578
3.251433
3.401637
3.351569
3.344417
3.333688
3.403425
3.473759
3.092885
3.234744
3.158450
3.117919
3.131628
##ZVALUE=340
0.731945
0.622869
0.618696
0.659823
0.665784
0.821948
0.686646
0.755787
0.851750
0.887513
0.746846
0.767708
0.778437
0.786781
0.692606
0.811815
0.721812
0.828505
0.786781
0.742674
0.811815
0.775456
0.808835
0.823736
0.908971
0.874996
0.902414
0.792742
0.833869
0.938773
0.927448
0.998974
0.985861
1.034737
1.162887
1.087785
0.920892
1.347661
1.206994
1.194477
1.180768
1.165867
1.158714
1.203418
1.270771
1.478791
1.476407
1.644492
1.634955
1.667738
1.869798
2.891421
12.281537
39.307475
122.455955
244.004726
494.956970
713.421702
988.540649
1015.712619
1015.712619
1015.712619
1015.712619
867.210031
586.758852
385.057926
189.311504
91.330409
22.757649
9.431839
6.985664
6.467700
6.602407
7.209778
9.908676
13.874769
23.364425
33.205748
48.810840
60.223937
72.466731
77.476501
78.277588
73.585510
64.209700
53.975582
39.470792
29.901862
18.823743
12.990832
7.875562
5.641580
4.230738
3.729463
3.360510
3.428459
3.436804
3.301501
3.396869
3.361702
3.182888
3.240705
3.315806
3.274679
3.151894
3.365874
3.229976
3.162622
3.275871
3.108978
3.056526
3.068447
3.047585
3.050566
3.059506
2.779961
##ZVALUE=345
0.646710
0.653863
0.768900
0.724792
0.891685
0.728965
0.881553
0.692606
0.777841
0.670552
0.696778
0.829697
0.761747
0.892878
0.736713
0.775456
0.921488
0.877976
0.865459
0.886917
0.830889
0.903606
0.902414
0.892878
0.906587
0.762939
0.922680
0.927448
0.880957
0.899434
0.892878
0.865459
1.070499
0.899434
0.914931
0.971556
1.008511
1.062751
1.118779
1.010895
1.041889
1.115799
1.073480
1.146793
1.296997
1.317859
1.358986
1.336932
1.468658
1.482964
1.593828
1.700521
1.764894
2.052784
5.194545
20.533800
83.896518
170.353651
358.267426
552.924871
847.356915
1015.712023
1015.712023
1015.712023
1015.712023
965.726972
704.094768
501.170754
265.955925
144.662857
47.265887
16.008615
7.263422
6.619692
6.182790
6.014705
6.585717
8.522868
13.351440
19.103885
30.800700
41.740537
54.527521
63.572526
71.048737
73.230863
69.933534
62.713623
50.408840
40.143728
28.011799
20.081997
12.003779
8.744597
5.551577
4.369617
3.528595
3.458858
3.194809
3.222823
2.912879
3.055930
3.002882
3.113747
3.064871
3.007650
2.850890
2.996922
3.176928
2.969503
2.961755
2.949834
3.012419
3.075600
2.983809
2.897978
##ZVALUE=350
0.748634
0.732541
0.835657
0.899434
0.680685
0.721812
0.742674
0.734925
0.727773
0.756979
0.789762
0.687838
0.817776
0.851750
0.788569
0.779629
0.804663
0.804663
0.847578
0.835657
0.895858
0.882745
0.842810
0.899434
0.853539
0.808835
0.871420
0.906587
0.934601
0.999570
1.053810
0.907779
0.809431
0.872612
1.003742
1.021624
0.890493
0.903606
0.963807
1.080632
1.055598
1.074672
1.209974
1.073480
1.009703
1.221895
1.228452
1.152754
1.233816
1.317859
1.435876
1.416802
1.558661
1.782775
1.857877
2.167821
3.097653
11.244416
54.783821
125.048757
288.999677
468.704700
748.357773
947.780013
1015.712619
1015.712619
1015.712619
989.588499
707.369447
496.848822
277.192593
154.093504
56.775808
22.172928
7.903576
6.281734
5.736947
5.266666
5.164742
5.823970
8.295774
11.213422
18.215775
25.611520
37.031770
46.497583
57.425499
64.077973
67.103505
64.693689
58.162808
49.714446
36.522746
27.688742
18.328428
12.966990
8.200407
6.108880
4.498959
3.842711
3.431439
3.078580
3.088713
2.903938
2.931952
3.067851
3.076792
3.113747
3.072619
2.925992
2.962947
3.007650
2.873540
2.903938
2.802610
2.827644
##ZVALUE=355
0.704527
0.689626
0.751615
0.613928
0.673532
0.773668
0.698566
0.724792
0.887513
0.874996
0.937581
0.735521
0.887513
0.653863
0.658631
0.793934
0.755787
0.829697
0.772476
0.732541
0.889897
0.596642
0.768900
0.772476
0.783801
0.810623
0.799894
0.924468
0.776649
0.903606
0.885725
0.941753
1.007915
1.119971
0.985861
0.973940
0.964999
1.173615
1.105666
1.026988
1.081824
1.031756
0.987649
0.942945
0.968575
1.318455
1.305938
1.331568
1.448989
1.353621
1.405478
1.413822
1.438856
1.518726
1.500845
1.702905
1.859665
2.136827
2.366900
5.122423
37.890673
119.012594
312.401652
503.335595
807.639956
1004.948020
1015.712023
1015.712023
1015.712023
1011.505723
766.952038
566.011667
322.866440
180.755854
69.352984
29.160976
8.591413
6.022453
5.482435
5.097985
4.620552
4.847646
5.484819
6.702542
10.340810
14.545918
22.997856
30.897856
42.370558
49.967766
58.363676
60.842633
58.725476
54.121614
45.461655
37.091970
26.925802
19.922853
12.804866
9.121895
5.772710
4.480481
3.582835
3.396869
3.005862
3.049970
3.100634
2.978444
2.997518
2.813935
2.896786
2.779961
2.866983
2.701879
2.828836
2.660751
##ZVALUE=360
0.727773
0.601411
0.810623
0.736713
0.704527
0.781417
0.744462
0.593662
0.764728
0.830889
0.787973
0.702739
0.810623
0.783801
0.865459
0.789762
0.933409
0.765920
0.839829
0.774860
0.945926
0.726581
0.821948
0.982881
0.919700
0.811815
0.728965
0.756979
0.944734
0.970960
0.936985
0.872612
1.051426
0.928640
0.934601
0.901818
1.058578
0.853539
0.953674
0.977516
0.931621
1.096725
1.068711
1.023412
1.139641
1.116991
1.198649
1.250505
1.128912
1.295805
1.324415
1.375675
1.531839
1.465678
1.553893
1.649857
1.504421
1.876950
1.937747
1.997948
2.411604
3.377795
16.888976
56.617856
183.405876
343.952775
627.553463
858.459473
1015.712023
1015.712023
1015.712023
1015.712023
887.840986
673.502684
405.066013
244.638920
105.103850
45.457482
12.642741
6.643534
5.551577
5.133748
5.082488
4.654527
4.403591
4.839897
5.980730
7.826686
12.713671
17.805696
26.311874
34.701824
44.682622
50.461888
54.181814
55.303574
50.355792
44.973493
35.906434
28.773546
19.926429
14.487505
9.509921
6.922483
4.784465
3.850460
3.044605
3.098845
2.898574
2.797842
2.662539
2.597570
2.761483
2.598763
2.431870
2.459884
##ZVALUE=365
0.627637
0.693798
0.590682
0.653863
0.692606
0.623465
0.658631
0.785589
0.623465
0.780821
0.897646
0.765920
0.694990
0.660419
0.777841
0.770688
0.748634
0.896454
0.781417
0.815988
0.726581
0.798702
0.826716
0.912547
0.883937
0.778437
0.760555
0.930429
0.806451
0.867844
0.825524
0.742674
0.922680
0.876784
1.102686
0.997782
0.918508
0.989437
1.042485
1.038909
1.093745
1.121759
1.030564
1.078844
1.080632
0.980496
1.076460
1.237988
1.159906
1.106858
1.096725
1.355410
1.401901
1.223683
1.296997
1.485944
1.482964
1.571774
1.461506
1.615882
1.766682
1.857877
2.261996
2.655983
9.140968
30.064583
107.692480
219.336748
460.929871
683.588982
960.663557
1015.712619
1015.712619
1015.712619
966.104865
770.180821
478.686690
292.176008
129.849911
61.843991
19.615889
8.346438
5.287528
4.955530
4.646778
4.427433
4.166961
4.033446
4.040599
4.820824
6.904602
10.206699
15.755892
21.627545
30.239820
36.683679
44.822693
48.601627
50.113797
48.708916
42.960644
37.175417
28.292537
21.755695
14.814734
10.840893
6.823540
4.622936
3.814697
3.015995
2.830625
2.665520
2.680421
2.712607
2.400875
2.342463
##ZVALUE=370
0.661612
0.679493
0.639558
0.781417
0.792742
0.770688
0.760555
0.680685
0.703931
0.889897
0.767708
0.676513
0.711679
0.632405
0.690818
0.797510
0.842810
0.705719
0.736713
0.668764
0.753999
0.760555
0.823736
0.786781
0.739694
0.721812
0.979900
0.783801
1.023412
0.835657
0.922680
0.946522
0.824928
0.836849
0.827909
0.956655
0.846982
0.817776
0.839829
0.885725
0.932813
0.847578
1.046658
0.960827
0.954866
1.141429
0.940561
0.936985
0.986457
1.052618
1.078844
0.982881
1.111627
1.185536
1.127720
1.228452
1.362562
1.296997
1.360774
1.340508
1.492500
1.481771
1.695752
1.858473
2.041459
2.131462
4.514456
17.656684
76.439977
168.187618
364.104509
554.528832
824.905634
1002.437472
1015.712619
1015.712619
1003.751755
822.185874
544.076562
356.947780
177.161694
89.892745
31.015873
12.657642
5.627871
4.958510
4.610419
4.285574
3.902912
3.590584
3.467798
3.625751
4.321933
5.738735
8.862615
12.674928
19.298792
24.986863
33.682585
39.426684
45.146942
47.579408
46.293736
42.635798
35.690665
29.329658
21.164417
14.949441
11.108518
7.176995
5.190969
3.941655
3.118515
2.713799
2.724528
2.496839
##ZVALUE=375
0.697970
0.773668
0.807643
0.724792
0.580549
0.747442
0.611544
0.733733
0.773668
0.776649
0.806451
0.592470
0.747442
0.831485
0.758767
0.783801
0.700951
0.661612
0.678897
0.673532
0.711679
0.802875
0.872612
0.729561
0.706911
0.814795
0.799894
0.963807
0.893474
0.885725
0.792742
0.867844
0.938773
0.767708
0.754595
0.899434
0.789762
0.830889
0.831485
0.948906
0.883937
0.865459
0.900626
1.113415
1.047850
0.949502
0.892878
0.862479
0.854731
1.049638
1.118779
0.990629
0.943542
0.925660
1.067519
1.115799
1.075864
1.164675
1.174808
1.086593
1.366735
1.296997
1.070499
1.413822
1.503825
1.624823
1.707673
1.911521
2.642870
7.277727
38.688779
94.105601
231.432915
399.986506
670.746565
880.580544
1015.712619
1015.712619
1015.712619
924.715996
668.644905
469.840765
257.684588
145.540833
56.103468
23.773909
7.238984
4.813671
4.421473
4.088879
3.772974
3.637671
3.383756
3.394485
3.343821
3.645420
4.789829
6.562471
10.893941
14.954805
22.660494
28.294921
35.960674
41.149855
44.620633
43.461919
41.302443
35.177469
30.306578
23.138523
17.812848
12.349486
8.877516
5.702972
4.274845
3.134608
##ZVALUE=380
0.661612
0.624657
0.617504
0.618696
0.596642
0.677705
0.640750
0.740886
0.630617
0.701547
0.719428
0.779629
0.787973
0.559688
0.641942
0.705719
0.638962
0.678897
0.801682
0.667572
0.726581
0.698566
0.738502
0.737906
0.813603
0.733733
0.810623
0.812411
0.836849
0.732541
0.650883
0.875592
0.843406
0.785589
0.778437
0.754595
0.773668
0.781417
0.844598
0.800490
0.904799
0.829697
0.838637
0.998974
0.928640
1.022816
0.853539
1.172423
0.863671
0.922680
0.966787
0.927448
0.869632
0.981688
0.984669
1.002550
1.097918
0.963807
1.055598
1.207590
1.031756
1.139641
1.292825
1.108646
1.271963
1.271963
1.590848
1.535416
1.686811
2.048612
2.283454
3.340840
16.115904
52.351952
163.152814
301.532745
567.176938
805.851817
1015.712023
1015.712023
1015.712023
1008.239985
791.419744
587.159991
341.970921
200.878978
82.472563
37.070513
10.311604
5.138516
4.132986
4.017949
3.641844
3.384948
3.269911
3.316998
3.304482
3.115535
3.483891
4.196763
6.167889
8.821487
13.922453
19.219518
26.289821
32.230616
38.510561
41.465759
42.006969
40.134788
36.871433
29.959679
24.858713
17.577410
13.233423
8.568764
##ZVALUE=385
0.692606
0.612736
0.639558
0.625849
0.597835
0.555515
0.890493
0.521541
0.504851
0.660419
0.577569
0.674725
0.613928
0.676513
0.703931
0.846982
0.650883
0.639558
0.701547
0.589490
0.765920
0.667572
0.720620
0.601411
0.772476
0.833869
0.842810
0.787973
0.720620
0.912547
0.740886
0.803471
0.633597
0.678897
0.798702
0.806451
0.745654
0.684857
0.923872
0.894666
0.860691
0.942945
0.918508
0.838637
0.781417
1.031756
1.051426
0.907779
0.970960
0.887513
0.967979
0.957847
0.981688
0.982881
0.969768
0.938773
1.022816
0.937581
1.125932
1.112819
1.062751
1.153946
1.137853
1.069903
1.162887
1.214743
1.170635
1.353621
1.550913
1.557469
1.758933
2.005696
1.920462
2.316833
6.792545
23.633838
91.997385
205.667615
441.150665
661.984682
940.705538
1015.712619
1015.712619
1015.712619
895.580649
704.806447
445.365906
282.184482
128.972530
62.035918
19.903779
7.359982
4.313588
3.970861
3.814697
3.571510
3.603697
3.234744
2.907515
3.021955
2.975464
3.086925
3.603697
4.591942
7.409453
10.772943
16.033649
23.032427
27.667880
33.439994
36.843419
38.670897
38.208961
34.743547
31.283498
24.434924
##ZVALUE=390
0.771880
0.615716
0.814795
0.705719
0.591874
0.657439
0.666976
0.605583
0.789762
0.638962
0.739694
0.546575
0.422597
0.666976
0.526905
0.679493
0.779629
0.691414
0.658631
0.844598
0.674725
0.613928
0.646710
0.796914
0.712872
0.701547
0.791550
0.706911
0.748634
0.632405
0.697970
0.584722
0.789762
0.775456
0.816584
0.946522
0.918508
0.855923
1.064539
0.869632
1.001954
0.928640
1.104474
1.022816
0.947714
0.832677
1.070499
1.028776
0.955462
0.982881
1.035929
0.854731
0.809431
1.010895
0.947714
1.029968
0.960827
0.976920
1.152754
1.049638
1.001954
1.016855
1.107454
1.213551
1.078844
1.235604
1.222491
1.308918
1.351833
1.590848
1.598597
1.689792
1.683831
1.824498
1.658797
2.142787
3.192425
16.484857
50.446987
160.244703
305.128694
580.863953
796.308517
1012.298465
1015.712619
1015.712619
1015.712619
826.407671
625.137687
359.158516
207.014680
83.935857
38.595796
11.777878
5.343556
3.791451
3.833771
3.716946
3.694892
3.632903
3.532767
3.196597
3.056526
3.000498
3.047585
3.400445
4.311800
6.183982
8.569956
13.478994
17.892718
24.080873
28.586984
33.904910
36.156774
36.097765
##ZVALUE=395
0.771880
0.874996
0.774860
0.607967
0.622869
0.656843
0.667572
0.515580
0.543594
0.608563
0.592470
0.680685
0.740886
0.660419
0.693798
0.742674
0.847578
0.797510
0.736713
0.545979
0.627637
0.713468
0.697970
0.542998
0.655651
0.697970
0.740886
0.773668
0.659823
0.672936
0.770688
0.733733
0.715852
0.877976
0.781417
0.845790
0.942945
1.031756
0.964999
0.924468
0.847578
1.049638
0.817776
1.017451
0.919700
0.959635
0.909567
1.064539
1.024604
1.064539
0.995994
0.906587
1.042485
0.980496
1.000762
1.040697
1.021624
1.053810
0.958443
1.010895
1.101494
1.016855
1.162887
1.088977
1.292825
1.222491
1.355410
1.406670
1.416802
1.362562
1.626611
1.522899
1.735687
1.631975
1.626611
1.754761
1.744628
1.877546
2.589822
7.425547
38.137436
94.179511
231.526494
399.040580
678.594708
891.718864
1015.712619
1015.712619
1015.712619
973.652005
707.778931
492.243767
260.763764
140.091777
51.535964
21.773577
6.539822
4.150867
3.817677
3.713965
3.655553
3.830791
3.534555
3.577471
3.284812
3.103614
2.962947
2.819896
3.057718
3.670454
4.991889
7.484555
10.611415
15.837550
20.715594
26.652813
##ZVALUE=400
0.878572
0.821948
0.647902
0.579953
0.564456
0.618696
0.599623
0.598431
0.656843
0.687838
0.631809
0.800490
0.759959
0.687838
0.582933
0.744462
0.587702
0.736713
0.672936
0.548959
0.694990
0.692606
0.590682
0.685453
0.620484
0.553727
0.747442
0.738502
0.805855
0.870824
0.845790
0.769496
0.670552
0.790954
0.877976
0.882745
0.943542
0.940561
0.873804
0.994802
1.028776
0.958443
1.061559
1.081824
1.012683
0.916719
1.044869
1.052618
0.894666
0.986457
0.959635
1.109838
1.050830
0.980496
1.055598
1.012683
0.964999
1.006722
0.917912
0.960827
1.090765
1.112819
1.219511
1.081824
0.983477
1.183748
1.361966
1.329780
1.481771
1.513958
1.542568
1.389980
1.433492
1.479983
1.405478
1.520514
1.572967
1.572967
1.731515
1.832843
2.189875
3.655553
19.043684
54.120421
153.618455
289.523005
549.279451
768.094659
1010.221839
1015.712023
1015.712023
1015.712023
792.549849
580.222607
327.865481
195.873976
83.953738
37.890673
10.752678
5.262494
3.887415
3.839731
3.754497
3.737807
3.849864
3.738999
3.463626
3.286600
2.990961
2.922416
2.555847
2.760887
3.057718
4.407763
6.127954
9.655952
##END
