##TITLE=4-3
##FORMAT=SPECTACLE-ASCII V-1.2
##DATA TYPE=ULTRAVIOLET SPECTRUM
##SECOND TYPE=ULTRAVIOLET SPECTRUM
##DATE=04/11/18
##TIME=14:18:33
##SPECTROMETER/DATA SYSTEM=SPECTACLE
##XUNITS=NM EM
##YUNITS=ENERGY
##YFACTOR=1
##FIRSTX=220
##LASTX=450
##NPOINTS=116
##3DDATA=Equidistant
##ZUNITS=NM EX
##FIRSTZ=210
##LASTZ=400
##ZPOINTS=39
##XYDATA=(Y..Y)
##ZVALUE=210
19.229650
17.547607
16.060472
11.522770
10.287762
10.279417
9.396672
10.017753
7.994771
6.115437
5.180836
3.884435
3.160834
4.004836
3.571510
3.775954
4.320741
4.027486
4.066825
4.629493
4.597902
4.716516
4.932880
4.751682
5.344748
5.352497
5.945563
5.782843
5.896688
6.108880
6.001592
8.062720
6.424785
6.647706
7.783771
6.852746
7.904768
7.598996
7.847548
9.300709
8.702874
8.892417
8.041859
9.376407
8.769631
9.373426
8.669496
8.486509
10.143518
9.452701
9.348989
10.067821
10.426641
10.010600
10.585785
9.542704
9.580851
10.426641
10.394454
9.846687
10.108948
9.130836
9.369850
9.395480
10.401607
10.990500
10.461807
10.168552
12.187958
11.294484
13.703704
15.563965
18.360615
18.162727
19.734502
21.987557
20.683408
20.339489
19.866824
20.693541
17.275810
15.970469
14.731884
13.054609
11.205673
10.392666
9.778738
8.178949
9.893775
11.079907
11.916757
16.733408
19.455552
24.466515
31.852722
36.589503
41.377544
48.325658
56.037903
59.652925
62.036514
59.592724
62.041879
61.884522
62.551498
58.263540
53.730607
46.222806
43.235421
36.761761
30.657649
23.359656
19.644499
14.844537
15.721917
14.754534
##ZVALUE=215
50.667524
45.243502
36.318898
30.521750
24.565458
19.495487
16.661882
16.027689
15.266538
16.000867
12.836456
9.612441
6.658435
5.412698
4.912615
3.757477
4.232526
4.106760
3.542900
4.245639
3.988743
4.890561
4.607439
4.894733
4.889965
5.007982
5.375743
4.688501
5.804896
5.993843
6.475449
6.150603
8.053780
7.171631
6.794930
7.375479
8.418560
8.614659
8.944869
7.837415
8.480549
9.690523
8.579493
9.347796
9.318590
9.747744
9.306669
10.583997
11.339784
9.866953
10.369420
11.501908
11.531711
10.805726
10.770559
10.757446
11.216998
12.133718
12.289882
11.271834
11.686683
10.906458
11.998415
11.226535
10.282993
10.710955
11.414886
10.943413
12.736917
11.971593
14.617443
14.377832
16.440749
16.454458
17.076731
17.716885
16.975999
16.236901
17.129779
15.365481
14.778972
15.349984
12.632608
12.255907
9.892583
9.353757
8.874536
8.741617
7.464886
7.125735
6.491542
7.567406
7.922649
8.515716
10.791421
15.633702
19.706488
25.588870
33.474565
42.889714
49.495697
57.116747
66.440701
74.252486
82.889795
87.693930
90.463758
94.078779
90.962648
84.402561
81.273913
75.301528
69.390535
60.511827
51.294565
38.488507
##ZVALUE=220
101.320744
102.247000
99.622607
87.969899
74.353814
56.803823
42.201877
30.035973
26.664734
25.481582
26.505589
25.559664
21.915436
17.289519
15.279651
10.794997
8.013844
6.061792
4.347563
4.872680
4.657507
4.183650
5.067587
4.450679
5.420446
4.840493
5.875826
5.467534
5.838871
6.500483
6.360412
7.299781
8.282661
7.674694
7.983446
9.045601
9.349585
9.170771
8.961558
9.932518
9.976625
11.739731
11.108518
8.955598
10.333657
10.282993
11.669993
11.676550
11.883974
11.948943
13.744831
14.760494
13.599992
13.833642
14.032722
14.516711
15.150905
15.805960
15.022755
14.899969
14.057755
13.439655
13.770461
13.782978
12.794733
13.025999
13.286471
13.431907
13.390779
14.292598
15.086532
16.212463
17.186999
17.009974
17.250776
17.244816
18.180609
17.685890
14.626980
15.860796
14.563799
13.691783
11.804700
11.518598
10.932684
9.065866
8.469820
7.910728
8.079410
8.400679
7.218719
7.467866
6.705523
7.060766
6.980896
7.498860
7.066727
7.582903
8.094907
11.641979
16.642809
21.739602
31.461716
40.146708
53.673983
66.103935
83.133578
97.790956
109.298825
122.680664
132.970810
136.826634
140.815973
140.930414
134.572983
126.160979
##ZVALUE=225
127.956867
128.533840
157.115459
170.448422
166.447759
152.767897
131.726861
94.983578
71.889758
54.000616
41.132569
37.728548
36.625862
41.082501
36.863685
35.172701
28.959513
19.798875
15.495420
11.368990
8.210540
6.248951
5.705953
5.341768
5.534887
5.735755
5.190969
5.604625
7.023811
7.145405
6.703734
8.052588
7.735491
8.209944
9.063482
9.881854
10.582805
10.446906
11.489987
10.583997
12.421608
13.032556
11.948943
12.900829
12.610555
13.027787
13.853908
13.621449
13.620853
13.631582
15.184879
17.879605
17.168522
18.854737
18.208623
18.230677
17.987490
18.108487
17.495751
18.226504
16.830564
16.954541
15.820861
16.249418
16.821623
15.886426
16.258955
15.935898
16.711950
16.091466
16.236901
16.991496
18.130541
17.338991
18.249750
17.119646
18.600821
17.408729
18.030405
14.562607
14.902949
13.664961
12.510419
11.366606
10.223985
10.444522
9.203553
9.051561
9.398460
8.465648
8.462667
7.967949
7.355809
7.527471
7.599592
7.233620
8.403659
7.410645
8.351803
7.039905
7.460713
7.508993
8.183718
10.999441
12.952685
22.312999
28.517842
43.792725
54.297447
78.662634
96.970797
123.472810
137.140751
167.455673
182.182789
202.196836
##ZVALUE=230
84.962845
89.720488
143.627524
190.085769
236.756802
274.006724
280.337930
259.646773
233.299732
173.198581
127.582550
85.755587
65.313578
57.841539
56.647658
62.108636
56.867599
56.043863
51.237941
37.880540
29.431581
20.562410
12.391806
8.955598
6.372929
5.580783
6.038547
6.779432
6.659627
7.600784
7.091761
8.017421
7.913709
8.516908
8.572936
8.890629
10.343790
11.915565
11.661649
11.693835
13.193488
12.886524
12.730956
13.346672
13.352633
13.792515
13.786554
14.275908
16.005635
16.412735
17.331839
16.358495
18.795729
18.273592
18.984675
18.462539
17.887950
18.623471
17.090440
20.355582
18.948913
18.202662
17.012954
16.227961
18.536448
16.925931
16.178489
17.797947
17.587543
17.930865
18.553734
19.834638
19.209981
20.012856
20.655990
20.076632
19.985437
18.038750
17.895699
16.044974
14.641881
16.043782
13.154745
13.196468
12.326837
11.905432
10.745525
9.858608
11.031628
10.097623
10.690689
9.441972
8.832812
8.496642
9.213686
8.284450
8.540750
8.971691
8.740425
8.417964
9.107590
8.367896
8.297563
8.172989
8.211732
8.094907
8.407831
10.843873
11.449456
15.330911
23.468733
37.848949
52.556992
79.726577
104.852915
147.402883
##ZVALUE=235
25.909543
27.715564
62.241554
109.231472
182.041526
273.588896
347.511768
429.557562
439.025760
419.699550
371.739864
286.606550
214.498639
138.831735
105.178952
81.957579
79.007745
88.700652
92.444420
88.199973
80.909729
129.690766
52.181482
39.114952
23.718476
17.041564
9.873509
8.427501
6.318688
6.824732
7.235408
7.907748
7.856488
8.203983
9.603500
8.623600
10.521412
10.798573
11.688471
11.431575
12.199879
11.254549
14.102459
12.810826
13.149977
13.548732
12.473464
14.180541
14.149547
13.411641
13.805628
15.587807
15.119910
16.182661
14.619827
16.316772
16.798973
16.392469
15.923977
16.122460
17.029643
15.250444
14.823675
19.331574
15.467405
17.369986
17.588735
16.590953
18.613935
18.230677
18.729568
20.555854
19.270778
20.385981
21.352768
20.712614
21.453500
17.891526
18.640757
18.085837
17.566681
15.839934
15.093684
13.339520
13.519526
13.190508
11.609793
11.517406
11.198521
11.721849
11.458993
9.937882
10.491610
11.137724
10.339618
9.894967
10.010600
9.230971
10.177493
9.925961
10.223985
9.008646
9.762645
10.263920
10.310411
9.392500
9.596944
9.219646
9.787679
9.832978
9.264946
10.086894
9.131432
13.368726
18.935800
32.717586
##ZVALUE=240
3.329515
3.359914
10.289550
27.085543
59.400797
135.140419
224.179626
389.400721
494.278669
633.773804
677.158833
668.881536
596.790910
471.220613
364.764929
229.887962
166.130662
116.411448
104.102492
109.038949
113.995671
123.338699
119.155645
102.030635
90.326667
64.944625
49.872994
35.626888
21.307468
14.752746
11.017919
8.608699
9.685755
8.449554
10.208488
10.216832
10.190606
10.955930
11.408925
11.083484
13.511777
11.690855
12.267828
13.037920
12.757778
13.087988
12.679696
13.628602
14.023781
13.186932
15.112758
14.187694
14.621615
15.118718
15.615821
15.216470
14.996529
16.675591
15.741587
15.923977
15.239716
15.302896
15.159845
15.730858
14.717579
16.327500
17.033815
15.834570
17.975569
19.126534
20.125508
19.914508
21.650791
20.647645
22.049546
22.420883
21.893978
19.327998
19.433498
18.720627
18.376708
16.008615
15.108585
14.245510
15.468597
13.546944
12.724996
13.122559
12.127757
13.003945
14.485717
12.312531
11.513829
10.555983
11.054873
11.538863
11.356473
11.375546
10.695457
11.404753
12.389421
11.006594
10.189414
11.441708
10.846853
10.596514
10.968447
10.595918
10.067821
10.498762
10.878444
10.523796
9.799600
10.652542
9.960532
10.187626
##ZVALUE=245
2.509952
2.811551
3.008842
3.305674
5.434752
19.395947
45.494437
117.124915
204.745531
356.022716
490.374565
662.145019
735.288858
763.217807
721.281767
606.681705
486.692786
327.658653
224.585533
139.297843
107.948780
103.524923
117.908716
127.264857
127.661824
129.860640
116.885900
99.449754
72.652698
54.408908
36.294460
24.143457
14.767647
10.961890
9.249449
8.178949
9.756684
9.628534
10.177493
9.580851
10.994673
10.634661
11.335611
11.822581
13.033748
10.564923
12.405515
11.775494
11.815429
12.560487
12.164712
12.951493
12.778640
12.618899
12.899637
12.826920
12.439489
13.345480
13.253689
12.258887
13.407469
13.054609
12.759566
13.726950
13.070703
13.245940
12.757778
13.649464
13.736486
15.350580
16.607642
16.196966
17.757416
18.453598
17.451644
17.762780
16.792417
16.222000
16.890764
15.154481
14.944673
13.556480
12.978911
13.567805
11.848807
12.067556
11.725426
10.325909
10.628700
10.271668
10.239482
9.770989
9.570718
10.305643
9.762645
9.287596
9.193420
9.637475
9.361506
8.738637
9.045601
9.619594
8.544922
8.122921
9.896755
9.780526
10.011792
8.901954
9.824634
9.654760
9.619594
9.047985
9.190440
8.787513
9.063482
7.636547
##ZVALUE=250
2.642870
2.359748
2.107620
2.483726
2.389550
2.829432
3.194809
10.763407
34.840703
91.152787
171.299577
330.189466
484.286547
676.568747
784.948468
861.393809
858.874917
760.085583
640.860796
428.878665
300.063491
177.957416
123.597980
100.725889
106.933713
122.688413
133.519769
139.824748
135.056973
126.428604
101.654530
85.067749
55.663586
39.694905
22.204518
15.401840
11.004806
10.861754
9.534955
10.012984
10.176897
10.193586
11.683702
12.316704
11.594892
11.634827
12.320876
11.438727
12.021661
12.823939
12.812614
12.358427
13.250709
13.046861
11.846423
11.739731
12.660623
12.266636
12.761950
12.953877
12.058616
11.498928
12.593865
11.684895
12.413859
12.062788
11.729598
11.984706
13.326406
12.229681
13.413429
14.686584
14.787912
15.383959
15.999675
14.783740
13.929605
13.926625
13.803840
12.910962
11.365414
11.517406
10.020733
9.548664
10.099411
10.414720
9.471774
9.962916
9.369850
8.400679
8.407831
8.720756
8.683801
7.490516
8.560419
7.862449
8.326769
7.712841
7.550716
7.639527
7.841587
8.045435
7.895827
7.610917
8.472800
8.379817
7.791519
8.562803
8.359551
7.912517
7.977486
7.500648
7.610917
7.503629
7.567406
7.882714
##ZVALUE=255
1.786947
2.235770
1.988411
2.202988
2.104640
2.264977
2.272725
2.443790
2.762675
6.132722
19.727945
67.678690
138.342977
285.953879
433.958769
661.076903
810.636878
958.955884
1005.911827
941.709876
818.509459
601.450801
422.316790
234.493613
148.697495
96.174479
91.354847
102.486610
125.683546
139.632821
150.829554
146.979690
131.993890
111.734867
80.567002
59.713721
39.009452
24.852753
16.633868
13.744831
12.110472
11.252761
12.133718
12.765527
12.206435
12.423992
11.811852
12.971759
13.103485
13.004541
12.696981
13.681650
13.333559
13.813972
13.422966
13.921857
13.506413
12.721419
12.492537
12.864470
12.066960
12.067556
12.719631
11.764765
12.805462
11.604428
12.079477
12.698770
13.330579
12.174845
12.376904
13.766885
15.171766
14.136434
14.607906
13.289452
13.053417
12.430549
12.059808
11.576414
10.569692
10.096431
9.172559
9.552836
9.190440
8.293986
8.340478
7.432699
7.391572
8.291602
7.473826
7.397532
7.883906
7.164478
6.702542
7.343888
7.521510
6.488562
7.608533
7.054806
7.154942
7.383823
7.369518
6.949902
6.641746
7.049441
7.071495
7.574558
7.080436
7.071495
7.069707
7.148981
7.010698
7.197857
6.696582
6.683469
##ZVALUE=260
1.710653
1.710653
1.934767
1.980662
2.010465
2.026558
1.907945
2.057552
2.405643
2.658963
2.357960
3.749728
11.600852
45.661926
96.473694
232.038498
392.255783
658.005476
875.274539
1015.712023
1015.712023
1015.712023
1015.712023
1001.421809
669.386983
433.310866
231.047869
138.649940
86.550713
85.830688
108.421445
128.668547
152.783990
158.350468
152.752995
140.856504
113.894939
89.130998
63.994527
44.856668
30.085444
23.092628
16.671419
14.498830
14.539957
14.506578
15.021563
15.240908
15.440583
16.150475
16.247630
16.361475
16.074777
17.133951
16.219616
15.696883
15.736818
16.636848
16.084909
15.937686
15.457869
15.681982
13.838410
13.435483
14.381409
14.746785
14.271736
13.679862
14.208555
14.521480
14.691949
15.395880
16.885996
16.284585
15.262961
15.166998
13.896823
12.875795
12.024641
11.262894
10.687709
10.060668
9.635687
10.235906
9.210706
7.778406
8.491874
8.015633
8.080602
8.612871
7.097721
7.343888
7.213950
7.601976
7.020831
7.155538
7.694960
7.492900
6.913543
7.113814
6.916523
7.294416
7.098913
7.421970
7.260442
6.667972
7.713437
7.308722
7.517934
6.885529
6.678700
6.740689
7.235408
7.088780
6.963611
6.565452
##ZVALUE=265
1.854897
1.635551
1.926422
1.776814
2.065897
1.825690
2.078414
1.869798
2.145767
2.408624
2.536774
2.405643
2.510548
3.359914
6.539822
30.672550
71.685910
183.270574
344.668627
705.722570
1000.202894
1015.712023
1015.712023
1015.712023
1015.712023
1015.712023
1015.711427
742.681026
355.936885
199.283957
104.385614
78.574419
85.808635
117.208958
138.742924
158.332586
165.715814
159.272552
146.982670
120.205879
96.573830
67.716837
49.996972
32.475591
25.933981
19.644499
19.127727
17.947555
18.936992
18.944740
18.394589
19.308925
20.136833
19.981861
20.623803
19.293427
19.831657
19.307733
19.194484
19.058585
17.686486
17.868876
16.801953
17.685890
15.941858
17.452836
16.776919
16.078949
15.519857
16.908646
17.365813
18.073916
18.160939
17.816424
17.766953
16.222000
15.575886
14.574528
12.840629
11.917949
10.939837
10.744929
10.229945
10.158420
9.318590
9.984970
9.408593
8.429885
8.206964
8.240938
7.946491
7.162690
7.539988
7.380843
7.318854
7.388592
7.420778
7.766485
7.630587
7.141829
7.133484
7.020831
6.953478
6.857514
6.787777
7.097721
7.070899
7.191896
6.784797
6.892681
6.918907
6.970763
7.445812
6.902814
7.149577
6.695986
##ZVALUE=270
1.722574
1.609921
1.627803
1.803637
1.993775
2.022982
2.017617
1.680851
2.028942
1.978874
2.189875
2.273917
2.595782
2.357960
2.651811
3.028512
4.116893
14.875531
42.148829
130.279660
254.022479
480.052829
976.419449
1015.712619
1015.712619
1015.712619
1015.712619
1015.712619
1015.712619
1015.712619
609.346628
332.268476
148.105621
83.960891
72.386861
90.157986
121.352673
143.038630
164.330006
169.947743
168.266892
150.546432
122.501850
103.044510
71.286559
53.687692
37.041903
29.815435
24.725795
22.733808
22.235513
22.701621
22.726655
21.831989
21.879673
22.095442
21.759868
21.861792
21.421909
21.214485
20.877719
19.990802
18.822551
18.918514
18.772483
17.174482
17.642975
16.832948
17.737746
17.792583
19.103885
18.316507
18.776655
18.297434
18.069744
16.331673
15.888810
15.442967
13.948679
12.908578
10.971427
11.806488
10.703802
10.134578
9.398460
9.043813
9.008646
8.836985
8.046627
8.248687
8.104444
8.073449
8.008480
7.551908
7.864833
7.553697
7.566810
7.225871
7.165670
6.902814
6.890893
6.807446
6.272793
6.981492
6.129742
7.017851
7.076859
6.726980
7.175803
6.789565
6.519556
6.866455
7.061958
6.529689
6.813407
6.433725
##ZVALUE=275
1.673698
1.597404
1.625419
1.631975
1.704693
1.724958
1.694560
1.495481
1.954436
1.908541
1.963973
2.042651
2.002716
2.218485
2.141595
2.602935
2.846718
2.748966
3.364682
7.287860
24.621487
86.917877
188.584924
448.492765
789.854527
1015.712619
1015.712619
1015.712619
1015.712619
1015.712619
1015.712619
1015.712619
875.105858
481.400490
195.876956
106.166005
64.641833
68.016648
95.826983
120.715499
147.047639
164.771676
173.670650
168.410540
148.090720
128.905773
99.629760
76.493621
54.426789
41.467547
32.206774
27.677417
24.257898
23.066998
22.960901
23.129582
22.225976
21.648407
21.655560
21.381974
21.420717
21.403432
19.218922
18.694997
19.174814
18.176436
18.106699
17.152429
17.846823
17.825961
17.448664
18.080473
18.372536
17.104745
16.823411
15.959740
14.789701
14.901757
13.853908
12.235641
11.616945
11.324883
10.246634
10.205507
9.734631
9.393692
8.726716
8.428693
8.626580
7.962584
7.614493
7.521510
6.873608
7.478595
7.710457
7.523894
6.955862
6.975532
7.062554
6.496906
6.983876
6.574988
6.796718
6.841421
6.419420
6.322861
6.618500
6.813407
6.952882
5.941987
5.842447
5.830526
6.115437
6.174445
6.187558
5.670786
##ZVALUE=280
1.442432
1.460910
1.431704
1.587868
1.441836
1.430511
1.540780
1.592636
1.788735
1.597404
1.750588
1.759529
1.786947
1.726747
2.087951
2.298951
2.179742
2.127886
2.563000
2.797842
3.183484
4.653931
15.209913
48.937798
150.565505
278.643966
574.112535
923.547745
1015.712619
1015.712619
1015.712619
1015.712619
1015.712619
1015.712619
979.948640
614.761710
271.223783
137.280822
64.230561
53.303838
69.249868
90.751648
120.573640
140.458941
161.524415
165.801644
162.298679
147.799850
124.405622
99.844933
72.720647
55.990815
38.785934
30.963421
25.130510
22.738576
21.625757
21.185875
20.733476
20.125508
19.745827
19.929409
19.401908
19.406676
18.148422
17.381907
17.630458
16.829967
17.056465
16.686916
16.408563
17.105937
16.788840
15.654564
15.395880
15.134811
13.962984
13.593435
12.693405
12.024641
11.079907
10.685921
10.195971
10.058880
9.289980
9.297729
9.485483
8.420944
8.205771
8.502603
7.501841
7.614493
7.052422
7.633567
6.864667
7.339716
6.655455
6.872416
6.691813
7.068515
6.802678
6.293654
6.508827
6.815791
6.336570
6.488562
6.561875
6.111860
6.001592
5.983710
5.750656
6.053448
5.998611
5.820990
5.934834
5.576611
##ZVALUE=285
1.123548
1.236796
1.258850
1.251698
1.382828
1.181960
1.370907
1.407862
1.283884
1.502633
1.805425
1.561642
1.638532
1.501441
1.587868
1.772642
1.643896
1.813769
1.943707
1.873970
2.106428
2.203584
2.595782
3.102422
6.744862
32.276511
79.559684
136.989951
363.141894
601.363778
985.556841
1015.712023
1015.712023
1015.712023
1015.712023
1015.712023
1015.712023
798.183680
390.607715
202.028751
99.723935
46.294928
42.958856
61.968565
81.844926
114.214420
134.091973
152.117610
160.635710
159.443617
143.510699
124.926567
96.316934
74.832439
50.582886
38.721561
25.934577
22.577643
18.767715
17.656684
17.947555
17.015934
16.683936
16.550422
15.802979
15.774965
15.576482
15.096664
13.779998
15.075803
15.020967
14.739633
14.619827
14.264584
14.457703
13.602972
12.701750
12.277961
11.587739
11.614561
10.561943
9.939671
10.053515
9.368658
9.479523
8.936524
8.715987
8.421540
8.120537
8.028746
7.428527
7.613897
7.481575
7.066727
6.571412
6.738901
6.978512
6.824732
6.774664
6.403923
6.119609
6.570816
6.403923
6.553531
6.322861
6.082654
6.080866
6.313920
5.987883
5.857944
6.058812
6.077886
5.785823
5.611777
5.557537
5.453825
##ZVALUE=290
1.127720
1.198649
1.154542
1.280904
1.243949
1.374483
1.324415
1.398921
1.320839
1.296997
1.315475
1.374483
1.228452
1.461506
1.367927
1.589656
1.567602
1.501441
1.660585
1.781583
1.685619
1.887679
2.065897
1.864433
2.570748
2.694726
3.460646
9.542704
44.455528
106.831789
255.948901
434.374809
769.948959
1015.712023
1015.712023
1015.712023
1015.712023
1015.712023
1015.712023
918.025970
522.488952
299.157500
123.367906
57.716966
31.835437
37.627816
55.317879
74.083805
102.517605
123.421550
143.656731
151.606798
149.855614
137.076974
114.651918
94.012618
65.675974
47.895908
33.269525
24.025440
17.854571
15.169978
13.660789
12.910962
13.510585
12.765527
12.824535
12.477636
12.938976
12.843609
12.640953
12.655854
12.822747
12.751818
12.728572
12.061000
11.341572
11.028647
10.784864
9.940863
9.574890
9.690523
9.336472
9.015799
8.449554
8.418560
8.542538
8.371472
7.715821
7.677674
7.527471
7.343888
7.339716
7.149577
7.140636
6.621480
6.822944
6.671548
6.050467
6.752610
6.819963
6.250739
6.688833
6.362796
6.563663
6.581545
6.650686
6.120801
6.158948
5.983710
5.958676
6.182790
5.711913
5.677938
5.661845
5.508661
##ZVALUE=295
1.207590
1.310706
1.152754
1.259446
1.170635
1.140833
1.056790
1.094937
1.056790
1.319647
1.331568
1.007915
1.322627
1.173615
1.163483
1.306534
1.454949
1.430511
1.391768
1.523495
1.667738
1.683831
1.570582
1.911521
1.851916
1.809597
2.077818
2.071857
2.640486
4.370809
22.835732
62.883496
178.617835
337.959528
646.575689
922.351480
1015.712023
1015.712023
1015.712023
1015.712023
1015.712023
1015.712023
734.128952
443.574786
186.912417
85.041523
30.592680
24.469495
33.990741
48.332810
72.412491
93.254447
119.333863
133.285522
143.502951
143.827796
127.210617
110.657811
85.353851
66.254735
44.122934
31.713843
20.252466
15.661716
12.541413
10.716915
10.526776
10.744929
10.801554
10.711551
11.338592
10.881424
11.331439
10.768771
11.180639
10.316968
10.322928
10.105968
9.401441
9.548664
9.184480
9.014606
8.685589
8.393526
8.283854
8.091927
7.737875
7.643700
7.674694
7.371902
7.251501
7.073879
7.123947
7.083416
6.941557
6.635785
6.797910
6.279945
6.837845
6.997585
6.888509
6.461740
6.554723
6.647706
6.503463
6.272793
6.269813
6.344914
5.979538
6.119609
5.891919
6.218553
6.087422
6.067753
5.760789
5.719662
##ZVALUE=300
1.078844
1.186728
0.919700
1.261830
1.080632
1.003742
1.192689
1.075864
0.985861
1.080632
1.207590
1.134872
1.161695
1.348853
1.191497
1.215935
1.307726
1.098514
1.222491
1.265407
1.381636
1.443624
1.640916
1.640916
1.747608
1.876950
1.775622
1.876950
2.144575
2.271533
2.350807
2.829432
10.218620
35.488605
120.948553
234.645605
480.805635
737.048984
1015.712619
1015.712619
1015.712619
1015.712619
1015.712619
1015.712619
975.480676
562.623739
332.446694
140.172839
59.745908
25.013685
21.009445
28.027892
44.110417
60.907602
87.552667
106.281638
127.178431
134.849548
132.008791
124.180913
104.069710
84.076524
60.443878
43.767691
27.697682
19.448996
12.740493
10.517836
9.327531
9.234548
8.932948
9.037852
9.800792
9.395480
9.470582
9.262562
8.884668
8.666515
8.341670
8.423924
7.871985
7.766485
7.510781
7.789731
7.622838
7.520914
7.268786
7.453561
7.188916
7.170439
6.791949
6.956458
7.081628
6.640553
6.615520
6.455779
6.500483
6.405711
6.445646
6.192923
6.450415
6.309748
6.031990
6.548762
6.285906
6.300807
6.146431
6.513000
6.043911
6.046891
5.954504
6.031990
5.583763
5.826950
5.579591
5.625486
##ZVALUE=305
1.074672
0.891685
0.966787
0.954866
1.123548
1.043677
0.947714
0.982881
1.054406
1.110435
1.097918
1.170635
1.078844
1.011491
1.316667
1.048446
1.039505
1.382828
1.232624
1.299977
1.326799
1.393557
1.344681
1.309514
1.549721
1.428723
1.509786
1.575947
1.489520
1.783967
2.113581
2.122521
2.327561
2.518892
5.712509
20.172000
78.428984
172.743797
387.870669
606.991649
948.673487
1015.712023
1015.712023
1015.712023
1015.712023
1015.712023
1015.712023
841.679573
455.718637
250.751972
89.764595
35.584569
15.977621
17.966628
27.752519
39.411783
62.228441
79.024434
102.648735
116.250515
125.547647
124.937892
113.357902
100.567937
76.855421
59.719682
38.848519
27.980804
16.564727
11.613965
9.556413
8.695722
8.454919
8.091927
8.309484
8.023977
7.819533
7.348657
7.094741
7.354617
7.076859
6.955862
6.770492
6.752610
6.702542
6.779432
6.711483
6.639957
6.216764
6.422997
6.247759
6.039739
6.244779
5.963445
5.818605
6.022453
5.912781
6.300807
6.134510
5.869865
5.758405
5.829930
6.340742
5.690455
5.847812
5.983710
5.946755
5.837679
5.820990
5.539656
5.722642
5.664825
5.216599
5.440712
5.392432
5.095601
##ZVALUE=310
0.964999
1.021624
0.934601
0.889897
0.965595
0.755787
0.903606
0.919700
1.009703
1.031756
1.036525
1.060963
1.086593
1.058578
1.234412
1.043677
1.159906
1.176000
1.187921
1.165867
1.136661
1.239777
1.184940
1.398921
1.517534
1.266599
1.351833
1.379848
1.429915
1.600981
1.721978
1.872778
1.856685
2.202988
2.031922
2.386570
2.972484
8.802414
43.810606
105.968714
253.767967
438.461900
760.466456
999.667645
1015.712619
1015.712619
1015.712619
1015.712619
1015.712619
1015.712619
690.750480
429.839492
182.218552
78.921914
22.842884
13.140440
16.512871
22.791624
35.849810
49.864650
73.137879
90.544820
109.466910
117.614865
117.084980
110.653639
95.367432
77.390671
54.684877
39.170980
24.155974
17.047524
11.659861
9.053946
7.503629
7.303953
6.957650
6.485581
6.273985
5.994439
6.113648
5.924702
6.037951
5.911589
5.740523
5.838871
5.775690
5.505681
5.659461
5.488992
5.697608
5.656481
5.416870
5.279779
5.484819
5.252957
5.076528
5.345941
5.218983
5.320907
5.207658
5.258918
5.212426
5.223751
5.331635
5.069971
5.058646
5.285740
5.252957
5.187988
4.922748
5.146861
5.188584
4.962683
4.667640
4.909635
##ZVALUE=315
0.828505
0.794530
0.904799
0.901818
0.886917
0.839829
0.960827
0.876784
0.810623
0.945926
0.993609
0.850558
1.086593
1.085997
1.090765
1.154542
1.048446
1.103878
1.120567
1.110435
1.163483
1.215935
1.363754
1.494884
1.345873
1.385808
1.339912
1.215935
1.382828
1.488924
1.531839
1.512766
1.619458
1.411438
1.795888
1.961589
2.015829
2.286434
2.780557
4.170537
22.479892
63.790679
181.604624
330.345631
626.418591
885.856748
1015.712023
1015.712023
1015.712023
1015.712023
1015.712023
1015.712023
1015.712023
774.655938
407.016873
199.024677
50.647855
16.226768
11.624694
14.089942
21.476746
31.881928
49.983859
65.067410
86.545944
99.712610
110.533834
112.554431
103.199482
89.623928
68.521500
54.237843
36.990643
26.049614
15.563965
11.329651
7.833838
6.647706
5.786419
5.525947
5.383492
5.135536
5.375743
4.855990
4.987717
4.816651
5.005598
4.977584
4.818439
4.956722
4.845858
4.460812
4.575849
4.366636
4.741549
4.667640
4.692674
4.867911
4.740953
4.978776
4.667640
4.490614
4.639626
4.887581
4.684925
4.720688
4.708767
4.531741
4.561543
4.801750
4.699826
4.633665
4.015565
4.312992
4.404783
4.440546
##ZVALUE=320
0.915527
1.079440
0.890493
0.873804
0.869632
0.947714
0.926852
0.921488
0.955462
1.039505
1.205802
1.140833
1.071692
1.190901
0.987649
1.221895
0.985861
1.211762
1.123548
1.005530
1.154542
1.077652
1.216531
1.212955
1.271963
1.289845
1.353621
1.303554
1.475811
1.367927
1.505613
1.506805
1.656413
1.644492
1.620650
1.671910
1.714826
2.009869
1.951456
2.301931
2.467632
2.894998
10.699630
35.113692
119.694471
238.842368
480.982661
720.838904
1015.712023
1015.712023
1015.712023
1015.712023
1015.712023
1015.712023
1015.711427
1015.712023
983.801484
604.468584
213.267803
63.528419
12.190938
11.388659
13.951659
18.647909
29.957891
42.122006
61.497688
76.014996
95.025897
103.539824
106.026530
99.803805
84.812641
71.027875
50.204992
37.474632
24.133921
15.941858
9.294748
7.074475
5.503893
5.099773
4.836917
4.864931
4.658699
4.585981
4.628897
4.429817
4.488826
4.309416
4.337430
4.543662
4.400611
4.316568
4.543662
4.562736
4.284978
4.693866
4.304647
4.456639
4.427433
4.402995
4.076958
4.366636
4.102588
4.241467
4.475713
4.163980
4.356503
4.187822
4.165769
4.371405
4.162788
4.203916
4.155636
4.011989
##ZVALUE=325
0.957847
1.100898
0.907779
0.947714
1.049638
0.963807
0.996590
1.056790
1.039505
1.059771
1.026988
1.053810
1.020432
0.997782
1.267791
1.033545
0.980496
1.258850
1.113415
1.229644
1.033545
1.071692
1.278520
1.229644
1.267791
1.510978
1.323819
1.468658
1.621842
1.529455
1.349449
1.540780
1.621842
1.597404
1.624823
1.823902
1.919866
1.922846
2.038479
2.014637
2.334714
2.266765
2.577901
3.024936
6.008744
22.051930
80.594420
166.345835
364.860892
591.615438
947.158933
1015.712023
1015.712023
1015.712023
1015.712023
1015.712023
1015.712023
1015.712023
1015.712023
1015.711427
501.191616
165.399909
20.695925
10.490417
10.722876
12.844801
19.225478
27.276874
43.723583
58.836937
77.593923
88.831782
97.521544
99.116564
91.428757
81.156492
63.234568
47.876835
30.659437
21.886826
12.426972
8.734465
6.237626
5.402565
4.566908
4.313588
4.389882
4.185438
4.066825
3.928542
3.990531
4.106760
4.033446
3.988743
4.286766
4.140735
4.135966
4.096627
4.206896
4.139543
4.088879
4.194975
4.141927
4.151464
3.914833
3.922582
3.829598
4.036427
4.010797
4.124641
3.962517
3.884435
3.846884
4.029870
3.645420
3.761649
##ZVALUE=330
0.921488
0.926852
0.972748
0.901818
1.091957
1.021624
0.836849
0.931621
1.051426
0.987649
1.123548
0.993609
1.004934
0.913739
0.997782
1.090765
1.030564
1.038909
1.139641
0.862479
0.997782
1.130700
1.078844
1.058578
1.133680
1.206994
1.445413
1.195669
1.187921
1.350641
1.163483
1.483560
1.352429
1.439452
1.434684
1.527667
1.808405
1.622438
1.790524
1.885891
1.811981
1.951456
2.170801
2.356768
2.596974
2.566576
3.888607
10.264516
47.729611
113.225579
270.345807
450.289845
770.261884
1002.381444
1015.712619
1015.712619
1015.712619
1015.712619
1015.712619
1015.712619
1015.712619
1015.712619
525.958538
216.073990
37.540793
11.141896
9.147525
9.779930
12.969971
17.709732
28.125644
39.137602
55.726767
69.761872
83.882809
90.453625
91.467500
85.704923
71.252584
59.426427
42.103529
30.185580
19.953847
13.938546
8.575916
6.062984
4.599690
4.210472
3.988743
3.703833
3.663898
3.701448
3.565550
3.636479
3.702641
3.554821
3.466606
3.630519
3.371835
3.379583
3.482699
3.738999
3.542900
3.535748
3.524423
3.366470
3.546476
3.327727
3.733635
3.489852
3.482699
3.199577
3.182888
2.985597
3.202558
2.920628
##ZVALUE=335
0.851750
0.849962
0.874996
0.817776
0.930429
0.926852
0.926852
1.013875
0.668764
0.768900
0.787973
0.816584
0.907779
0.821948
0.795722
0.999570
0.999570
0.757575
0.924468
0.957847
0.921488
0.933409
0.988841
0.997782
1.006722
0.996590
1.086593
1.042485
0.992417
1.194477
1.252890
1.009703
1.143813
1.111627
1.376867
1.295805
1.227856
1.316667
1.354814
1.377463
1.457930
1.628995
1.731515
1.615882
1.796484
2.014637
1.967549
2.347827
2.653003
4.817843
24.880767
66.783428
187.435746
334.296823
611.644983
868.454576
1015.712619
1015.712619
1015.712619
1015.712619
1015.712619
1015.712619
812.425613
544.883013
263.346434
118.020773
29.873848
10.652542
7.986426
7.588863
8.535981
11.023879
16.052723
22.995472
36.629438
48.386455
65.755844
76.100826
84.924698
84.406734
78.082681
68.711638
54.509640
42.463541
29.236674
20.797849
12.437701
8.378625
5.440712
4.094839
3.502965
3.276467
3.146529
3.044605
2.833605
3.051758
2.781749
3.000498
2.909899
2.889633
2.977848
2.962947
2.966523
2.755523
2.906919
2.998710
3.019571
2.965927
2.822876
2.888441
2.796650
2.993941
2.861619
2.865791
2.738833
2.541542
##ZVALUE=340
0.706911
0.979900
0.686646
0.818968
0.673532
0.589490
0.877976
0.826716
0.785589
0.972748
0.662804
0.816584
0.833869
0.775456
0.777841
0.732541
0.818968
0.867844
0.792742
0.798702
0.768900
0.876784
0.869632
0.813603
1.019835
0.899434
1.002550
1.040697
1.037717
1.029968
1.074672
0.833869
0.888705
1.106858
1.071692
1.122952
1.043677
1.192689
1.225471
1.053810
1.145601
1.365542
1.359582
1.364946
1.471639
1.572967
1.512766
1.603961
1.863837
1.838803
2.271533
2.750754
12.605786
39.358735
125.694871
248.398781
507.038832
734.242797
1010.959744
1015.712023
1015.712023
1015.712023
1015.712023
966.145992
640.519857
409.500003
190.308690
91.666579
25.479794
10.460615
7.184744
6.677508
6.831884
7.451773
9.998679
14.395714
23.751855
33.505559
48.583746
60.761571
71.809888
77.385902
78.708529
74.235797
63.951612
54.006577
39.274693
29.623508
18.570423
12.489557
7.715821
5.617738
4.013777
3.339648
2.831817
2.889633
2.665520
2.566576
2.967715
2.878904
2.650619
2.667904
2.691746
2.718568
2.571940
2.613664
2.479553
2.699494
2.739429
2.796650
2.768636
2.789497
2.677441
2.711415
2.734661
2.513528
##ZVALUE=345
0.626445
0.809431
0.684857
0.777841
0.800490
0.605583
0.785589
0.701547
0.772476
0.702739
0.749826
0.767708
0.785589
0.750422
0.750422
0.762939
0.633597
0.770688
0.781417
0.961423
0.768900
0.760555
0.866652
0.760555
0.914931
0.831485
0.877976
0.866652
0.933409
0.981688
0.894666
0.980496
1.018643
1.007915
0.945926
1.123548
1.001954
1.061559
1.132488
1.205802
1.305938
1.059771
1.047850
1.285672
1.099706
1.427531
1.302958
1.366735
1.559854
1.617670
1.695752
1.842976
2.016425
2.142787
5.375743
20.420551
83.975792
172.184706
365.797877
567.970872
882.501006
1015.712023
1015.712023
1015.712023
1015.712023
1015.712023
746.444464
503.149629
233.763456
113.807917
34.489632
14.423728
7.320642
6.837845
6.301999
6.112456
6.492734
8.749962
13.439655
19.699931
30.427575
40.889978
54.271817
62.719584
70.760846
73.057413
68.641901
62.714815
50.239563
40.265918
26.890635
19.158721
11.787415
8.165836
5.136728
4.040599
3.336668
2.887845
2.749562
2.537966
2.631545
2.712607
2.774596
2.507567
2.545714
2.532601
2.489686
2.456903
2.563000
2.608895
2.681613
2.461672
2.537966
2.593994
2.730489
2.325773
##ZVALUE=350
0.850558
0.851750
0.854731
0.787973
0.802875
0.779629
0.797510
0.697970
0.619888
0.646710
0.843406
0.710487
0.768900
1.023412
0.812411
0.798702
0.867844
0.757575
0.901818
0.799894
0.732541
0.868440
0.877976
0.805855
0.771880
0.863671
0.918508
0.858903
0.905991
1.046658
0.883937
0.847578
0.842810
0.890493
0.995994
1.026988
1.102686
0.886917
0.923872
1.011491
1.038909
1.009703
1.088977
1.235604
1.114607
1.309514
1.166463
1.234412
1.351833
1.399517
1.466870
1.642704
1.726747
1.793504
2.027750
2.134442
2.777576
13.436675
40.978789
127.050877
244.392753
493.381619
713.778734
988.710523
1015.712619
1015.712619
1015.712619
1015.712619
854.147673
537.789464
321.572423
141.017437
62.963963
16.470551
8.166432
6.490946
5.844831
5.396605
5.126595
5.758405
7.465482
12.170672
17.571449
27.223825
36.201477
48.575997
56.612492
63.448548
65.763593
64.095855
57.306886
46.355724
38.283467
26.951432
19.798875
12.321472
8.651614
5.378723
4.024506
3.176928
3.044605
2.859831
2.618432
2.489686
2.670884
2.560616
2.616644
2.670884
2.629757
2.526641
2.527833
2.555847
2.521873
2.335906
2.369881
2.393723
##ZVALUE=355
0.734925
0.824928
0.809431
0.866652
0.834465
0.638962
0.691414
0.787973
0.804663
0.819564
0.754595
0.731945
0.870824
0.762939
0.808835
0.824928
0.815988
0.729561
0.810623
0.959635
0.809431
0.942945
0.774860
0.930429
0.857711
1.012683
0.884533
0.973940
0.930429
0.841618
0.877976
0.954866
0.870824
0.838637
1.058578
1.042485
1.116991
0.963807
0.890493
0.921488
0.934601
1.053810
1.109838
1.040697
1.229644
1.253486
1.162887
1.366735
1.345873
1.310706
1.461506
1.458526
1.683831
1.636744
1.592636
1.928806
1.795888
2.000928
2.390742
4.833937
27.002692
71.408749
190.251470
337.429643
615.586638
844.248533
1015.712619
1015.712619
1015.712619
1015.712619
922.935605
686.588883
372.538567
206.362009
81.839561
32.255650
9.378791
6.278753
5.502701
5.338788
4.711747
4.598498
5.461574
6.674528
9.955764
14.387965
23.239851
30.945539
42.398572
50.590634
57.141781
60.210824
58.170557
53.889751
44.528842
36.557913
26.235580
19.710660
13.110638
9.204745
5.622506
4.248619
3.144741
2.865791
2.733469
2.693534
2.794862
2.605915
2.425909
2.539754
2.553463
2.497435
2.391934
2.401471
2.249479
2.273917
##ZVALUE=360
0.787973
0.670552
0.800490
0.744462
0.636578
0.777841
0.783801
0.839829
0.801682
0.835657
0.854731
0.905991
0.680685
0.769496
0.827909
0.709891
0.711679
0.858903
0.718832
0.924468
0.868440
0.854731
0.938773
0.824928
0.940561
0.837445
0.736713
0.892878
0.969768
1.046658
0.929832
0.830889
0.994802
0.933409
0.907779
1.025796
1.009703
1.061559
0.993609
1.003742
0.958443
0.980496
1.086593
0.994802
1.054406
0.927448
1.070499
1.000762
1.189709
1.207590
1.296997
1.515746
1.432896
1.482964
1.459718
1.492500
1.637936
1.664758
1.946688
1.860857
2.150536
2.894998
12.276769
37.790537
119.244456
230.214000
460.234880
680.969954
987.377763
1015.712619
1015.712619
1015.712619
1014.578938
822.137594
502.514839
299.692750
119.264722
48.592687
12.280941
6.603599
5.346537
5.149841
4.810691
4.552603
4.467964
4.639626
5.869865
7.660985
12.746453
18.100739
27.384758
35.429597
44.428706
50.259829
53.545833
54.225922
50.123930
44.869781
36.181808
28.628707
19.669533
14.192462
9.323955
6.614923
4.422665
3.550649
3.063679
2.646446
2.508759
2.248883
2.410412
2.206564
2.325773
2.016425
2.123713
2.038479
##ZVALUE=365
0.707507
0.669956
0.739694
0.611544
0.709891
0.759959
0.787973
0.871420
0.796914
0.786781
0.798702
0.719428
0.729561
0.657439
0.680685
0.845790
0.736713
0.933409
0.822544
0.957847
0.724792
0.867844
0.773668
0.841618
0.800490
0.811815
0.902414
0.878572
0.884533
0.937581
0.975728
0.852942
0.830889
0.854731
0.935793
0.940561
1.026988
0.947714
1.083612
0.926852
0.971556
1.168847
1.095533
0.953674
0.977516
1.014471
1.117587
1.053810
0.961423
1.245737
1.191497
1.299977
1.082420
1.330972
1.477599
1.445413
1.497865
1.479983
1.435876
1.697540
1.865625
2.082586
2.255440
2.532601
4.466772
23.947954
67.994595
186.939836
335.894823
596.417785
819.304585
1015.712023
1015.712023
1015.712023
1015.712023
887.451768
650.652647
371.525884
207.280517
75.128675
27.563572
7.402897
5.678535
5.044937
4.710555
4.370809
4.135966
4.024506
4.173517
4.951954
6.303787
10.360479
14.725924
22.209883
28.864741
37.752986
43.677688
48.834682
50.236583
47.729611
43.746829
35.718679
28.866529
20.193458
14.741421
9.820461
7.008910
4.728436
3.508925
2.943873
2.463460
2.313852
2.339482
2.271533
2.068877
2.051592
##ZVALUE=370
0.576973
0.671744
0.729561
0.596642
0.865459
0.813603
0.725985
0.841618
0.958443
0.783801
0.888705
0.662804
0.834465
0.780821
0.801682
0.722408
0.689626
0.530481
0.739694
0.748634
0.813603
0.775456
0.752807
0.822544
0.847578
0.818968
0.945926
1.039505
0.860691
0.783801
0.848770
0.917912
0.875592
0.840425
0.969768
0.910759
1.045465
0.980496
0.890493
1.061559
1.038909
0.949502
1.016855
1.016855
0.926852
0.860691
0.907779
1.038909
0.983477
0.875592
1.103878
1.052618
1.107454
1.140833
1.268983
1.257658
1.316667
1.170635
1.375675
1.471639
1.522899
1.479983
1.813769
1.818538
1.948476
2.290606
3.267527
10.519624
51.434636
122.909546
287.698507
459.493995
735.854506
962.423682
1015.712023
1015.712023
1015.712023
997.514725
708.523989
483.116508
247.122645
127.710700
42.443871
14.676452
5.911589
5.072951
4.639626
4.199743
3.950000
3.579855
3.597736
3.641844
4.477501
5.524755
8.710623
12.211800
18.969774
25.597811
34.023523
39.834976
45.778751
47.814846
46.386719
42.383671
35.471916
26.922822
21.080971
14.334917
10.721684
7.092953
5.195737
3.543496
2.968907
2.404451
2.170801
2.183914
##ZVALUE=375
0.715852
0.784993
0.812411
0.748634
0.614524
0.776649
0.833869
0.643730
0.851750
0.649691
0.611544
0.756979
0.786781
0.750422
0.753999
0.831485
0.787973
0.805855
0.799894
0.794530
0.642538
0.651479
0.968575
0.900626
0.795722
0.850558
0.756979
0.768900
0.782609
0.812411
0.804663
0.818968
0.714660
0.930429
0.819564
0.778437
0.803471
0.911951
0.750422
0.682473
0.840425
0.827909
1.060963
0.901818
1.059771
0.945926
1.007915
0.980496
1.032948
1.152754
1.077652
1.230836
1.048446
1.041889
1.001954
1.131892
1.101494
1.126528
1.318455
1.244545
1.310706
1.414418
1.505613
1.433492
1.657605
1.524687
1.854897
2.079606
2.499819
5.686879
29.886961
74.861646
191.528797
339.816809
608.098507
831.030607
1015.712619
1015.712619
1015.712619
1015.712619
868.209004
634.339452
359.920859
208.636522
82.257986
32.540560
7.835627
5.032420
4.783869
4.253983
4.100800
3.750920
3.495812
3.362894
3.387928
3.738999
4.801750
6.835461
10.729432
14.882684
22.458434
28.208494
36.049485
41.331649
44.426918
44.344664
40.991902
35.238862
30.341744
23.018718
17.820597
12.334585
8.915663
5.420446
3.939867
2.739429
##ZVALUE=380
0.674725
0.566840
0.709891
0.731945
0.723600
0.530481
0.711679
0.696778
0.711679
0.651479
0.831485
0.778437
0.758767
0.777841
0.806451
0.592470
0.797510
0.720620
0.632405
0.767708
0.642538
0.695586
0.729561
0.784993
0.821948
0.813603
1.020432
0.600815
0.643730
0.856519
0.789762
0.894666
0.852942
0.842810
0.910759
0.836849
0.878572
0.838637
0.846982
0.881553
0.898838
1.017451
0.974536
0.904799
0.967979
0.912547
0.985861
1.014471
0.914931
0.839829
1.036525
0.911951
0.878572
1.109838
1.013875
1.070499
0.946522
1.229644
1.132488
1.144409
1.225471
1.370907
1.188517
1.263618
1.379848
1.460910
1.665950
1.637936
1.920462
2.174973
2.437830
3.562570
15.855432
47.504902
142.046809
265.921950
522.146821
752.905011
1013.029814
1015.712023
1015.712023
1015.712023
968.471766
759.701729
467.595458
287.863612
124.114752
55.906773
13.247728
5.621910
4.496574
4.197955
3.771782
3.703833
3.672838
3.267527
3.120899
3.169775
3.443956
4.243851
6.098747
8.614659
13.983846
18.433928
26.362538
31.739473
37.929416
41.573644
42.088628
39.395690
36.246777
30.053854
24.875998
17.197728
13.115406
8.465648
##ZVALUE=385
0.666976
0.591874
0.770688
0.724792
0.583529
0.610948
0.648499
0.688434
0.619888
0.688434
0.619888
0.563860
0.793934
0.709891
0.660419
0.762939
0.718832
0.747442
0.895858
0.713468
0.749826
0.664592
0.805855
0.705719
0.795722
0.730753
0.750422
0.704527
0.671744
0.711679
0.674725
0.742674
0.931621
0.908971
0.917912
0.949502
1.011491
0.874996
0.834465
1.055598
0.825524
0.810623
0.924468
0.815988
0.913739
1.060963
0.984669
1.061559
1.010895
0.862479
1.085997
0.945926
0.834465
1.074672
1.020432
1.020432
1.145601
1.053810
1.145601
1.118779
1.196861
1.203418
1.273751
1.144409
1.466870
1.361966
1.285672
1.379848
1.796484
1.808405
1.790524
2.053976
2.072453
2.552867
7.126927
24.245977
86.944699
185.295939
394.350886
602.803826
894.925594
1015.712023
1015.712023
1015.712023
1015.712023
863.842964
574.844480
380.283594
182.612538
92.168450
27.811527
8.901954
4.441738
4.040599
3.820658
3.617406
3.502965
3.421903
3.417730
3.233552
2.940893
3.007650
3.709793
4.862547
7.295609
10.221601
16.342998
22.720695
27.305484
33.294559
36.094785
39.034486
37.999749
34.788847
30.550957
24.464726
##ZVALUE=390
0.668764
0.720620
0.617504
0.657439
0.811815
0.690818
0.631809
0.663996
0.531673
0.594854
0.691414
0.751615
0.658631
0.590682
0.740886
0.653863
0.523925
0.663996
0.792742
0.672936
0.726581
0.823736
0.780821
0.797510
0.748634
0.821948
0.736713
0.698566
0.794530
0.920892
0.808835
0.603795
0.815988
0.812411
0.903606
0.894666
0.910759
0.844598
0.962615
0.951886
0.885725
0.977516
0.863671
0.987649
1.050830
0.956655
0.986457
1.142621
0.919700
0.987649
0.930429
1.012683
0.973940
1.053810
1.144409
0.972748
1.116991
1.031756
1.040697
1.059771
1.171827
1.163483
1.063943
1.174808
1.146793
1.138449
1.362562
1.361966
1.526475
1.646876
1.715422
1.856685
1.833439
2.054572
1.964569
2.058744
3.608465
13.588667
60.588717
135.929585
313.970447
492.351651
748.103857
933.981538
1015.712619
1015.712619
1015.712619
912.596583
648.168921
446.788669
234.184861
124.554634
42.414665
14.652610
5.049706
4.161596
3.953576
3.797412
3.511906
3.623962
3.492832
3.288984
3.084540
2.874732
2.961755
3.390908
4.138947
6.584525
9.122491
13.329983
17.543435
23.949742
28.576851
34.221411
36.267638
36.560893
##ZVALUE=395
0.786781
0.706911
0.550747
0.716448
0.684857
0.782609
0.564456
0.542998
0.558496
0.604987
0.631809
0.675917
0.480413
0.653863
0.684857
0.604987
0.691414
0.646710
0.729561
0.628829
0.715852
0.860691
0.723600
0.636578
0.738502
0.733733
0.841618
0.815988
0.789762
0.675917
0.673532
0.865459
0.782609
0.756979
0.955462
1.004934
0.900626
0.911951
0.998974
0.882745
0.854731
0.958443
0.949502
0.940561
0.967979
1.092553
1.081824
1.100898
1.178980
1.148582
1.079440
1.042485
1.161695
0.993609
1.048446
1.074672
1.030564
1.163483
0.998974
1.163483
1.126528
1.125932
1.155734
1.080632
1.130700
1.287460
1.383424
1.458526
1.539588
1.549721
1.619458
1.711845
1.728535
1.693964
1.741648
1.731515
1.838803
2.006888
2.701879
7.787943
38.298965
93.641877
224.403739
376.084447
630.827546
828.953981
1015.712619
1015.712619
1015.712619
937.507749
678.470731
479.536653
258.497596
142.960548
58.073997
24.059415
7.010698
4.196763
3.911853
3.803968
3.913641
3.726482
3.650784
3.614426
3.411770
3.199577
2.838969
2.674460
2.887845
3.657937
4.710555
7.527471
10.533929
15.770793
20.393729
26.581883
##ZVALUE=400
0.794530
0.806451
0.668764
0.677705
0.651479
0.683665
0.652671
0.728965
0.624657
0.573993
0.674725
0.497699
0.711679
0.636578
0.681877
0.705719
0.743866
0.536442
0.727773
0.689626
0.606775
0.606775
0.744462
0.659823
0.690818
0.736713
0.680685
0.624657
0.659823
0.683665
0.809431
0.776649
0.740886
0.909567
0.809431
0.774860
0.932813
0.880957
1.024604
1.050830
0.943542
1.183748
1.008511
0.965595
0.885725
0.986457
1.109838
0.999570
1.061559
1.031756
1.004934
1.052618
1.069903
1.032948
1.022816
1.001954
1.071692
1.065731
1.039505
1.042485
1.168847
1.245737
0.978708
1.011491
1.098514
1.161695
1.208782
1.224875
1.346469
1.538992
1.547933
1.523495
1.675487
1.563430
1.249909
1.618862
1.409650
1.605749
1.826882
1.775622
2.217889
3.773570
20.216703
55.382848
155.808926
280.582905
517.295599
714.731812
948.582888
1015.712619
1015.712619
967.216492
736.278892
548.367500
325.765014
194.795728
84.058642
38.038492
10.894537
5.167723
3.972650
3.838539
3.881454
3.783703
3.719926
3.703833
3.705621
3.185868
3.111959
2.786517
2.785921
2.607703
3.134608
4.328489
5.896688
9.089708
##END
