##TITLE=5-2
##FORMAT=SPECTACLE-ASCII V-1.2
##DATA TYPE=ULTRAVIOLET SPECTRUM
##SECOND TYPE=ULTRAVIOLET SPECTRUM
##DATE=04/11/18
##TIME=14:04:58
##SPECTROMETER/DATA SYSTEM=SPECTACLE
##XUNITS=NM EM
##YUNITS=ENERGY
##YFACTOR=1
##FIRSTX=220
##LASTX=450
##NPOINTS=116
##3DDATA=Equidistant
##ZUNITS=NM EX
##FIRSTZ=210
##LASTZ=400
##ZPOINTS=39
##XYDATA=(Y..Y)
##ZVALUE=210
15.801787
14.478564
12.559891
12.776852
10.123849
9.749532
10.255575
8.594990
8.873940
6.952882
4.955530
3.873706
3.587604
2.641678
3.452897
2.898574
2.975464
3.031492
3.466606
3.844500
3.806949
3.563762
4.162788
3.756881
4.694462
4.241467
4.476905
4.879832
4.684925
4.767776
5.528927
4.931688
5.699992
6.157756
5.577803
5.954504
6.593466
6.103516
7.096529
6.270409
7.297993
6.868839
7.052422
7.631779
7.503629
7.747412
6.664991
7.879734
8.443594
7.325411
7.854700
7.664561
8.447766
8.006692
7.415414
7.953644
8.614659
8.012652
7.573962
8.642673
8.001924
7.585883
7.977486
7.887483
7.104874
7.365942
8.905530
8.993745
8.843541
9.295940
10.945797
12.158751
11.830926
14.217496
14.377832
13.576746
16.175508
15.736818
15.774965
13.809800
14.386773
12.540817
10.967851
9.659529
8.610487
7.740855
6.580949
6.813407
6.172657
8.753538
9.416938
11.960864
15.692711
19.639730
23.879409
30.227900
36.968589
39.111972
42.661428
49.019456
50.150752
51.273704
52.570701
52.308440
49.519539
46.929717
43.437481
37.525892
35.563707
30.397773
24.371743
21.266937
18.905997
16.633868
14.684796
14.302731
##ZVALUE=215
38.985610
40.887594
31.385422
26.228428
21.812916
18.859506
15.759468
14.049411
15.126467
13.559461
12.856722
10.684729
7.019639
6.105900
4.359484
3.643632
3.375411
3.585815
3.373623
3.477931
3.972650
3.899932
4.401803
3.972650
3.691912
4.377961
4.185438
4.565716
4.706979
5.451441
5.748868
5.400777
6.506443
6.623864
6.798506
6.956458
6.772876
7.559657
7.296801
7.847548
8.505583
7.962584
8.382797
7.833838
8.678436
8.270741
8.944869
7.803440
9.177923
9.919405
9.786487
10.316968
10.911822
10.538697
10.278821
9.789467
11.251569
11.112690
9.292960
10.209680
9.985566
9.877682
10.651946
8.859634
9.704828
9.332895
9.388924
10.567904
9.636879
10.182858
12.535453
12.429953
14.403462
14.558434
13.801455
13.990998
14.626980
14.097691
14.514923
13.128519
12.316704
11.864901
10.070801
8.815527
7.971525
7.375479
6.993413
7.080436
6.525517
6.101727
5.399585
6.334782
7.074475
6.956458
9.649992
10.979772
16.969442
22.509694
27.053952
33.891797
40.487647
46.451688
55.436492
60.673952
68.607926
70.525408
75.852871
76.829791
78.486800
72.840452
69.126487
63.168406
58.316588
48.857927
42.024851
32.888651
##ZVALUE=220
84.695816
80.604553
83.457828
74.153543
64.515471
44.026971
38.220882
27.509928
26.576519
26.693940
24.490952
25.042892
21.808743
19.218922
15.041828
10.582805
7.900000
5.720854
4.326701
4.128814
4.288554
4.539490
3.796816
5.067587
4.231930
4.256964
4.191995
4.935861
4.873872
5.224943
6.777644
6.487966
7.257462
6.777644
6.934404
7.874966
7.643700
8.776784
9.246469
9.778738
9.727478
9.992719
10.148883
10.450482
9.992719
10.722876
10.343790
11.668801
10.976791
11.097789
12.804866
13.023615
14.468431
13.625622
13.553500
13.238788
12.681484
13.441443
13.395548
14.203787
14.143586
12.993813
13.357997
12.860894
12.676716
11.877418
12.142658
11.680722
12.378693
13.082623
13.786554
13.370514
15.008450
15.053749
16.142726
17.198920
15.253425
14.589429
15.099645
14.132857
12.527704
11.841655
11.185408
9.738803
9.093881
7.819533
8.093715
7.262826
7.317662
6.562471
6.835461
6.638765
7.565618
5.929470
7.141829
6.047487
6.764531
6.765723
9.046793
9.009838
13.184547
17.151833
26.229620
33.761859
46.839714
54.176450
70.585608
81.376433
87.408423
103.115439
111.911893
115.526915
116.279721
118.568540
115.771890
107.638836
##ZVALUE=225
108.500719
111.740828
137.246847
146.515965
147.020817
128.699541
114.315748
82.104802
61.830878
47.065616
43.184757
38.376451
41.529536
40.058494
37.763715
32.196641
27.947426
21.323562
15.099645
9.093881
7.099509
6.057620
4.814863
4.885793
5.101562
5.052686
5.549788
4.908442
5.166531
5.767941
6.172657
5.683899
6.411672
7.633567
8.071661
8.338690
9.223819
9.610653
10.031462
10.652542
9.318590
10.586977
11.314750
11.761785
11.397600
12.748837
12.383461
12.281537
13.380647
12.462735
15.047789
16.859770
15.121698
16.075969
16.479492
15.089512
15.735626
17.436743
16.857982
16.335845
16.009808
15.266538
15.405416
14.379621
13.410449
14.486909
13.927817
14.509559
13.818741
15.243888
14.273524
13.898611
15.630722
16.987920
17.765760
17.282963
16.377568
16.144514
14.443994
13.496876
13.333559
12.831688
10.665655
10.527968
8.913875
9.250641
8.863807
8.293986
7.742643
7.984638
7.411838
7.373691
7.986426
7.857680
6.895661
6.451607
7.454753
7.091761
7.255673
6.843805
6.898642
6.958842
7.576942
8.786917
12.037754
16.768575
25.083423
37.000775
49.126744
65.930486
81.608891
102.000833
121.799707
140.387416
154.269934
170.812607
##ZVALUE=230
71.662664
76.131821
119.192600
162.060857
199.616551
237.405896
241.551995
231.570601
198.154449
153.371692
114.616752
78.774691
63.771605
55.866838
54.131746
61.169863
61.251521
54.419637
50.709844
40.350556
29.332638
19.721985
12.869835
9.116530
6.029606
6.015897
5.763769
5.034804
5.083680
6.250739
6.017685
6.483793
7.480979
6.942749
8.274913
8.839965
9.594560
9.042621
10.327697
11.115670
11.105537
10.326505
11.238456
11.082888
12.703538
11.258721
12.417436
12.049675
13.271570
13.889670
15.550852
16.343594
15.626550
16.468763
16.802549
16.197562
15.789866
16.367435
17.218590
16.085505
16.894937
13.964772
16.692877
15.895963
15.981793
14.212728
14.482737
14.422536
14.911890
16.431808
15.158653
16.928911
17.311573
16.723871
17.077923
17.554760
18.604994
14.808774
16.845465
15.032887
13.001561
12.837648
11.859536
11.874437
10.778904
10.248423
9.982586
8.838773
8.967519
9.078979
8.489490
7.513762
8.024573
8.424520
8.199811
7.563829
8.750558
7.723570
7.431507
7.457733
8.403659
7.260442
7.554889
7.630587
7.744431
7.250905
8.131862
9.465814
9.812713
15.844703
19.771457
31.265616
45.400858
69.839954
89.631677
122.433901
##ZVALUE=235
22.781491
22.365451
54.484606
100.475550
153.312683
239.767432
300.679803
365.105867
386.361480
365.913510
318.845510
252.023935
183.049440
128.238797
93.024969
77.534914
77.883601
83.463788
89.100599
85.245967
79.790950
65.456629
52.373409
37.596822
22.989511
16.852617
10.032654
7.950664
6.383657
5.575418
6.910563
6.753802
7.390976
7.985830
7.669926
8.497834
8.481741
8.730888
10.956526
10.013580
10.609627
11.759996
10.987520
11.283755
10.654926
12.338758
13.215542
12.260675
12.084842
12.356639
12.505651
13.298988
13.478994
13.951659
14.844537
14.694929
13.200641
14.355779
14.577508
13.295412
14.269948
14.891624
13.996959
13.993979
14.662743
15.713573
14.576912
15.613437
16.075969
14.867783
16.732812
18.245578
17.175674
17.533898
19.486547
19.211769
20.384789
18.009543
16.587973
15.082955
14.592409
14.265776
13.533831
13.564825
12.395978
12.028813
10.464787
10.247827
10.276437
10.840893
9.134412
8.725524
9.799600
10.388494
9.617805
9.201765
9.106994
8.993745
8.874536
8.950830
9.919405
9.427667
9.024739
9.493828
8.532405
8.526444
9.019971
8.771420
8.896589
8.725524
8.708835
8.323789
8.772612
11.971593
16.326904
28.207898
##ZVALUE=240
2.962947
3.165603
9.672642
24.416447
50.558448
117.534995
190.571547
314.760804
406.918526
501.464009
549.336672
546.869636
499.950647
392.459631
307.051539
199.293494
145.312548
106.418729
100.650787
110.106468
116.839409
119.910836
115.083456
110.399723
84.306002
69.348812
48.214793
32.300949
18.974543
14.123917
9.371638
7.931590
7.951856
8.438826
8.391738
8.749962
10.643601
9.531975
8.685589
9.533763
10.577440
12.077689
11.733770
11.137724
10.730624
11.848807
12.553930
12.182593
11.910796
11.585951
12.666583
13.073683
12.747645
12.982488
13.036728
12.123585
14.057755
13.693571
12.621880
13.488531
14.002919
14.027953
12.194514
13.552904
15.214682
14.562607
14.755726
15.945435
14.458895
15.865564
17.714500
17.734766
18.959641
18.787980
18.560886
18.836856
18.437505
20.010471
16.031861
16.969442
15.775561
15.653968
13.703704
13.066530
12.498498
11.658669
11.819601
12.131929
11.268854
12.446642
11.437535
10.307431
10.599494
10.212660
10.800958
10.457635
11.223555
10.466576
10.174513
11.396408
9.952784
10.584593
8.356571
8.885860
9.990931
10.552406
10.657907
10.260940
9.568930
10.430813
8.802414
9.264946
9.332895
10.145903
8.383989
10.331869
##ZVALUE=245
2.531409
2.672672
2.323985
2.991557
4.010797
16.402602
38.315654
100.866556
176.178813
305.956602
421.409607
559.630990
633.175969
655.235648
620.447993
519.211888
414.737463
278.677940
195.792913
126.818419
103.291869
100.604892
117.478967
128.409863
132.915974
127.019882
114.791989
91.665983
72.331429
55.729747
33.818483
23.234487
13.871789
11.140704
8.437634
8.015633
9.243488
8.308887
8.581877
9.318590
9.042621
9.786487
10.977983
10.494590
11.669993
11.293888
11.178851
11.293888
11.927485
11.409521
11.972785
11.658669
11.739731
12.205839
12.094975
11.924505
11.771917
11.674762
12.684464
11.610985
12.069941
12.240410
12.384653
11.971593
12.640953
12.011528
12.169480
12.251735
12.445450
12.229681
14.698505
15.505552
16.123652
15.666485
15.941858
16.254783
16.240478
14.978647
15.124679
14.287829
13.074875
13.459921
11.892915
11.581779
11.373758
9.554625
9.559989
8.609891
9.625554
9.072423
8.317828
9.517670
8.514524
9.196997
8.716583
9.179711
8.511543
8.956790
8.466840
7.864833
8.297563
9.015799
8.904934
9.099841
8.397698
8.255839
8.960962
8.825660
8.214712
8.828640
8.657575
8.270741
8.878708
8.135438
8.186698
7.906556
##ZVALUE=250
1.751781
2.452731
1.969934
2.015829
2.642870
2.772808
3.095865
9.860992
29.275417
77.788830
151.504874
283.653736
414.849520
582.624674
679.513812
747.836828
740.956664
656.358600
551.110506
374.954939
262.293816
155.839920
114.789605
97.683668
101.664662
123.319626
135.418773
141.969919
140.289664
124.010444
98.938942
84.880590
57.132840
38.471818
21.027923
15.231967
10.607839
9.157658
8.923411
9.149909
9.565949
10.067821
10.661483
10.062456
10.988712
11.220574
11.235476
11.072755
11.284947
11.858940
11.160970
11.435747
11.718869
11.113882
11.536479
11.543632
10.554790
10.948777
11.640787
10.949969
11.051893
11.015534
10.788441
10.683537
10.661483
10.855794
10.856986
10.902882
10.852814
11.721849
11.794567
12.521744
12.409687
13.248920
13.409853
12.844801
12.780428
12.783408
11.454821
10.835528
10.714531
9.748936
9.183884
8.804798
7.885695
7.931590
7.702708
7.811785
7.217526
8.118749
7.496476
7.254481
6.845593
7.382631
6.914735
6.645918
7.076859
7.239580
6.434917
7.188916
6.979704
7.203817
7.777810
7.973909
7.091761
7.731915
6.788969
6.160736
7.550716
6.792545
6.888509
7.558465
6.658435
6.898642
6.936789
6.665587
##ZVALUE=255
1.836419
1.954436
1.864433
1.729727
2.070665
2.224445
2.457500
2.368689
2.426505
6.482601
18.042922
62.769651
120.209455
250.356793
374.889970
564.437509
696.437955
823.243856
845.673680
785.116553
673.944950
495.647788
353.100896
198.901892
126.371980
90.896487
89.393854
103.499889
128.201842
139.945745
149.255991
146.264434
128.883719
108.575821
80.768466
61.291456
38.883686
24.997592
16.628504
13.666749
10.839701
10.431409
11.674762
11.282563
12.183785
11.749864
11.733770
13.033748
11.994839
12.462735
12.656450
12.176633
12.282729
11.756420
12.386441
11.556745
11.570454
12.220740
11.113882
11.817813
11.711717
10.404587
11.268854
10.480881
10.205507
10.223985
10.066628
10.138750
10.005832
10.991693
10.489821
11.760592
11.203885
11.007786
11.666417
10.948777
11.111498
9.538531
9.426475
9.029508
8.123517
8.518696
7.546544
6.937981
7.670522
7.125735
5.648732
5.999804
7.071495
6.289482
6.029606
6.264448
6.355643
6.579757
6.082654
6.007552
5.636811
5.699992
5.860925
5.635619
5.443692
5.608797
6.189942
6.452799
6.254911
6.305575
5.885959
6.424785
6.638765
5.896688
5.704761
6.634593
5.683899
5.616546
5.923510
5.563498
##ZVALUE=260
1.678467
1.658797
1.422763
1.693964
1.887679
1.560450
1.960993
2.045631
1.751781
2.012849
2.541542
3.722906
10.429621
39.460659
82.800984
191.207528
309.878588
507.162809
663.380027
854.331851
929.479003
918.423533
827.788711
638.474822
476.734638
285.993814
185.636878
106.178522
81.716776
83.198547
107.506514
126.345754
148.375630
156.468749
149.231553
141.793489
113.941431
90.879798
61.823726
44.897795
31.498671
19.008517
16.324520
14.723539
13.533831
13.695955
13.061762
14.519691
13.629794
14.749765
13.460517
13.448596
14.444590
13.795495
13.634562
12.412667
13.755560
13.521910
12.238622
13.218522
11.477470
11.481643
10.616779
10.428429
10.180473
11.058450
10.733604
10.302663
10.728836
9.836555
9.569526
10.587573
10.109544
10.456443
11.045933
10.489821
9.501576
8.987784
8.349419
8.909702
8.426905
7.612705
6.496906
6.673932
6.185770
6.245971
6.019473
6.270409
6.007552
5.625486
4.830956
5.800724
5.426407
5.464554
5.342960
5.186796
4.888773
5.179644
5.250573
5.519986
6.208420
5.788803
5.174875
5.280972
5.643964
5.578995
5.333424
5.516410
5.914569
5.305409
5.557537
5.953908
5.927682
5.274415
5.220771
5.452633
##ZVALUE=265
1.662970
1.400709
1.548529
1.655817
1.583695
1.494884
1.566410
1.577735
1.562834
1.759529
1.855493
1.862645
2.247691
2.653599
5.776882
25.892854
61.731935
149.565935
265.019536
480.067730
659.079552
861.940980
982.998610
1003.286839
929.561853
758.960843
600.895882
439.221859
247.247815
151.640773
86.676478
74.205995
89.680552
110.305548
138.924718
158.170462
162.082911
158.782005
139.598846
118.986964
89.862943
68.025589
44.613481
32.943487
22.588968
17.469525
15.906692
16.017556
17.184615
15.996695
15.909672
16.377568
15.408993
16.316772
15.819669
15.249848
14.497638
14.778972
14.070868
14.283657
13.982654
13.712645
13.200641
12.611747
12.325644
12.289882
11.202693
10.497570
10.350943
10.615587
10.901690
10.406971
10.101795
10.371804
9.821653
9.971857
9.804964
8.738637
8.410811
8.060932
7.442832
7.139444
6.795526
6.775856
5.749464
5.937815
5.527735
5.823970
5.917549
5.383492
4.757643
5.181432
5.534887
5.249977
5.315542
4.936457
5.427599
5.451441
5.628467
5.498528
5.465746
5.097985
5.500913
5.604625
4.975796
5.109906
5.429983
5.579591
4.923940
5.380511
5.139709
5.005598
5.108714
4.907846
5.134940
5.352497
##ZVALUE=270
1.398921
1.335740
1.234412
1.253486
1.528859
1.643896
1.347661
1.491904
1.505613
1.590848
1.834631
1.834631
1.657605
1.991987
2.195835
2.220869
3.034472
12.477636
35.377741
109.259486
207.090974
400.796533
599.671602
792.976618
1001.060009
1015.712619
1015.712619
941.909552
735.204816
551.753640
341.116786
212.209821
105.666518
69.637895
69.555640
86.771846
116.540790
139.796734
161.292553
170.039535
163.742900
149.273872
120.897889
98.797679
69.199800
51.848888
35.369992
26.278496
21.090508
19.235611
18.155575
18.076897
17.842650
17.441511
18.391609
17.512441
17.236471
17.362833
16.405582
16.229749
15.864968
14.876723
14.111996
13.692975
13.275743
12.952685
12.284517
12.222528
11.928678
11.644959
11.710525
12.045503
10.725856
11.124611
10.653734
10.224581
9.875894
9.094477
8.325577
7.750988
8.149743
7.154942
6.952882
6.394982
6.367564
6.428957
5.837679
5.996823
5.687475
5.562901
5.653501
5.359650
5.258918
5.605817
5.308986
5.645752
5.112886
5.883574
5.247593
4.943609
5.136728
5.525947
5.346537
5.628467
5.421638
5.351901
5.483627
5.414486
5.422831
5.478859
5.422831
5.322695
5.258918
5.027652
5.073547
5.103946
##ZVALUE=275
1.255870
1.303554
1.437664
1.450777
1.356602
1.345873
1.245737
1.545548
1.472831
1.457930
1.364946
1.651645
1.613498
1.663566
1.830459
2.170801
1.781583
2.002716
2.335906
5.758405
21.119714
73.712468
154.337883
337.162018
521.433949
774.004459
935.964584
1015.712619
1015.712619
1015.712619
877.659917
699.504614
452.997684
280.027986
137.263536
81.118941
56.703687
65.542459
93.407631
117.645860
144.578815
159.299970
167.050958
163.800716
148.927569
127.290487
97.013712
74.240565
50.267577
36.774874
27.136803
23.228526
21.372437
19.411445
19.133687
18.451810
18.278956
17.319918
16.086698
17.095804
15.959740
15.870929
15.452504
14.786720
13.939738
13.659000
12.904406
13.008714
11.803508
11.994839
12.116432
12.504458
11.170506
11.422634
11.620522
10.694861
10.004640
9.419918
8.874536
8.877516
7.999539
8.114576
7.462502
6.900430
7.328987
6.578565
6.997585
6.048679
6.306767
5.705953
5.775690
6.088614
5.453825
5.843639
5.570650
5.525947
5.572438
5.626678
6.123781
5.995631
5.720854
5.774498
5.604625
5.588531
5.419850
5.777478
5.616546
5.276799
5.569458
5.614758
5.289912
5.368590
5.118847
5.297661
4.907846
5.583763
##ZVALUE=280
1.287460
1.241565
1.332760
1.273751
1.362562
1.242757
1.149774
1.313686
1.277924
1.219511
1.517534
1.447797
1.469851
1.410842
1.662970
1.588464
1.678467
1.750588
1.928806
2.048612
1.977682
3.378987
11.035800
49.963593
115.670562
266.852975
419.094563
670.310855
861.197710
1015.712619
1015.712619
1015.712619
997.781754
766.443610
572.892427
332.753658
198.450685
91.377497
56.214929
50.840974
64.885616
91.972947
114.771724
142.756701
157.335997
164.930820
162.104964
142.641664
125.174522
95.412731
73.176622
51.525831
38.650632
26.205778
21.326542
18.357635
17.437935
16.171932
16.315579
16.245842
15.479922
15.029907
15.022755
15.439987
13.480783
13.162494
12.550950
13.174415
12.665987
11.882782
12.011528
12.125969
11.190772
11.486411
11.155605
10.455847
10.021925
9.342432
9.594560
8.594990
8.709431
7.445812
7.953644
7.199645
7.201433
6.795526
7.110834
6.488562
6.508827
6.239414
6.387830
5.879998
6.039739
6.062984
5.921721
6.581545
5.985498
6.346703
6.291866
6.303787
6.235838
6.167889
5.894899
6.295443
6.096959
6.053448
6.288886
5.988479
5.975962
5.852580
5.976558
5.752444
5.718470
5.804896
5.483627
5.650520
##ZVALUE=285
1.294613
1.317859
1.179576
1.060963
1.191497
1.141429
1.262426
1.222491
1.247525
1.228452
1.279712
1.233816
1.345873
1.311898
1.616478
1.526475
1.420975
1.540780
1.730919
1.736879
1.739860
1.929998
1.981854
2.366900
5.750656
28.575659
68.646669
142.887831
307.987928
492.140651
763.181448
953.618884
1015.712023
1015.712023
1015.712023
937.060714
674.340725
465.389490
250.037909
146.050453
66.771507
41.110516
43.119788
57.003498
85.324645
108.776689
134.190917
150.915980
160.760880
154.827833
139.727592
119.490623
94.006658
73.446631
50.181746
35.101771
23.420453
18.256903
15.006661
14.251471
12.784600
13.154745
13.176799
12.328625
12.078881
12.518764
11.250973
11.743903
11.424422
11.361837
11.572838
11.052489
10.512471
10.674000
10.389686
9.860992
10.057688
9.859800
8.976460
8.582473
8.449554
8.292794
7.621646
8.001924
7.299781
7.322431
7.129908
6.823540
6.743670
6.794930
6.445646
6.680489
6.191730
5.985498
6.138682
6.239414
6.258488
6.060600
6.457567
6.246567
6.508827
6.048679
6.108880
5.987883
6.674528
5.683899
6.117821
6.168485
5.930662
5.801916
5.707741
5.796552
5.773902
5.506873
5.478859
5.394816
##ZVALUE=290
1.276731
1.001954
0.957847
1.089573
0.878572
1.198649
1.226664
1.220703
1.111627
1.102686
1.297593
1.286864
1.271963
1.144409
1.359582
1.200438
1.510978
1.455545
1.300573
1.306534
1.377463
1.758933
1.545548
1.888871
1.967549
2.102852
3.328919
9.524822
43.788552
98.405480
227.846503
380.356908
653.076768
875.737667
1015.712023
1015.712023
1015.712023
1014.762521
788.213015
581.544638
339.256525
199.369788
88.390708
45.812726
28.878450
35.662651
55.461526
73.654652
101.865530
122.084618
141.744614
150.163770
148.061514
137.031674
113.731623
91.088414
63.523650
47.137737
29.582977
21.799803
14.955997
12.442470
10.877848
10.105968
10.022521
9.951591
10.315776
10.067821
10.085702
9.624958
10.016561
9.843707
10.184646
10.141730
9.595752
9.491444
9.263754
8.776784
8.292794
8.274913
7.667542
8.165836
7.286668
7.569790
7.046461
7.080436
7.005930
6.640553
6.522536
6.330609
6.286502
6.589890
6.235838
6.086826
6.083846
6.318688
5.830526
6.032586
5.858541
5.974770
5.658865
6.475449
6.021857
5.887747
5.966425
5.889535
5.626678
5.641580
5.610585
5.459785
5.545616
5.349517
5.374551
5.358458
5.246997
4.917979
##ZVALUE=295
1.083612
1.084805
1.234412
1.094937
1.056790
1.079440
1.003742
0.890493
1.119971
1.022816
1.107454
1.184940
1.187921
1.293421
1.137853
1.204610
1.185536
1.193881
1.186728
1.301765
1.350641
1.576543
1.399517
1.537800
1.634955
1.839995
1.958609
2.146959
2.270937
3.784895
20.025969
55.084825
153.146386
292.488933
544.696450
760.702491
1001.586914
1015.712023
1015.712023
1015.712023
904.204845
701.752901
434.995890
270.583630
121.162534
60.677528
26.260614
22.614598
33.586621
47.998428
72.839856
90.702772
118.198991
131.693482
142.250657
140.740871
126.398802
107.445717
82.257986
64.079762
41.285753
28.377771
18.221736
12.943745
10.577440
8.877516
8.251667
8.234978
8.631945
8.530617
9.023547
8.589625
8.805990
9.043813
8.632541
8.983612
8.053780
8.199811
7.965565
7.760525
7.867813
7.208586
7.063746
7.046461
6.938577
6.744862
6.736517
6.790757
6.585717
6.322861
6.525517
5.821586
6.020665
6.164908
5.968809
5.767941
5.846620
5.687475
5.832911
5.819798
6.058812
5.725622
5.659461
5.620718
5.641580
5.609989
5.312562
5.240440
5.214810
5.482435
5.370975
5.249977
5.315542
4.998446
5.022883
4.827976
##ZVALUE=300
1.019835
0.956655
1.061559
0.919700
1.089573
1.114607
1.025796
1.010895
0.878572
1.126528
1.004934
1.125932
1.174808
1.008511
1.220703
1.026988
1.206994
1.304746
1.232624
1.341701
1.146793
1.160502
1.210570
1.425743
1.460910
1.613498
1.628995
1.749992
1.882911
1.906753
2.376437
2.610683
9.430647
31.920671
105.862617
206.041932
422.299504
638.870001
924.087763
1015.712023
1015.712023
1015.712023
1003.129482
828.275681
544.291735
353.813767
176.446438
95.125437
36.179423
19.871593
19.731522
27.272701
42.954683
59.877634
85.307956
104.673505
125.568509
133.546591
131.429434
122.190714
102.445483
82.685947
59.973001
42.798519
26.599765
17.790794
11.415482
9.157658
7.937551
7.325411
7.539988
7.374883
7.598996
7.585883
7.907748
7.601976
7.487535
7.411838
7.245541
7.161498
7.081628
6.628633
6.571412
6.571412
6.310940
6.671548
6.021857
6.373525
5.991459
5.974770
6.022453
5.850792
5.738735
5.654693
5.725622
5.411506
5.812645
5.690455
5.468726
5.468726
5.609989
5.664825
5.369782
5.765557
5.362630
5.317926
5.266666
5.261898
5.423427
5.268455
5.497932
4.914999
5.177855
5.196929
4.729629
4.983544
##ZVALUE=305
0.850558
0.779629
0.899434
0.935793
1.007915
1.012683
1.038909
1.171827
1.050830
1.080632
0.961423
0.997782
0.869632
1.021624
1.072884
0.885725
1.050830
0.924468
1.273751
1.234412
1.163483
1.189709
1.323819
1.231432
1.434684
1.339912
1.296997
1.314878
1.350641
1.633763
1.702905
1.852512
1.910925
2.113581
4.741549
16.962886
67.466497
149.226785
332.046747
522.332788
801.759958
993.291736
1015.712619
1015.712619
1015.712619
918.089747
651.896000
452.905893
230.651498
128.529668
50.909519
23.357868
14.008880
17.077923
26.165843
38.225651
60.853958
78.953505
102.021694
114.590526
125.375986
125.002861
113.415718
99.698901
76.613426
59.331656
37.952662
26.357770
15.300512
10.615587
8.328557
7.626414
6.904602
7.082820
6.808639
6.639957
6.351471
6.496906
6.002784
6.043911
6.152987
6.297827
5.973577
6.316900
5.876422
5.744696
5.670786
5.902648
5.936623
5.950928
5.312562
5.304813
5.316734
5.117655
5.389452
5.265474
4.992485
5.135536
5.272627
5.190969
5.200505
5.063415
5.134940
5.486608
5.020499
4.697442
4.929900
5.017519
4.845858
4.989505
4.973412
4.903674
5.037785
4.740953
4.719496
4.737973
##ZVALUE=310
0.819564
0.851750
0.892878
0.836849
0.896454
0.843406
0.956655
1.022816
0.968575
0.819564
1.006722
0.952482
1.003742
0.928640
1.081824
0.905991
1.070499
1.008511
1.057982
0.955462
1.103878
1.016855
1.137853
0.995994
0.947714
1.229644
1.194477
1.129508
1.359582
1.224875
1.534820
1.468658
1.525879
1.741648
1.986623
2.107620
2.698898
7.378459
36.494732
87.983608
213.229656
370.686054
642.979741
861.740708
1015.712619
1015.712619
1015.712619
1015.712619
790.214539
579.667687
333.539844
195.059776
82.825422
38.924813
14.692545
11.523962
15.324950
22.123456
36.129951
49.646497
72.482824
90.307593
110.411644
117.291808
119.099617
111.636519
95.926523
77.427626
54.278970
38.738847
24.127960
16.369820
10.877848
8.223653
6.699562
6.352663
6.041527
5.580783
5.353689
5.163550
5.030632
4.892945
5.171895
4.979968
5.091429
4.721880
4.918575
4.953742
4.983544
4.730821
4.862547
4.760623
4.544854
4.627705
4.614592
4.413724
4.489422
4.330873
4.756451
4.487634
4.674792
4.523993
4.565716
4.402995
4.671812
4.583597
4.366636
4.530549
4.377961
4.234910
4.204512
4.399419
4.454851
4.372597
4.178882
3.921986
##ZVALUE=315
0.832677
0.794530
0.881553
0.689626
0.886917
0.757575
0.820756
0.991821
1.040697
0.907779
1.074672
0.804663
0.868440
0.825524
0.963807
0.998974
0.948906
0.784993
0.911951
1.071692
0.924468
1.037717
1.015663
1.119971
1.042485
1.123548
1.176000
1.237988
1.302958
1.310706
1.202822
1.338720
1.559854
1.368523
1.414418
1.716614
1.926422
1.847744
2.374649
3.531575
18.948913
53.972006
156.493783
282.766819
532.513857
753.086805
997.282863
1015.712619
1015.712619
1015.712619
877.942443
683.201551
416.024923
258.470774
119.252801
56.653619
17.829537
10.787845
10.961890
13.250709
21.705627
31.064749
48.924685
63.781738
87.801814
100.114942
109.634995
110.791922
103.364587
89.961886
69.090724
53.967834
35.609603
24.548769
14.058948
10.020733
6.427765
5.440712
5.015731
4.365444
4.650950
4.247427
4.207492
4.199743
4.197955
4.327893
4.036427
4.340410
3.802776
4.020929
3.911853
3.935695
4.132986
3.999472
3.893971
4.180670
3.865957
3.822446
3.747940
3.862977
3.958941
4.164577
3.814697
3.909469
3.759861
3.814697
3.980994
3.647804
3.856421
3.737807
3.942847
3.804564
3.728867
3.561974
3.712773
3.430843
##ZVALUE=320
0.786781
0.725985
0.822544
0.874996
0.717640
0.964999
0.802875
0.752807
0.842810
0.794530
0.997782
1.008511
0.934601
0.908971
0.928640
0.785589
0.853539
0.922680
0.806451
0.897646
0.820756
0.937581
0.980496
1.052618
1.134872
0.873804
1.157522
1.157522
0.947714
1.069903
1.124740
1.230836
1.164675
1.374483
1.509786
1.383424
1.525879
1.574755
1.670718
1.712441
2.071857
2.462864
9.056926
29.522777
101.734400
204.458833
409.943461
615.397692
899.096727
1015.712023
1015.712023
1015.712023
986.464024
801.336765
533.295870
340.314507
157.346725
82.440972
30.007958
13.613701
8.490682
9.273887
12.227893
17.641783
28.911829
40.843487
60.269833
76.648593
93.997717
102.210641
104.186535
98.106861
84.403753
69.756508
49.685836
36.647916
21.003485
13.723969
7.967949
5.682707
4.232526
3.880858
3.756881
3.556609
3.350973
3.485680
3.379583
3.524423
3.278852
3.264546
3.492832
3.393888
3.296733
3.393888
3.491640
3.218651
3.361702
3.170967
3.075600
3.242493
3.296733
3.409982
3.260970
3.330708
3.346801
3.262758
3.310442
3.327727
3.240705
3.266931
3.288984
3.089905
3.113747
3.292561
3.089905
3.220439
##ZVALUE=325
0.738502
0.852942
0.740886
0.760555
0.833869
0.834465
0.801682
0.819564
0.943542
0.868440
0.938773
1.005530
0.864863
0.976920
0.856519
0.791550
0.748634
1.074672
0.915527
0.839829
0.717640
1.077652
1.031756
0.886917
0.724792
1.003742
1.041889
1.203418
1.080632
1.157522
1.136661
1.311898
1.165867
1.144409
1.281500
1.301765
1.403689
1.319647
1.428723
1.647472
1.755953
1.863837
1.820922
2.061725
4.854798
17.803907
67.308545
144.490004
322.469473
509.733558
793.364644
976.658463
1015.712619
1015.712619
1015.712619
876.273513
592.718720
407.609940
212.320685
116.770864
43.633580
18.215775
8.216500
7.450581
8.183718
10.702610
17.417669
26.105642
42.968988
57.199001
76.651573
87.589622
95.773935
98.309517
90.645552
79.527497
59.773922
44.876933
28.756857
19.575953
11.845827
7.636547
5.037785
3.715754
3.477931
3.156662
3.032684
2.753735
2.922416
2.931952
3.052950
2.751946
2.828836
2.854466
2.946854
2.989769
3.001690
2.985597
2.835989
3.149509
2.921820
2.898574
3.084540
3.020763
3.012419
3.061891
3.053546
2.896786
2.915859
2.675653
3.056526
2.661943
2.660751
2.538562
2.862811
2.621412
##ZVALUE=330
0.720620
0.690818
0.767708
0.572801
0.673532
0.767708
0.810623
0.927448
0.843406
0.857711
0.788569
0.821948
0.937581
0.717640
0.893474
0.890493
0.701547
0.876784
0.795722
0.829697
0.876784
1.059771
0.915527
0.941753
0.764728
1.017451
1.074672
0.813603
1.064539
1.011491
1.072884
1.046658
1.154542
1.127720
1.123548
1.067519
1.031756
1.213551
1.200438
1.372695
1.611710
1.671910
1.500845
1.598597
1.876950
1.941919
2.559423
8.279681
41.006804
96.399784
230.382681
387.812853
660.767555
868.833661
1015.712619
1015.712619
1015.712619
948.722959
701.410770
506.169796
280.065536
156.253576
61.490536
27.867556
10.047555
7.136464
7.226467
7.416606
10.701418
16.209483
27.091503
37.860870
54.889917
68.355799
82.904696
90.678930
90.042949
83.776712
70.030689
58.234930
41.352510
30.084848
18.458962
12.437701
7.507801
5.047917
3.566742
3.342628
3.085732
2.915859
2.866983
2.753735
2.436638
2.647638
2.743602
2.688766
2.630949
2.632737
2.635717
2.688766
2.876520
2.567768
2.656579
2.713799
2.696514
2.826452
2.610683
2.721548
2.812743
2.713799
2.375841
2.566576
2.240539
2.385974
2.491474
2.305508
##ZVALUE=335
0.698566
0.752807
0.769496
0.732541
0.715852
0.838637
0.858903
0.861883
0.915527
0.766516
0.904799
0.805855
0.893474
0.786781
0.793934
0.732541
0.815988
0.946522
0.882745
0.974536
0.891685
1.033545
0.949502
0.937581
0.918508
0.989437
0.996590
0.953674
0.847578
0.911951
0.878572
0.921488
0.926852
0.980496
0.927448
1.043677
1.185536
1.128912
1.142621
1.253486
1.154542
1.417994
1.433492
1.326799
1.492500
1.537800
1.497865
1.809597
2.040863
3.966689
21.336675
57.639480
159.598589
286.307931
527.678728
744.853616
997.566581
1015.712619
1015.712619
1015.712619
804.775953
596.105456
344.258547
207.474828
90.577602
41.907430
13.531446
7.684827
6.656647
6.594658
7.491708
9.637475
15.097857
22.760630
35.866499
47.912002
65.374970
76.383948
84.469914
85.514784
78.111887
68.708658
54.838657
42.824745
28.693676
20.008683
11.759996
7.994771
4.794598
3.624558
2.788901
2.825856
2.669692
2.525449
2.635717
2.602935
2.868772
2.570748
2.656579
2.468824
2.433658
2.303720
2.405643
2.455711
2.449751
2.524853
2.662539
2.525449
2.693534
2.506971
2.605915
2.377629
2.349615
2.445579
2.208948
2.391934
##ZVALUE=340
0.763535
0.700951
0.768900
0.703931
0.837445
0.756979
0.675917
0.595450
0.791550
0.724792
0.667572
0.727773
0.653863
0.895858
0.766516
0.652671
0.700951
0.972748
0.877976
0.808835
0.824928
0.640750
0.949502
0.813603
0.683665
0.836849
0.830889
1.044869
0.986457
0.884533
1.057982
0.748634
0.921488
0.975728
0.877976
1.062751
0.952482
0.861883
1.081824
1.023412
1.118779
1.220703
1.055598
1.113415
1.473427
1.442432
1.471639
1.499653
1.650453
1.832843
1.985431
2.483726
10.657907
34.450889
113.621950
221.736431
437.856913
646.359921
911.308527
1015.712023
1015.712023
1015.712023
865.536928
674.881935
412.458777
254.570842
116.097927
54.729581
16.174912
8.437634
6.292462
6.211996
6.088614
6.752610
9.375811
13.455749
22.695661
32.212734
47.909617
59.444904
72.264671
77.066422
77.776909
73.977709
63.055754
53.360462
38.689971
28.868914
17.861724
12.155771
7.171631
5.153418
3.393888
3.007650
2.563596
2.570748
2.516508
2.368689
2.487898
2.493858
2.193451
2.222657
2.251863
2.324581
2.326965
2.370477
2.380610
2.413988
2.250671
2.316833
2.384782
2.430677
2.514720
2.443790
2.212524
2.298951
##ZVALUE=345
0.767708
0.789762
0.695586
0.705719
0.734925
0.714660
0.735521
0.574589
0.741482
0.654459
0.734925
0.754595
0.636578
0.695586
0.851750
0.887513
0.768900
0.620484
0.787973
0.815988
0.758767
0.837445
0.931621
0.800490
0.912547
0.904799
0.843406
0.770688
0.858903
0.886917
0.895858
0.859499
0.885725
0.889897
0.890493
1.017451
1.009703
0.951886
1.001954
1.102686
1.170635
1.165867
1.045465
1.148582
1.341701
1.417994
1.148582
1.360774
1.497865
1.421571
1.573563
1.717806
1.873970
2.073646
4.169941
23.484826
63.115954
169.840455
301.793814
541.985631
749.817491
991.002917
1015.712023
1015.712023
969.899893
733.788013
530.404449
294.626951
166.814923
68.709850
30.137897
10.658503
6.690621
5.943775
5.819798
5.655885
6.073713
8.526444
11.916757
20.425916
28.998852
43.500662
53.280592
65.013766
70.773959
71.709752
69.330931
61.670542
52.168965
38.071871
28.659701
17.757416
12.223721
7.704496
5.136728
3.587604
2.959967
2.508759
2.331734
2.476573
2.501607
2.392530
2.345443
2.329946
2.223849
2.246499
2.333522
2.310872
2.373457
2.130866
2.128482
2.284646
2.288818
2.394915
2.253652
2.054572
##ZVALUE=350
0.681877
0.685453
0.795722
0.722408
0.589490
0.647902
0.703931
0.728965
0.710487
0.636578
0.715852
0.731945
0.704527
0.747442
0.652671
0.613928
0.726581
0.730753
0.740886
0.654459
0.808835
0.918508
0.757575
0.750422
0.824928
0.785589
1.008511
0.941753
0.953674
0.755787
0.811815
0.894666
0.823736
0.776649
0.797510
0.889897
0.860691
0.809431
1.052618
1.006722
0.961423
1.127720
1.088977
1.141429
0.994802
1.057982
0.945926
1.214743
1.062751
1.181960
1.309514
1.372695
1.444817
1.736879
1.685619
2.003908
2.835989
9.159446
42.137504
97.394586
240.501761
405.859947
678.592920
874.717832
1015.712619
1015.712619
1006.026864
853.524804
573.471785
377.201438
185.028911
100.512505
38.216710
15.522838
7.008910
5.817413
5.257726
4.838705
4.917979
5.460978
7.787943
11.070967
17.807484
25.278926
36.920905
46.141744
57.914853
63.740611
66.349506
63.979626
56.534410
48.671961
35.922527
27.664900
17.663836
12.684464
7.528663
5.351901
3.545880
3.033876
2.700686
2.494454
2.256632
2.302527
2.103448
2.219677
2.241731
2.203584
2.358556
2.197623
2.222657
2.302527
2.192855
2.091527
2.060533
2.115965
##ZVALUE=355
0.662804
0.691414
0.688434
0.837445
0.664592
0.792742
0.654459
0.663996
0.865459
0.840425
0.717640
0.642538
0.777841
0.787973
0.883937
0.781417
0.795722
0.572801
0.761747
0.849962
0.741482
0.833869
0.892878
0.779629
0.666976
0.795722
0.827909
1.014471
0.931621
0.808835
0.825524
0.825524
1.007915
0.908971
0.864863
0.856519
0.929832
0.757575
0.780821
0.862479
1.040697
0.940561
1.179576
0.911951
1.040697
0.905991
1.079440
1.098514
1.085997
1.237988
1.073480
1.211762
1.284480
1.358986
1.514554
1.514554
1.740456
1.776814
2.121925
4.465580
23.530722
62.479973
167.270899
299.813747
552.525520
755.421519
969.161987
1015.712023
1005.394459
873.618722
643.043518
456.915498
237.637758
131.121874
53.815842
22.522807
8.026958
5.555749
4.953742
4.631877
4.436970
4.410744
4.976988
6.655455
9.996891
14.542937
22.880435
30.751824
42.485595
50.632954
57.699680
60.654879
58.847666
53.775907
43.986440
36.681890
26.489496
19.952655
13.178587
8.833408
5.372763
4.099607
2.795458
2.843738
2.292991
2.277493
2.362728
2.117753
2.254844
1.983643
2.301931
2.093911
2.025962
2.067685
1.972914
1.998544
##ZVALUE=360
0.702739
0.683665
0.650883
0.810623
0.679493
0.654459
0.732541
0.758767
0.673532
0.662804
0.701547
0.808835
0.864863
0.849962
0.760555
0.821948
0.729561
0.695586
0.683665
0.785589
0.875592
0.735521
0.873804
0.760555
0.802875
0.776649
0.895858
0.829697
0.922680
0.850558
0.842810
0.810623
0.944734
0.905991
0.944734
1.031756
0.905991
0.964999
0.726581
0.818968
0.832677
0.935793
1.003742
1.207590
1.043677
1.126528
1.032948
0.976920
1.073480
1.182556
1.248717
1.138449
1.010895
1.256466
1.152754
1.184940
1.517534
1.447797
1.623631
1.818538
1.954436
2.563000
11.178851
33.693910
106.491446
205.702782
412.330627
605.358481
856.045485
977.318883
1005.261540
925.281644
726.532936
544.956923
315.896869
183.980465
73.362589
31.290650
9.714961
5.858541
4.933476
4.818439
4.449487
4.247427
3.961921
4.371405
5.395412
7.382631
11.968613
17.921925
26.978850
34.771562
44.329762
50.870776
54.184794
53.665638
50.259829
44.690967
35.726428
28.433800
19.685626
13.814569
8.718967
6.153584
4.030466
3.052950
2.739429
2.399683
2.211928
2.223849
2.038479
1.945496
1.985431
1.963973
1.942515
1.945496
##ZVALUE=365
0.672936
0.813603
0.719428
0.584722
0.690818
0.698566
0.652671
0.709891
0.740886
0.661612
0.659823
0.755787
0.739694
0.770688
0.690818
0.730753
0.762939
0.817776
0.766516
0.809431
0.793934
0.687838
0.654459
0.784993
0.669956
0.744462
0.752807
0.708699
0.714660
0.793934
0.801682
0.806451
0.915527
0.841618
0.820756
0.755787
0.879765
0.945926
0.895858
0.963807
0.891685
1.119971
1.038909
0.936985
0.992417
0.960827
0.968575
0.997782
1.038909
1.088977
1.043677
1.099706
1.212955
1.102686
1.240969
1.370907
1.313686
1.351833
1.266599
1.253486
1.533628
1.851916
1.870990
2.095699
4.839897
16.738772
65.013766
139.950514
318.480730
499.642491
745.625496
890.785456
984.662771
959.404707
798.133016
630.235672
398.356915
238.903761
103.939772
48.988461
14.903545
6.802678
5.129576
4.850626
4.072785
4.022717
3.630519
3.555417
3.678799
4.357696
6.523728
9.191632
14.906526
21.079779
30.361414
37.386417
44.649839
48.807859
50.027966
48.374534
43.084621
37.054420
28.362870
21.670461
14.172792
9.996891
6.426573
4.121661
3.440976
2.623796
2.315640
2.172589
2.040863
1.951456
1.900792
1.837611
##ZVALUE=370
0.682473
0.624657
0.618696
0.560880
0.705719
0.713468
0.704527
0.618696
0.653863
0.678897
0.726581
0.636578
0.672936
0.724792
0.688434
0.784993
0.725985
0.637770
0.726581
0.702739
0.771880
0.639558
0.925660
0.659823
0.753999
0.812411
0.780821
0.865459
0.886917
0.780821
0.794530
0.837445
0.718832
0.752807
0.863671
0.751615
0.870824
0.867844
0.968575
0.768900
0.914931
0.850558
0.691414
0.935793
0.870824
1.008511
0.901818
0.901818
1.033545
1.005530
1.037717
1.109838
0.972748
0.879765
1.040697
1.137853
1.154542
1.248717
1.261830
1.369715
1.484752
1.371503
1.542568
1.632571
1.718998
1.843572
2.789497
9.091496
44.543743
108.314753
251.068473
398.945808
630.113482
797.914863
932.937860
949.173570
830.878019
670.096874
434.659719
281.757712
136.494637
68.706870
24.285913
10.582805
5.273819
4.739761
4.182458
3.706813
3.486872
3.436804
3.022552
3.282428
3.942847
5.253553
8.802414
12.151599
18.940568
25.203824
34.230947
39.925575
45.417547
47.394633
45.909882
42.736530
35.444498
28.559566
21.334887
14.051795
10.689497
6.798506
5.005598
3.280640
2.619624
2.278686
1.979470
2.037883
##ZVALUE=375
0.623465
0.599623
0.697970
0.695586
0.662804
0.722408
0.720620
0.582933
0.552535
0.730753
0.846982
0.735521
0.440478
0.620484
0.617504
0.621676
0.735521
0.783801
0.815988
0.785589
0.823736
0.785589
0.880957
0.890493
0.832677
0.599623
0.614524
0.761747
0.694990
0.854731
0.837445
0.689626
0.720620
0.769496
0.673532
0.840425
0.722408
0.932813
0.700951
0.903606
0.745654
0.874996
0.855923
0.882745
0.939965
0.894666
0.897646
0.926852
0.874996
0.782609
1.064539
1.032948
0.920892
0.882745
0.939965
0.954866
1.077652
1.132488
1.013875
1.315475
1.239777
1.178980
1.149774
1.217723
1.286864
1.286864
1.496673
1.667738
2.107620
4.796982
23.685694
63.933730
179.354548
315.856934
534.073710
710.882545
898.821950
963.269472
903.757811
771.347880
539.588928
372.606516
202.174783
112.553835
43.227673
18.555522
6.252527
4.471540
4.099607
3.698468
3.490448
3.244877
3.214478
2.962947
2.924800
3.275871
4.675984
6.349683
10.167956
14.427900
21.670461
28.152466
36.616921
41.148663
44.097900
44.005513
40.923953
34.833550
29.663444
23.700595
16.917586
12.288690
7.990599
5.560517
3.612638
2.719760
##ZVALUE=380
0.647902
0.681877
0.568628
0.655651
0.496507
0.693798
0.675917
0.820756
0.632405
0.664592
0.651479
0.646710
0.600815
0.810623
0.594854
0.642538
0.681877
0.701547
0.597835
0.715852
0.547767
0.576973
0.608563
0.688434
0.626445
0.571609
0.772476
0.604987
0.672936
0.790954
0.726581
0.655651
0.830889
0.713468
0.891685
0.722408
0.889897
0.771880
0.584722
0.881553
0.742674
0.768900
0.882745
0.850558
0.962615
0.837445
0.659823
0.962615
0.915527
0.903606
0.895858
0.870824
0.930429
1.026988
0.922680
0.914931
0.936985
1.063943
0.934601
0.943542
1.042485
1.210570
1.020432
1.162887
1.192689
1.342893
1.552701
1.283884
1.627803
1.895428
1.900792
2.906919
13.187528
41.630864
124.789476
235.964656
454.005003
643.211603
853.688717
941.338539
930.925608
832.124949
638.234019
467.298627
267.239809
155.085921
63.016415
28.215647
8.730888
4.706979
4.065633
3.643632
3.562570
3.389716
3.256798
3.094673
2.733469
2.959967
3.101826
3.781915
6.015897
8.725524
13.539791
18.583536
26.422739
32.310486
38.387775
41.409731
41.535497
39.947629
36.361814
29.806495
24.548769
17.332435
12.949705
8.474588
##ZVALUE=385
0.735521
0.748634
0.741482
0.709891
0.869632
0.676513
0.570416
0.616908
0.454783
0.683665
0.490546
0.558496
0.702739
0.661612
0.740886
0.529885
0.671744
0.510812
0.767708
0.612736
0.700951
0.629425
0.656843
0.719428
0.624657
0.745654
0.772476
0.809431
0.794530
0.711679
0.717640
0.813603
0.806451
0.708699
0.763535
0.739694
0.852942
0.798702
0.978708
0.933409
0.852942
0.953674
0.762939
0.801682
0.758767
0.783801
0.709891
1.011491
0.849962
0.770688
0.921488
0.912547
0.840425
0.765920
0.838637
0.833869
0.848770
0.911951
0.993609
1.018643
1.095533
1.038909
1.050830
1.074672
0.906587
1.023412
1.161695
1.167655
1.393557
1.437664
1.540780
1.719594
1.760721
2.145767
6.386638
21.225810
79.036951
171.847939
363.062620
545.154810
776.333809
895.249844
950.317979
907.821655
743.373036
583.232641
364.998579
229.455829
102.819800
49.600601
16.009808
6.360412
4.021525
3.574491
3.488660
3.401637
3.229976
3.049970
2.961755
2.803802
2.768636
2.780557
3.566742
4.603863
7.287860
10.339618
16.030669
22.447705
27.406812
33.318996
36.715865
38.946867
38.317442
34.606457
30.235648
24.282932
##ZVALUE=390
0.690818
0.607967
0.707507
0.702739
0.699759
0.612736
0.650883
0.757575
0.765920
0.730753
0.651479
0.676513
0.641942
0.606775
0.562668
0.741482
0.692606
0.669956
0.708699
0.612736
0.699759
0.540614
0.836849
0.648499
0.698566
0.651479
0.744462
0.751615
0.709891
0.733733
0.671744
0.774860
0.788569
0.767708
0.818968
0.837445
0.767708
0.914931
0.808835
0.934601
0.962615
0.822544
1.002550
0.854731
0.881553
0.768900
0.782609
0.960827
0.799894
0.922680
1.037717
0.836849
0.914931
0.973940
1.051426
1.036525
0.931621
0.949502
0.863671
0.996590
0.939965
1.049638
0.955462
1.000762
1.052618
0.923872
1.095533
1.331568
1.359582
1.381636
1.482964
1.502633
1.509786
1.638532
1.773834
1.846552
3.666878
14.045835
60.667992
132.445693
288.346410
452.196002
681.187510
832.463503
954.850912
959.873796
838.799477
691.688657
461.966991
300.118923
141.586661
71.265697
24.327636
9.538531
4.484653
3.908873
3.607869
3.706813
3.452897
3.215671
3.248453
3.168583
2.783537
2.653599
2.679825
2.990961
4.129410
6.398559
8.655787
13.152957
17.671585
23.636818
28.630495
33.557415
36.684871
36.384463
##ZVALUE=395
0.821948
0.712872
0.555515
0.662804
0.666976
0.551939
0.704527
0.463724
0.711679
0.627637
0.588894
0.577569
0.595450
0.579953
0.707507
0.720620
0.606775
0.620484
0.472665
0.573993
0.649691
0.550747
0.730753
0.758767
0.811815
0.805855
0.669956
0.664592
0.900626
0.605583
0.876784
0.594854
0.800490
0.794530
0.660419
0.860691
0.921488
0.921488
1.033545
0.874996
0.740886
0.963807
0.999570
0.992417
1.091957
1.021624
1.033545
0.993609
0.986457
0.911951
1.002550
1.107454
1.022816
0.951886
1.046658
1.126528
1.030564
0.984669
0.961423
1.068711
0.963807
1.183748
0.842810
0.933409
1.009703
1.022816
1.328588
1.224875
1.149774
1.490712
1.341701
1.574755
1.454949
1.409650
1.360774
1.513958
1.666546
1.724958
2.304912
7.028580
34.703612
87.381005
210.744739
350.546837
578.822494
754.093528
917.707682
968.324542
912.819505
780.168772
541.808009
371.158719
191.697478
103.840828
40.942430
17.348528
5.712509
4.048944
3.665686
3.644824
3.567934
3.642440
3.283620
3.424883
3.136992
2.998710
2.710819
2.563596
2.819896
3.403425
4.748702
7.386804
10.682940
15.594959
20.463467
26.773810
##ZVALUE=400
0.801682
0.807643
0.690818
0.563860
0.643730
0.667572
0.606775
0.663996
0.571609
0.715852
0.576973
0.651479
0.720620
0.713468
0.676513
0.744462
0.473857
0.531673
0.518560
0.694990
0.691414
0.700951
0.724792
0.509620
0.681877
0.546575
0.742674
0.978708
0.638962
0.796914
0.724792
0.797510
0.662804
0.856519
0.872612
0.920892
0.892878
0.897646
0.918508
0.868440
0.791550
0.956655
0.834465
0.916719
0.857711
0.941753
0.948906
0.917912
0.882745
0.917912
0.916719
0.762939
0.897646
0.962615
1.013875
1.015663
1.033545
0.963807
1.091957
0.980496
1.147985
1.111627
0.901818
0.971556
1.110435
1.012683
1.139641
1.328588
1.309514
1.219511
1.287460
1.297593
1.324415
1.280904
1.388788
1.344681
1.448989
1.526475
1.540780
1.750588
1.898408
3.614426
18.721819
52.326918
148.919821
269.683003
485.563874
662.387013
865.048766
952.773690
931.398869
827.624798
615.689754
452.368855
262.385607
153.963566
65.368414
29.528737
8.951426
4.646778
3.553629
3.636479
3.714561
3.594756
3.556609
3.492832
3.262758
3.167987
2.901554
2.481937
2.417564
2.711415
3.046989
4.167557
5.840659
9.235740
##END
