##TITLE=7-1
##FORMAT=SPECTACLE-ASCII V-1.2
##DATA TYPE=ULTRAVIOLET SPECTRUM
##SECOND TYPE=ULTRAVIOLET SPECTRUM
##DATE=04/11/18
##TIME=13:38:30
##SPECTROMETER/DATA SYSTEM=SPECTACLE
##XUNITS=NM EM
##YUNITS=ENERGY
##YFACTOR=1
##FIRSTX=220
##LASTX=450
##NPOINTS=116
##3DDATA=Equidistant
##ZUNITS=NM EX
##FIRSTZ=210
##LASTZ=400
##ZPOINTS=39
##XYDATA=(Y..Y)
##ZVALUE=210
13.876557
15.400648
11.980534
11.394620
10.956526
11.311769
9.651780
8.358955
7.659793
6.511807
5.118847
3.039837
3.259778
2.581477
2.634525
3.052950
3.214478
2.814531
2.815723
2.922416
2.893806
2.965927
3.419518
3.186464
3.598928
3.992915
4.035830
3.985763
3.911853
4.136562
4.791617
4.774928
4.520416
5.298853
6.254911
6.191730
6.152987
5.226731
6.263852
5.906820
6.149411
5.442500
6.838441
7.094741
6.308556
6.306767
6.557703
6.486773
6.876588
7.410645
7.437468
7.275939
6.524920
7.366538
7.300973
6.453991
7.268786
7.539988
7.271767
7.506609
7.285476
6.299615
7.302761
6.300807
6.302595
7.024407
7.132888
7.876754
8.842945
8.249879
8.541942
9.486675
10.566711
11.921525
11.973977
11.612773
13.981462
12.567639
10.446906
11.063814
10.934472
9.431839
8.862615
8.407831
7.918477
6.235838
5.800724
5.836487
6.310940
7.296801
8.728504
11.829734
13.762712
17.738938
20.754933
26.191473
31.439662
36.303997
38.513541
41.911602
45.335889
46.773553
47.254562
47.984719
44.186711
42.995811
41.601658
37.413836
34.177899
26.456714
22.305846
19.935966
15.391707
14.731884
13.764501
12.895465
##ZVALUE=215
38.336515
36.750436
31.752586
25.125742
17.812848
18.018484
17.449856
15.325546
16.008615
13.854504
12.018681
8.775592
8.559823
5.048513
4.571676
3.549457
3.424883
3.051758
3.614426
2.698898
3.114939
2.944469
3.842711
3.987551
3.390908
3.900528
4.367828
3.854632
3.994703
5.233884
4.786849
5.231500
5.139709
5.593896
5.424619
6.597638
6.726980
6.396770
7.462502
7.755756
8.137822
7.541776
6.811619
7.964969
7.516742
7.531643
7.954836
7.285476
7.550716
8.082986
8.704662
8.498430
8.404851
9.465814
9.915829
9.721518
9.193420
8.937716
9.415746
9.348989
9.070635
9.311438
8.457899
8.278489
7.951856
7.351637
9.054542
8.728504
8.610487
9.348989
10.342598
10.374784
11.729598
11.886954
11.881590
11.937618
11.573434
11.438727
10.794997
10.222793
9.272695
8.889437
7.662773
7.877946
6.899834
6.568432
5.949736
5.492568
5.691648
5.652905
5.337000
4.984736
5.837679
5.990863
8.524656
11.785626
13.509989
17.267466
25.113821
30.510426
36.151409
45.884848
48.245788
56.118965
62.986612
63.716769
69.737434
69.177747
68.782568
64.602494
63.574910
57.956576
50.991774
43.844581
40.168762
31.533837
##ZVALUE=220
75.525641
75.335503
73.864460
67.444444
58.076978
44.725537
34.586787
26.006699
25.830865
26.420951
24.279952
24.784803
21.614432
18.166900
16.469955
10.004640
7.679462
5.932450
4.804730
3.740788
3.731847
3.718734
3.766418
3.842711
4.731417
4.449487
4.421473
4.378557
5.680919
4.945993
5.487800
5.288720
6.471872
6.916523
6.698966
6.165504
7.158518
7.693768
7.737875
7.634759
7.998943
8.828640
8.246899
8.962750
9.422898
9.511709
8.866787
9.323955
9.665489
10.041595
11.135936
10.564923
11.423826
12.669563
12.938976
12.645721
12.919903
12.584925
12.497902
11.923909
12.084842
12.040734
11.426806
11.211634
10.618567
10.454655
10.066628
10.305643
10.154843
11.528730
11.286736
11.908412
11.497736
11.542439
13.626814
12.513995
11.816621
11.244416
12.010932
12.058616
9.114742
9.098649
8.525848
7.274747
8.268952
6.880760
6.836653
6.438494
6.195903
5.789995
5.044937
6.394982
5.956888
5.791783
5.145669
5.437732
6.345510
5.413890
6.125569
9.089708
10.780692
15.230775
24.899840
33.838749
39.791465
51.990747
62.638521
77.911615
87.115765
97.227693
102.407932
108.584762
106.788874
110.670924
103.385448
94.942451
##ZVALUE=225
96.802711
98.032951
120.960474
125.949979
131.253600
117.021799
104.239583
77.711940
57.220459
44.160485
39.815903
37.772655
39.256811
38.949847
35.229921
32.732487
28.093457
20.947456
14.935732
9.824634
6.419420
5.516410
4.853606
4.209876
4.644990
4.579425
5.175471
4.471540
4.863739
5.325675
5.146861
5.495548
5.875826
6.587505
6.368756
6.924868
8.010864
8.233786
8.758903
7.905960
8.798838
8.542538
10.360479
8.723736
8.868575
9.927750
9.426475
9.913445
11.238456
12.392998
12.489557
13.261437
15.737414
13.694763
15.658736
14.201999
13.457537
14.422536
13.801455
14.037490
14.983416
13.638735
13.909936
13.746619
12.886524
13.750792
11.828542
13.026595
12.896657
12.931824
13.088584
13.027787
14.282465
13.013482
13.587475
13.946891
12.367964
14.180541
12.019873
11.071563
9.672642
11.035800
8.036494
8.628964
9.101629
8.048415
7.619858
5.927682
6.063581
6.593466
6.361604
6.493926
5.895495
6.102920
6.821752
5.741715
6.658435
6.433725
5.362630
6.293654
5.979538
6.724596
7.498860
7.917881
11.038780
16.510487
24.243593
35.856962
42.925477
58.865547
70.370436
89.507699
102.653503
125.163794
141.972899
155.123472
##ZVALUE=230
63.752532
66.627860
112.585425
149.456859
182.129741
216.184855
230.160952
207.412839
179.139972
140.393972
104.779601
72.897673
59.697628
52.484870
54.881573
61.750412
57.591796
53.398609
47.785640
38.700700
28.766990
20.006895
13.531446
8.054972
6.354451
6.072521
5.383492
5.271435
5.889535
5.318522
5.273819
6.010532
5.851984
5.809665
6.711483
7.209778
8.182526
7.896423
8.996725
8.945465
10.161996
10.010600
9.333491
10.060668
10.325909
9.908676
10.754466
11.206865
12.533665
12.757778
13.043880
13.693571
14.199615
15.183687
15.328526
15.317798
14.283657
16.033649
15.527606
13.941526
14.138818
14.823675
14.237761
14.242530
14.125705
12.358427
13.952851
13.771653
14.868975
14.893413
14.259815
13.647676
13.457537
15.018582
14.790893
14.528632
15.525818
13.661981
12.895465
12.468696
11.747479
12.508631
10.945797
10.387897
9.626746
9.320974
7.371902
9.772778
7.813573
8.420944
8.699894
7.624626
7.421970
7.633567
7.313490
7.480979
7.640719
7.090569
6.511807
7.114410
7.511973
7.316470
7.591844
6.927848
7.781982
6.731749
6.954670
8.138418
9.476542
12.980700
19.346476
26.708841
40.908456
56.877732
80.471635
107.766986
##ZVALUE=235
20.216703
19.780993
46.591759
81.325769
135.889649
210.306644
269.932747
328.174829
351.293683
332.980752
291.779637
227.766633
170.136690
114.599466
88.931918
75.709820
77.037811
82.558990
87.397695
84.495544
82.696676
71.950555
50.457716
38.112998
23.001432
15.432835
10.251999
7.549524
6.297827
5.404949
6.765723
6.016493
6.150603
5.729795
7.292628
7.472634
7.474422
8.063912
8.950830
8.763671
9.622574
9.764433
9.228587
9.985566
10.184646
10.927916
10.492802
10.989904
11.664629
12.003779
11.344552
12.458563
12.340546
12.450814
13.246536
13.179779
12.611747
15.249848
13.128519
12.903810
13.306737
12.411475
13.757944
12.871623
12.786984
13.102889
13.346672
13.856888
14.721751
16.135573
13.717413
15.015602
15.459657
15.574694
17.057657
15.085936
15.415549
15.620589
15.264750
13.052821
13.159513
12.231469
12.783408
10.788441
11.127591
10.365844
10.889769
10.482669
9.401441
9.329915
9.166598
8.115768
8.846521
8.567572
9.199977
9.294748
9.499788
8.380413
8.068681
6.943941
8.858442
8.378625
8.333921
7.597804
8.829832
7.694960
8.173585
8.443594
7.408857
8.193851
7.617474
7.394552
8.521676
10.840893
15.988946
23.472905
##ZVALUE=240
2.717972
3.310442
8.500814
19.896626
44.966936
101.338625
166.144967
277.041793
358.427763
449.432731
486.783981
484.116673
444.130898
347.256660
274.702907
178.503990
133.661628
102.420449
99.355578
105.057955
112.548470
120.172501
118.496418
99.091530
87.606907
62.442422
48.241615
32.450557
20.300746
13.088584
8.865595
7.296801
8.279681
6.652474
7.174611
7.961988
8.635521
8.014441
9.712577
9.349585
9.560585
8.476973
9.209514
10.175705
9.859800
10.635853
11.014938
10.390878
10.746717
12.267828
12.356639
12.525916
10.977983
12.137890
11.896491
12.438893
12.656450
12.658834
12.788773
11.597872
12.298822
13.042688
14.218688
13.556480
14.458895
13.159513
12.049675
13.455749
12.705922
13.481975
14.293790
14.940500
15.175939
17.754436
16.264915
15.848875
17.337799
15.970469
16.102791
16.561747
13.896823
14.506578
12.565851
12.547970
11.866689
11.233687
11.166930
10.703802
10.580420
10.875463
10.225773
9.931922
8.411407
8.451939
8.484721
9.682775
8.977652
9.073615
9.014606
9.582639
9.383559
9.300709
9.686947
9.377599
9.576678
9.569526
8.948445
9.525418
8.391738
8.831620
8.238554
8.671880
9.342432
8.209944
8.762479
7.786751
##ZVALUE=245
2.477765
2.389550
2.231598
2.180934
4.321933
13.183951
33.340454
88.592768
152.938962
266.220570
376.409888
502.162576
566.805601
595.946908
559.139848
469.300747
375.988483
254.337788
179.843903
119.773746
101.416707
100.320578
114.694834
129.975677
133.600831
126.919746
117.590427
99.028945
71.205497
55.817962
34.657717
22.798777
14.373660
9.324551
7.019639
7.445812
7.312894
7.494688
8.452535
8.060932
8.340478
9.381771
9.560585
9.154677
9.560585
9.899735
10.661483
9.941459
10.619760
10.480881
10.828972
10.118484
10.269880
10.655522
10.767579
9.969473
10.701418
10.956526
9.717941
8.997917
10.469556
10.401607
10.726452
11.528730
10.274649
10.483861
10.908842
11.172891
11.412501
11.076927
12.722611
12.987852
13.602972
14.557838
13.321638
13.530850
13.704896
12.420416
12.534857
11.838675
11.809468
10.769963
11.131763
9.864569
9.738803
9.880662
8.856654
8.937716
8.424520
7.451773
8.444786
8.660555
8.735657
8.325577
8.098483
7.670522
8.385777
7.475615
7.627606
7.773638
8.471608
8.499622
8.507967
7.966757
8.062720
8.620620
7.940531
7.973909
8.940697
8.114576
7.712841
8.346438
8.286834
7.265806
7.544756
7.357597
##ZVALUE=250
1.628995
1.846552
2.232790
1.827478
2.029538
2.155900
2.617836
8.751750
23.594499
67.459941
124.127865
249.378681
358.111858
502.260923
596.265793
649.178028
642.898679
569.915771
480.516553
333.950520
228.426456
143.864751
109.052658
94.745755
99.634528
123.073459
131.923556
143.971443
139.503479
121.567845
103.197694
80.218911
54.645538
37.325621
22.444725
14.472604
10.221601
7.485747
7.733703
8.451939
8.836985
8.531809
9.216666
9.420514
9.643435
10.185838
9.890795
10.001659
10.167956
9.616613
10.077953
10.916591
10.984540
9.598732
10.533929
10.215640
10.520816
9.994507
9.198785
9.720922
9.810925
9.086728
9.263754
9.559989
9.277463
9.354949
8.909702
9.196997
8.862615
9.842515
10.555983
9.233952
11.179447
11.629462
11.835694
11.075735
10.476708
11.081696
10.172725
9.103417
9.161830
8.060932
8.083582
8.022785
7.586479
6.311536
6.921887
7.110834
6.621480
6.896853
6.631613
6.802678
6.678700
6.288886
6.401539
7.048845
6.645918
5.976558
7.068515
6.478429
6.252527
6.226897
6.019473
6.155968
6.629825
6.952882
6.282926
7.024407
6.561875
6.353855
6.863475
6.518960
5.702972
6.260872
6.194711
6.596446
##ZVALUE=255
1.544952
1.555681
1.614690
1.888871
1.836419
1.896620
1.989603
1.837611
2.151728
5.327463
15.110970
50.165653
101.792812
211.494565
316.564441
482.859015
602.324605
700.344443
735.540986
687.099695
601.784587
438.337922
301.604867
193.209648
111.440420
88.637471
89.126825
103.693604
125.600696
142.043829
147.619843
142.467618
129.162669
110.659599
80.346465
59.759617
36.598444
23.407936
14.819503
10.759830
9.946823
8.849502
9.923577
9.707808
9.869933
9.842515
10.654926
9.932518
10.440946
10.770559
11.404753
10.354519
10.664463
11.900663
10.837913
10.766983
9.126663
9.936690
9.683967
9.795427
9.002686
9.293556
9.066463
9.372830
8.924603
8.709431
8.182526
7.929802
8.491874
8.507967
7.765889
8.650422
8.767843
8.622408
8.472800
9.035468
8.534789
8.397698
7.268786
7.400513
6.602407
6.827712
6.296635
6.296635
6.239414
5.740523
5.570650
5.910993
5.165935
5.113482
4.686713
5.114675
5.364418
4.950762
5.075932
5.501509
5.356669
4.516840
4.911423
4.626513
5.855560
4.901886
4.857779
5.548596
5.136728
5.634427
5.253553
5.056858
5.325675
4.907846
5.620718
5.291700
5.214810
5.428791
5.123615
5.043745
##ZVALUE=260
1.507998
1.635551
1.544952
1.403689
1.680851
1.720786
1.825690
1.788735
1.780987
2.227426
2.223849
2.891421
8.651614
34.302473
72.638988
162.213445
268.219709
436.465740
576.716661
732.765794
807.778835
800.250769
724.840760
556.574464
412.953496
248.137712
161.003470
109.492540
77.937841
84.034801
105.781555
125.766993
148.575902
157.039762
148.035884
136.695504
111.158490
88.526607
60.637593
42.278767
27.086735
19.317865
13.313890
11.656880
12.111664
11.655688
11.653900
11.546612
12.116432
12.627840
12.163520
12.331605
12.138486
12.031794
12.074709
12.079477
11.525750
11.740923
11.263490
10.250807
10.458827
10.295510
9.703636
10.058880
8.887649
8.904934
9.055734
8.645654
8.611679
8.192658
8.614659
8.858442
8.437634
8.736849
9.231567
8.024573
8.576512
7.392764
7.047653
7.247925
6.280541
5.821586
5.419850
5.601645
5.654693
6.029606
4.773736
4.917979
5.314946
4.559755
5.008578
4.661679
4.397631
4.616976
4.368424
4.139543
4.127622
4.679561
4.332662
5.010962
4.408956
4.332662
4.581809
4.291534
4.339814
4.492998
4.649758
4.500747
4.393458
4.562736
4.223585
4.507899
5.036592
4.661679
4.877448
4.484653
##ZVALUE=265
1.593828
1.359582
1.655817
1.297593
1.307726
1.330972
1.550913
1.912713
1.620650
1.731515
1.737475
1.779795
2.141595
2.230406
4.973412
21.544695
51.056743
129.837990
224.787593
405.679941
559.010506
754.303932
855.257511
888.928771
827.855468
670.973659
519.144535
378.695726
214.865804
132.945776
78.690648
71.129799
85.597634
110.154748
137.450695
155.728459
163.979530
160.395503
139.535666
119.254589
88.284612
67.909956
44.156909
31.490922
20.658970
16.342998
14.318824
14.169812
13.804436
13.701916
14.417768
14.131665
14.023781
14.059544
13.489723
13.445616
13.541579
12.613535
13.174415
12.711883
12.278557
11.457801
10.779500
10.781884
10.463595
10.087490
9.405613
9.605885
8.990765
9.371638
9.450912
8.902550
9.320974
8.391738
8.525848
7.983446
7.998943
7.068515
7.418990
6.733537
6.261468
6.438494
5.254745
5.241632
5.510449
5.124807
5.068779
5.201697
4.758835
4.441738
4.728436
4.330873
4.466772
4.131794
4.045963
4.353523
4.178882
4.304647
3.995895
4.503727
3.994703
4.442930
4.331470
4.112720
4.291534
4.271865
4.073977
4.132986
4.504919
4.284978
4.183650
4.077554
3.581643
4.279613
4.327893
3.872514
##ZVALUE=270
1.317859
1.176596
1.251698
1.421571
1.332760
1.371503
1.554489
1.639724
1.553893
1.798868
1.346469
1.509786
1.751781
1.859665
1.896620
2.269745
2.730489
10.409951
28.424859
92.021823
170.076489
343.475938
521.428585
695.895553
870.054960
935.277939
916.960835
817.302465
637.464523
482.468009
292.895436
183.541775
93.589425
65.611601
66.382885
83.236694
117.940903
139.974952
161.409974
166.515708
160.837770
146.850944
121.364594
96.413493
67.399740
48.636794
32.174587
24.700761
18.645525
16.967654
16.209483
16.862750
16.252995
15.887618
15.764832
15.875697
15.310645
14.952421
14.798641
13.972521
14.087558
12.915730
12.217760
11.573434
11.763573
10.502934
10.359883
10.719895
10.499954
9.711981
9.808540
9.314418
9.044409
9.264946
9.448528
8.294582
9.005666
8.544922
7.407665
6.985664
6.966591
6.006956
5.893707
5.793571
4.913807
5.269647
5.416870
5.167723
5.147457
4.826784
4.753470
4.629493
4.185438
4.324913
4.340410
4.769564
4.542470
4.212856
3.916621
4.349947
4.397631
4.369617
4.243851
4.093647
4.239678
4.228950
4.249811
4.086494
4.252791
4.189610
4.130602
4.269481
4.237890
4.230738
3.990531
3.457665
##ZVALUE=275
1.007915
1.334548
1.287460
1.145601
1.018643
1.315475
1.228452
1.453757
1.288652
1.063943
1.322627
1.407862
1.423955
1.367927
1.543760
1.468658
1.658797
1.716614
1.944900
5.238652
16.828775
62.496662
136.407614
253.904462
468.444824
634.161830
821.628571
932.949781
974.058509
923.011899
773.637891
616.698861
392.721891
243.480802
120.808482
73.766708
54.020882
64.016581
92.617869
114.988685
141.541958
158.839822
166.767836
163.413882
145.037770
124.159455
95.644593
73.043704
49.592853
36.999583
25.517941
20.897985
19.393563
17.727613
16.774535
17.021894
15.456676
16.875863
15.734434
14.772415
14.561415
14.070868
13.587475
12.456775
12.281537
11.922717
11.697412
11.020899
10.906458
10.850430
10.565519
9.784698
9.839535
10.494590
9.123683
8.795857
9.035468
7.966757
7.828474
7.504821
7.045865
6.595850
6.681681
6.343722
5.957484
5.644560
5.772710
5.804896
5.216599
5.390644
4.919767
5.253553
4.992485
4.891753
4.787445
4.587770
4.480481
4.337430
4.607439
4.635453
4.140735
4.281998
4.366636
4.158616
4.078746
4.087687
4.219413
4.183650
4.269481
4.153848
3.887415
4.196763
3.814697
3.902912
3.838539
3.868937
##ZVALUE=280
1.094937
1.087785
1.066923
1.119971
1.223683
1.090765
1.131892
1.140833
1.178980
1.219511
1.146793
1.122952
1.351833
1.387596
1.367927
1.224875
1.415610
1.573563
1.542568
1.796484
2.188683
3.080964
10.514855
44.860840
100.086927
225.882530
359.497666
518.447757
743.678808
880.847573
993.856788
987.615585
857.172608
704.229474
466.516018
314.611793
160.056949
90.600848
49.244761
46.175718
64.797997
87.163448
119.447708
139.819980
159.752965
165.317655
158.341527
142.413974
117.858648
97.280741
67.017674
51.058531
33.404827
25.356412
18.924475
16.702414
15.150905
15.825629
14.459491
13.314486
13.528466
13.646483
13.018847
12.704730
12.022853
11.699796
11.063814
11.007786
10.883808
10.607839
9.773970
10.152459
10.431409
9.774566
9.454489
9.181499
8.820891
8.644462
8.082986
8.038878
7.539988
7.115602
6.871819
7.282495
6.541610
6.667972
6.128550
6.247759
5.974770
5.477667
5.695820
5.503893
5.122423
4.932880
5.113482
5.207658
5.278587
4.663467
4.980564
4.769564
4.860759
4.716516
4.858971
4.788637
4.604459
5.008578
4.282594
4.727840
4.592538
4.196763
4.584789
4.393458
4.215837
4.195571
4.175901
3.961921
##ZVALUE=285
1.133680
0.972748
1.169443
1.083612
1.045465
1.208782
1.114607
1.076460
1.346469
1.157522
1.051426
1.169443
1.235604
1.212955
1.220703
1.300573
1.275539
1.357794
1.501441
1.646876
1.757741
1.839995
1.844764
2.221465
4.581809
23.015738
56.811571
144.718885
253.760815
404.930711
637.888908
797.704458
964.613557
1008.237600
939.970016
810.022950
589.253902
407.121778
218.076706
125.573874
67.775846
38.063526
38.964748
59.729815
79.157948
110.643506
129.716992
151.170492
157.800913
154.169798
140.225887
120.965838
92.088580
70.934892
46.470761
33.710599
22.004843
16.613603
13.815761
13.481975
12.228489
11.660457
11.664629
11.400580
10.909438
10.731816
10.688901
10.219812
10.210872
9.951591
10.209680
9.852648
9.881854
9.305477
9.195805
8.837581
8.757710
8.102655
8.399487
8.087754
7.464886
7.261634
7.422566
7.199645
7.114410
6.813407
6.513000
6.541610
6.279945
6.285906
6.181598
5.904436
5.750656
5.634427
5.480647
5.715489
5.329847
5.394816
5.068779
5.169511
4.946589
4.975796
5.104542
5.143881
5.146861
4.947782
4.906654
4.658699
4.961491
5.017519
4.943609
4.473925
4.425645
4.611611
4.339814
4.235506
##ZVALUE=290
0.850558
1.068711
0.946522
1.069903
0.956655
1.056790
1.024604
1.093745
0.912547
1.005530
1.199841
1.056790
1.211762
1.181960
1.182556
1.241565
1.091957
1.125932
1.072884
1.396537
1.459718
1.454949
1.445413
1.743436
1.706481
1.726747
2.595782
8.293986
35.372972
81.291795
186.562538
316.991806
547.471642
724.816918
931.323767
1009.222865
1004.496813
901.144743
686.361790
514.865518
300.411582
179.013610
79.902411
40.610433
27.433634
34.126639
53.471923
72.794557
101.590753
121.951699
143.860579
150.470734
147.608519
135.648847
112.610459
91.102719
61.503649
45.527816
28.176904
20.427704
13.948679
11.746883
10.106564
9.640455
9.430647
9.310842
9.168983
9.712577
9.190440
9.179711
8.646846
9.404421
9.228587
9.093881
9.027719
9.371638
8.287430
8.101463
7.876754
7.832646
7.954836
7.697940
7.619858
7.434487
7.189512
6.936789
6.685853
6.780624
6.408691
6.598830
6.205440
6.121993
5.895495
5.967617
5.760789
5.677938
5.478859
5.477667
5.661845
5.418658
5.570650
5.417466
5.439520
5.367994
5.567670
4.923940
5.138516
5.122423
5.130768
5.125999
5.239844
5.183816
4.702806
4.683733
4.713535
4.546642
##ZVALUE=295
1.080632
1.163483
0.916719
1.042485
0.942945
1.037717
0.892878
0.944734
0.922680
0.995994
1.043677
1.143813
1.083612
1.123548
0.893474
1.044869
1.063943
1.057982
1.038909
1.363754
1.470447
1.407862
1.295805
1.398921
1.594424
1.406670
1.754761
1.725554
1.977682
3.509521
16.942620
45.064688
127.959847
239.486694
454.917550
634.032488
860.582590
985.872746
1015.712619
964.456797
786.268711
615.631938
380.565524
235.958695
108.403563
54.714680
24.544597
21.864772
32.149553
46.678782
70.938468
90.841651
117.329955
131.173730
140.782595
139.477849
123.053789
107.792616
82.408786
63.134432
41.057467
28.807521
17.612576
12.542605
9.554625
8.137822
7.897615
7.658601
8.047819
7.890463
8.198619
8.126497
8.364916
8.305907
7.981658
7.952452
7.846951
7.851720
7.868409
7.931590
7.598996
7.082820
6.978512
6.946921
7.099509
6.698966
6.817579
6.683469
6.378889
6.280541
6.175637
6.275773
6.058812
5.883574
6.060600
6.162524
5.693436
5.879998
5.854964
5.907416
5.850792
5.659461
5.598664
5.711913
5.778670
5.831718
5.341768
5.155802
5.284548
5.312562
5.354881
5.300641
5.300641
4.979968
4.841685
4.897714
##ZVALUE=300
0.894666
1.033545
0.989437
0.918508
0.760555
0.906587
0.860691
0.852942
0.895858
1.024604
0.936985
0.876784
0.860691
1.021624
1.044869
1.108646
1.132488
1.144409
1.207590
1.111627
1.097918
1.123548
1.227856
1.234412
1.430511
1.211762
1.397729
1.527667
1.583695
1.575947
1.825690
2.464652
8.587837
26.080608
87.319613
170.972943
347.784758
531.122684
781.348944
935.528874
1015.712023
1015.712023
906.456709
741.822720
489.610434
315.577984
159.747005
86.127520
32.985806
18.904805
19.200444
26.982427
43.013692
60.100555
85.280538
104.420781
124.701858
133.127570
132.319927
121.927857
101.218820
83.952546
60.366988
42.815804
26.511550
17.651916
11.146665
9.284616
7.516742
7.248521
7.009506
7.458925
6.883740
7.683635
7.396936
7.586479
7.227659
7.346869
7.157922
7.181764
6.801486
6.972551
6.746650
6.672740
6.809831
6.760955
6.566644
6.345510
6.331801
5.973577
6.187558
5.952716
5.767941
5.726814
5.836487
5.535483
5.581975
5.909801
5.815625
5.498528
5.111694
5.220771
5.413890
5.689859
5.494952
5.418658
5.198717
5.288720
5.324483
5.473495
4.855990
4.965663
5.109906
5.322695
4.826784
4.896522
##ZVALUE=305
0.871420
0.809431
0.913739
0.829697
0.961423
0.898838
0.819564
0.843406
0.970960
0.737906
0.907779
0.826716
0.925660
0.804663
1.075864
0.970960
0.949502
1.068711
1.067519
1.129508
0.935793
1.028776
1.140833
1.153946
1.172423
1.495481
1.395941
1.350641
1.460910
1.418591
1.546741
1.660585
1.863837
2.169609
3.383756
17.709732
48.313737
137.978792
246.116519
457.677841
649.248958
889.424682
1011.180878
1015.712619
1015.324593
817.379951
628.200769
383.998752
241.280794
112.737417
56.130886
20.221472
14.035702
17.115474
25.261641
41.446686
57.869554
81.902742
100.233555
119.035840
125.731826
123.654604
115.132928
96.513629
79.902411
55.655837
38.945675
23.699999
16.649961
10.515451
8.391738
6.981492
7.154942
6.790757
6.965995
6.549954
6.919503
6.644726
6.453991
6.716847
6.452799
6.224513
6.311536
6.060600
6.374717
6.418824
6.051660
5.903840
5.776882
5.942583
5.523562
5.508661
5.424619
5.532503
5.423427
5.332828
5.109906
5.380511
5.438924
5.255938
5.274415
5.217791
5.486608
5.047917
5.161762
5.221963
5.008578
4.844666
5.159974
4.861951
5.040765
4.926920
4.945993
4.452467
4.733801
4.334450
##ZVALUE=310
0.826716
0.774860
0.694990
0.832677
0.799894
0.869632
0.942945
0.894666
0.885725
0.945926
0.850558
0.874996
0.829697
0.934601
0.862479
0.867844
1.008511
0.839829
1.029968
0.958443
1.099706
1.070499
1.062751
1.138449
1.208782
1.225471
1.047850
1.387596
1.313686
1.190901
1.358986
1.437664
1.459718
1.545548
1.587868
1.936555
1.954436
6.591678
30.915737
72.986484
178.707838
308.396816
541.060567
735.141635
968.810916
1015.712023
1015.712023
994.193554
763.110518
566.093922
326.372981
194.779634
81.627965
37.757754
14.445782
11.439919
15.180707
21.579862
35.033822
49.495697
72.844625
89.534521
108.331442
116.463900
117.874742
111.760497
93.486905
78.189969
53.562522
38.546920
23.706555
17.102957
10.628700
8.086562
6.513000
6.179810
5.839467
5.456805
5.251765
5.509853
5.316734
5.177855
5.060434
5.159974
5.103946
5.314946
4.892945
4.910827
4.914999
5.037785
4.799962
4.766583
4.545450
4.720688
4.563928
4.685521
4.649758
4.384518
4.539490
4.817843
4.666448
4.599690
4.425645
4.622936
4.471540
4.536510
4.482865
4.524589
4.457831
4.495978
4.424453
4.298687
4.282594
4.318953
4.116893
3.945827
##ZVALUE=315
0.775456
0.733733
0.862479
0.833869
0.765920
0.862479
0.897646
0.876784
0.846982
0.941753
0.869632
0.671744
0.881553
0.809431
0.704527
0.878572
0.911951
0.981688
1.003742
0.957847
0.947714
1.020432
0.944734
0.926852
1.032948
1.142621
1.125932
0.929832
1.023412
1.088977
1.061559
1.184940
1.296997
1.313686
1.270771
1.580715
1.527667
1.749992
2.002716
3.123879
15.654564
44.700503
127.165914
231.616497
442.693830
627.246499
855.154991
990.133882
1015.712023
1003.440619
828.412771
655.465722
409.868956
259.293914
122.000575
57.826638
17.668605
10.392666
10.456443
12.933612
20.975471
30.671954
48.925877
64.309835
86.232424
98.938942
110.493898
111.511946
101.248622
89.490414
68.433881
53.288937
35.536885
23.806691
14.042854
9.928942
6.407499
5.216599
4.742742
4.668832
4.325509
4.355907
4.263520
4.078746
4.257560
4.142523
3.933907
4.010797
4.107952
4.171729
4.169941
3.960729
3.869534
3.865957
3.964901
3.870726
3.845692
3.955960
3.843904
3.904700
3.702641
3.818870
3.658533
3.528595
3.861785
3.600717
3.978610
3.775954
3.593564
3.753901
3.726482
3.773570
3.708601
3.461838
3.739595
3.586411
##ZVALUE=320
0.747442
0.657439
0.706911
0.729561
0.926852
0.883937
0.842810
0.881553
0.733733
0.863671
0.739694
0.664592
0.801682
0.832677
0.868440
0.850558
0.914931
0.928640
0.909567
0.859499
0.819564
0.761747
0.894666
0.845790
0.928640
0.837445
0.929832
1.081824
1.026988
1.070499
1.131892
1.285672
1.231432
1.082420
1.359582
1.304746
1.287460
1.374483
1.606941
1.699924
1.785755
2.130866
5.522966
28.695464
72.605610
189.428926
314.375758
522.401929
700.882673
854.874849
979.548693
977.776647
863.551497
714.050531
488.141775
323.724747
159.100890
87.601542
32.541752
14.156699
8.394718
8.603930
12.296438
17.180443
28.743744
40.501952
59.718490
75.665712
94.799995
103.032589
104.409456
99.039674
82.256794
68.641901
49.793720
36.033988
21.839738
14.215708
8.022785
5.577803
4.269481
4.044771
3.588796
3.427863
3.472567
3.580451
3.203750
3.422499
3.307462
3.242493
3.136992
3.305674
3.437996
3.324747
3.019571
3.336668
3.171563
3.067851
3.236532
3.249645
3.343821
3.353953
3.180504
3.238916
3.183484
3.068447
3.191829
3.075600
2.992749
3.097653
3.061891
3.017783
3.012419
3.011823
3.084540
2.851486
##ZVALUE=325
0.615716
0.751615
0.613928
0.838637
0.758767
0.815988
0.748634
0.660419
0.744462
0.596642
0.685453
0.766516
0.719428
0.804663
0.862479
0.811815
0.780821
0.825524
0.882745
0.901818
0.791550
0.663996
0.859499
1.045465
1.017451
0.954866
0.784993
1.026988
1.059771
0.985861
0.817776
0.873804
1.036525
1.191497
1.010895
1.106858
1.195669
1.109838
1.188517
1.459718
1.436472
1.526475
1.706481
1.860857
4.075766
14.476776
54.917932
115.615726
259.717703
406.445861
637.356639
792.512894
940.027833
969.273448
884.854794
746.371746
511.765480
352.015495
187.477469
104.124546
39.583445
17.286539
8.217692
7.201433
8.356571
10.613799
16.865730
24.947524
42.095780
57.111979
76.123476
87.825656
96.342564
97.043514
89.595914
78.996420
60.467720
45.706630
28.968453
19.709468
11.526942
7.797480
4.963875
3.950596
3.393888
2.907515
2.842546
2.935529
2.715588
2.911687
2.881885
2.628565
2.694726
2.679825
2.639890
2.755523
2.636909
2.698898
2.593994
2.834797
2.853870
2.884865
2.769828
2.750754
2.732873
2.733469
2.655983
2.615452
2.643466
2.723932
2.732873
2.688766
2.511740
2.584457
2.447963
2.400875
##ZVALUE=330
0.691414
0.834465
0.688434
0.690818
0.852942
0.612736
0.722408
0.796914
0.724792
0.716448
0.833869
0.693798
0.590682
0.809431
0.799894
0.780821
0.789762
0.687838
0.869632
0.913739
0.856519
0.952482
0.659823
0.940561
0.791550
0.819564
0.912547
0.783801
0.950694
0.867844
1.034737
0.912547
0.883937
1.087785
0.956655
1.063943
1.162887
1.174808
1.188517
1.194477
1.076460
1.312494
1.293421
1.420975
1.505613
1.593828
2.394915
6.836653
32.676458
77.962875
189.275742
314.375758
531.262755
694.665909
871.064663
941.164494
904.321671
801.401734
605.921745
440.029502
245.120525
137.716532
54.637790
25.216937
9.473562
6.757975
6.491542
7.353425
10.500550
15.242696
26.353002
37.373900
53.974986
67.063570
82.058907
88.554621
90.557933
84.327459
71.021914
58.258772
40.948987
29.640794
18.473864
12.088418
7.063746
4.987717
3.402829
3.007650
2.867579
2.522469
2.476573
2.433658
2.369881
2.398491
2.363920
2.207756
2.294779
2.523661
2.518892
2.500415
2.579689
2.541542
2.772808
2.433658
2.649426
2.375841
2.425909
2.335906
2.387762
2.359748
2.250671
2.529621
2.375841
2.231598
2.232790
2.206564
##ZVALUE=335
0.732541
0.717640
0.764728
0.820756
0.787973
0.790954
0.752807
0.736713
0.622869
0.717640
0.675917
0.677705
0.840425
0.756979
0.811815
0.775456
0.736713
0.757575
0.751615
0.797510
0.819564
0.659823
0.657439
0.820756
0.886917
0.891685
0.823736
0.804663
0.815988
0.790954
0.820756
0.948906
0.881553
0.909567
1.059771
0.899434
1.059771
1.069903
1.103878
1.006722
1.081824
1.233816
1.263618
1.290441
1.324415
1.319647
1.411438
1.640916
1.733899
2.907515
15.390515
43.796897
124.579668
229.987502
433.897972
601.486564
797.654986
896.790624
918.281674
847.014785
670.868754
507.604480
304.617882
184.347630
78.167915
36.583543
12.512803
7.241964
6.106496
5.844831
7.247925
9.318590
15.256405
22.612810
35.387874
47.329664
64.116716
75.848699
83.946586
85.333586
76.852441
68.649650
54.351687
42.374730
28.412938
20.001531
11.765957
7.622838
4.735589
3.802776
2.885461
2.493858
2.391934
2.325773
2.248883
2.237558
2.387762
2.298951
2.287626
2.170801
2.264977
2.227426
2.158880
2.287626
2.250671
2.324581
2.397895
2.437830
2.228618
2.154708
2.250671
2.070665
2.199411
2.023578
2.255440
2.022982
##ZVALUE=340
0.673532
0.641942
0.676513
0.695586
0.618696
0.793934
0.742674
0.727773
0.611544
0.676513
0.668764
0.667572
0.691414
0.746846
0.722408
0.835657
0.765920
0.839829
0.627637
0.773668
0.726581
0.641942
0.741482
0.698566
0.756979
0.839829
0.680685
0.534654
0.826716
0.830889
0.877976
0.850558
0.853539
0.777841
0.948906
0.814795
0.827909
0.861883
0.907779
1.064539
1.147985
0.975728
1.005530
1.030564
1.109838
1.156926
1.159906
1.139641
1.369715
1.532435
1.765490
2.151728
8.660555
27.887821
88.776946
174.007416
355.351567
510.956645
716.009736
836.928487
905.572772
869.759917
720.382929
575.656891
366.774797
229.280591
105.819702
51.347613
15.585423
7.802844
5.997419
5.761981
5.640984
6.152987
9.146929
13.460517
22.481680
33.063889
47.794580
60.406923
72.567463
77.722669
78.317523
73.953867
63.591599
52.795410
38.961768
28.915405
18.103719
11.725426
6.632805
4.545450
3.032684
2.799630
2.341866
2.289414
2.408624
2.288818
2.311468
2.215505
2.371669
2.076626
2.041459
2.111793
2.045631
2.026558
2.076626
2.061725
2.105832
2.162457
2.099872
2.143979
2.064705
2.177954
1.970530
2.020597
##ZVALUE=345
0.689626
0.596642
0.634789
0.800490
0.709891
0.773668
0.694990
0.697970
0.801682
0.673532
0.508428
0.679493
0.560880
0.687838
0.743866
0.605583
0.744462
0.816584
0.688434
0.755787
0.845790
0.703931
0.728965
0.717640
0.691414
0.923872
0.901818
0.806451
1.105666
0.740886
0.870824
0.811815
0.787973
0.755787
0.867844
0.883937
0.812411
0.829697
0.814795
1.062751
0.868440
0.922680
0.847578
1.089573
1.107454
1.008511
1.188517
1.224875
1.161695
1.182556
1.349449
1.265407
1.477599
1.666546
3.920794
14.443994
58.166981
119.766593
253.196955
389.512777
601.244569
750.553012
867.350698
874.548554
777.574778
645.001531
439.715981
288.958549
134.877563
66.891909
22.245646
10.219812
6.204844
5.598664
5.325675
5.244613
5.661845
7.576942
12.521744
19.458532
30.897856
41.020513
54.655671
63.064694
70.200562
72.549582
68.067908
62.327981
50.172806
40.001869
27.550459
19.361973
11.381507
7.451773
4.629493
3.428459
2.901554
2.370477
2.378821
2.199411
2.069473
2.127886
2.128482
2.205968
2.080798
2.208948
2.155900
2.030730
2.159476
1.941919
2.065897
1.869798
1.922846
2.014637
2.059937
1.914501
##ZVALUE=350
0.676513
0.612736
0.699759
0.658631
0.551939
0.659823
0.652671
0.693798
0.780821
0.664592
0.650883
0.479817
0.666976
0.619888
0.733733
0.680685
0.618696
0.657439
0.599623
0.729561
0.673532
0.751615
0.736713
0.830889
0.735521
0.719428
0.787973
0.745654
0.748634
0.816584
0.806451
0.722408
0.751615
0.857711
0.831485
0.754595
0.991821
0.827909
1.007915
0.877976
0.945926
1.033545
0.944734
0.877976
0.882745
0.989437
0.881553
0.975728
1.088977
1.146793
1.174808
1.172423
1.061559
1.372695
1.612902
1.586676
2.434850
7.255673
33.659935
77.459812
186.865926
311.538577
509.718657
661.749840
811.873674
854.642987
799.086690
686.013699
478.030443
326.761007
175.122619
94.908476
33.566952
14.058948
6.505847
5.519986
4.904866
4.471540
4.396439
5.151629
7.407665
10.782480
17.659664
24.763942
36.346912
45.710802
57.475567
63.584447
65.544844
64.197779
56.588650
48.300624
36.055446
27.268529
17.419457
12.223721
7.505417
5.150437
3.472567
2.832413
2.401471
2.249479
2.159476
2.192855
2.081990
2.001524
1.873970
2.078414
2.085567
2.005696
1.810789
1.980662
1.864433
1.961589
1.970530
1.959801
##ZVALUE=355
0.497699
0.651479
0.638962
0.763535
0.660419
0.716448
0.722408
0.769496
0.647902
0.733733
0.696778
0.780821
0.595450
0.663996
0.697970
0.636578
0.582933
0.732541
0.700951
0.763535
0.823736
0.698566
0.788569
0.703931
0.787973
0.742674
0.789762
0.600815
0.693798
0.750422
0.733733
0.886917
0.762939
0.815988
0.916719
0.661612
0.907779
0.819564
0.830889
0.742674
0.869632
1.050830
1.038909
0.866652
1.064539
0.938773
1.093745
1.102686
0.946522
1.123548
1.127720
1.128912
1.256466
1.166463
1.145601
1.270771
1.365542
1.568794
1.598001
3.422499
17.934442
49.536824
134.902596
233.576894
417.228937
570.980906
745.449662
823.611617
810.441971
716.402531
531.813502
389.944911
219.848752
121.544003
47.554970
20.151734
7.141829
5.163550
4.847646
4.300475
4.315972
4.130602
4.879832
6.054640
9.502769
14.084578
22.813678
30.035973
41.520596
49.355626
57.426691
59.951544
58.023930
53.467751
44.213533
36.503673
26.137829
19.374490
12.168884
8.633733
5.115867
3.728867
2.890825
2.661943
2.222657
2.106428
2.045631
2.050996
1.973510
1.844764
2.042651
1.934767
1.797676
1.743436
1.927614
1.769662
##ZVALUE=360
0.724792
0.740886
0.620484
0.664592
0.775456
0.640750
0.574589
0.673532
0.665784
0.701547
0.629425
0.695586
0.681877
0.683665
0.610948
0.695586
0.672936
0.760555
0.748634
0.820756
0.666976
0.820756
0.668764
0.843406
0.716448
0.791550
0.712872
0.714660
0.783801
0.702739
0.663996
0.860691
0.727773
0.908971
0.773668
0.862479
0.762939
0.773668
0.797510
0.882745
0.889897
0.924468
0.864863
0.809431
1.078844
0.950694
0.942945
1.148582
0.956655
1.102686
1.185536
1.005530
0.996590
1.016855
1.085997
1.032948
1.431704
1.288652
1.381636
1.559854
1.836419
2.718568
8.103848
25.635958
84.195733
161.011815
312.845707
463.472009
667.812824
772.585869
759.519935
750.786662
603.444576
460.639000
278.897882
112.130642
63.983798
17.081499
9.406805
4.734993
4.665852
4.078746
4.208684
3.764629
3.717542
4.019737
4.951954
9.339452
11.722445
20.644665
29.130578
35.048723
47.480464
50.759912
54.397583
54.603815
46.737790
44.782758
28.736591
27.912855
15.422702
13.260841
9.058714
5.637407
4.174709
3.015995
2.578497
2.233982
2.041459
1.958609
1.915693
1.800656
1.691580
1.966953
1.761913
1.847744
##ZVALUE=365
0.643730
0.514984
0.713468
0.694990
0.656843
0.629425
0.700951
0.686646
0.674725
0.768900
0.577569
0.625849
0.685453
0.645518
0.745654
0.779629
0.592470
0.731945
0.705719
0.774860
0.564456
0.805855
0.809431
0.643730
0.677705
0.756979
0.741482
0.794530
0.858903
0.639558
0.730753
0.761747
0.637770
0.733733
0.737906
0.811815
0.919700
0.866652
0.723600
0.848770
0.909567
0.888705
0.937581
0.817776
0.960827
0.837445
0.852942
0.910759
0.917912
0.971556
0.867844
1.056790
1.015663
0.921488
0.989437
0.987649
1.113415
1.044869
1.313686
1.346469
1.448989
1.419783
1.539588
1.767874
3.947616
13.302565
51.689744
112.539530
252.368450
395.726562
590.764880
703.786016
789.209008
775.756836
659.297705
530.369878
343.165994
210.620761
93.169808
44.665933
13.660789
6.562471
4.808903
4.179478
3.838539
3.675818
3.646612
3.340840
3.467798
4.053712
6.203651
9.038448
15.195608
20.993948
30.515790
36.953688
44.123530
48.248768
50.124526
47.754645
42.580962
36.991835
28.034449
21.490455
14.065504
9.741783
6.028414
3.974438
3.101826
2.594590
2.098680
1.838803
1.848936
1.602769
1.669526
1.552701
##ZVALUE=370
0.567436
0.581741
0.580549
0.543594
0.628829
0.650883
0.676513
0.677705
0.685453
0.539422
0.594854
0.734925
0.637770
0.751615
0.670552
0.563860
0.655651
0.612736
0.681877
0.752807
0.503659
0.656843
0.564456
0.756979
0.667572
0.694990
0.859499
0.511408
0.800490
0.640750
0.659823
0.865459
0.652671
0.692606
0.714660
0.744462
0.645518
0.840425
0.894666
0.839829
0.761747
0.798702
0.722408
0.822544
0.809431
0.930429
0.616908
0.912547
0.745654
0.898838
1.005530
0.962615
0.872612
0.959635
0.921488
0.874996
0.923872
0.898838
1.021624
0.983477
1.160502
1.182556
1.314878
1.385808
1.507998
1.480579
2.346635
7.352829
36.167502
86.888671
202.817917
319.985747
504.737496
641.805530
761.531591
779.106617
693.284869
565.299988
374.569893
247.305632
123.942494
63.679814
22.795796
9.685755
4.677773
4.020929
3.821850
3.463626
3.355742
3.100634
3.061891
3.262758
3.764629
5.152822
8.492470
11.822581
18.374920
24.750829
33.639669
39.546490
44.736862
47.357678
45.350790
42.055845
35.040975
26.804805
20.561814
13.878942
10.353923
6.493926
4.891753
3.384948
2.555847
2.029538
2.063513
1.807809
##ZVALUE=375
0.595450
0.597835
0.695586
0.643730
0.612736
0.686646
0.567436
0.681877
0.654459
0.725985
0.578761
0.611544
0.611544
0.657439
0.655651
0.526905
0.692606
0.731945
0.686646
0.683665
0.674725
0.653863
0.505447
0.648499
0.738502
0.607967
0.703931
0.738502
0.721812
0.671744
0.729561
0.697970
0.747442
0.787973
0.636578
0.801682
0.664592
0.651479
0.802875
0.788569
0.741482
0.733733
0.687838
0.776649
0.816584
0.914931
0.758767
0.846982
0.776649
0.629425
0.831485
0.841618
0.867844
0.829697
0.936985
0.777841
0.797510
0.813603
0.957847
0.907779
0.887513
1.031756
1.030564
1.146793
1.251698
1.367927
1.403689
1.481771
1.692772
3.892779
18.511415
49.898624
137.624741
242.079496
413.325429
556.626916
710.050464
767.540932
732.128024
632.600784
449.866652
318.284631
176.304579
99.818707
38.761497
16.674995
5.806684
4.100800
3.697872
3.632903
3.279448
3.214478
3.069639
2.663732
2.745986
3.210902
4.457831
6.103516
9.598732
14.511943
21.359921
27.899742
36.226511
40.868521
44.506788
44.168830
40.939450
34.704804
29.661655
22.868514
17.542839
11.896491
8.353591
5.140901
3.603697
2.491474
##ZVALUE=380
0.662804
0.514984
0.668764
0.720620
0.641942
0.503659
0.722408
0.659823
0.620484
0.678897
0.613928
0.560880
0.659823
0.685453
0.598431
0.632405
0.589490
0.666976
0.588894
0.549555
0.702739
0.576973
0.604987
0.675917
0.708699
0.648499
0.699759
0.614524
0.409484
0.625849
0.763535
0.691414
0.756979
0.754595
0.722408
0.799894
0.770688
0.774860
0.876784
0.741482
0.720620
0.828505
0.752807
0.693798
0.835657
0.714660
0.668764
0.781417
0.785589
0.832677
0.844598
0.688434
0.820756
0.864863
0.968575
0.846982
0.959635
1.008511
0.832677
1.032948
0.926852
0.975728
1.089573
0.965595
1.147985
1.007915
1.194477
1.150966
1.328588
1.445413
1.648664
2.410412
11.580586
34.666657
98.461509
183.146000
349.436998
499.434471
674.389601
752.818584
754.827857
681.411028
529.208779
395.326614
231.277943
135.097504
56.803823
25.810599
8.026958
4.498959
3.529787
3.397465
3.329515
3.173947
2.889633
3.004670
2.614856
2.648830
3.064871
3.600717
5.450845
8.121729
13.693571
18.297434
26.373863
31.836629
38.094521
41.505694
41.410923
39.997697
35.060644
30.176640
23.896694
18.147826
11.787415
7.772446
##ZVALUE=385
0.572801
0.562668
0.650883
0.552535
0.572801
0.459552
0.536442
0.569820
0.599623
0.566840
0.791550
0.624657
0.696778
0.616908
0.630617
0.517964
0.576973
0.536442
0.579953
0.616908
0.461936
0.675917
0.653863
0.540614
0.576973
0.618696
0.570416
0.618696
0.735521
0.726581
0.549555
0.677705
0.756979
0.689626
0.678897
0.676513
0.692606
0.863671
0.756979
0.940561
0.738502
0.711679
0.820756
0.787973
0.969768
0.752807
0.931621
0.848770
0.903606
0.851750
0.869632
0.883937
0.751615
0.837445
0.827909
0.799894
0.821948
0.845790
0.749826
0.884533
0.962615
0.791550
0.905991
0.966787
1.022816
0.921488
1.096725
1.228452
1.313686
1.315475
1.397729
1.520514
1.452565
1.868606
4.944801
17.555952
66.559911
138.480663
288.529992
424.184799
604.588985
712.875724
771.764517
743.612647
621.752739
491.690636
310.033560
194.924474
88.713765
42.515993
13.281703
5.712509
3.638864
3.617406
3.248453
3.190637
3.159642
2.883673
2.561808
2.602935
2.634525
2.843738
3.251433
4.372597
7.130504
11.174679
15.485883
22.267699
27.458668
32.930970
36.224723
39.046407
38.052797
34.887791
29.961467
23.916960
##ZVALUE=390
0.624657
0.597835
0.545979
0.507832
0.594854
0.599623
0.616908
0.628829
0.652671
0.730753
0.587702
0.551939
0.554919
0.565648
0.735521
0.627637
0.695586
0.644922
0.583529
0.691414
0.734925
0.613928
0.582933
0.522733
0.579953
0.487566
0.610948
0.655651
0.662804
0.699759
0.709891
0.802875
0.845790
0.797510
0.812411
0.818968
0.787973
0.844598
0.716448
0.784993
0.898838
0.862479
0.759959
0.887513
0.840425
0.834465
0.835657
0.726581
0.819564
0.882745
0.858903
0.867844
0.853539
0.886917
0.954866
0.833869
0.874996
0.958443
0.764728
0.860691
0.809431
1.008511
0.998974
0.922680
0.743866
0.992417
1.058578
1.269579
1.300573
1.333952
1.354814
1.467466
1.448989
1.552701
1.413822
1.634955
2.532601
11.788607
36.047697
109.000802
203.505754
378.631949
518.047810
674.045682
744.878650
751.819611
689.886808
552.087426
417.144895
241.454840
139.192939
57.160854
26.682615
8.803606
4.354715
3.518462
3.318787
3.228784
3.230572
3.316998
3.091693
2.956986
2.803802
2.458692
2.415776
2.823472
3.911853
5.878806
8.344650
12.995601
17.197728
23.908615
28.385520
33.766627
35.922527
36.259890
##ZVALUE=395
0.642538
0.543594
0.550747
0.557899
0.723600
0.464916
0.607967
0.662804
0.615716
0.492930
0.599623
0.698566
0.690818
0.668764
0.569820
0.650883
0.710487
0.620484
0.701547
0.707507
0.697970
0.631809
0.710487
0.590682
0.642538
0.653863
0.528693
0.628829
0.835657
0.756979
0.532866
0.904799
0.676513
0.811815
0.839829
0.780821
0.819564
0.789762
0.804663
0.850558
1.002550
0.896454
0.948906
0.961423
0.842810
0.922680
0.785589
0.909567
0.752807
1.072884
0.994802
0.724792
0.991821
1.113415
0.784993
0.826716
0.995994
1.057982
0.910759
0.794530
0.758767
0.734925
0.844598
0.802875
0.974536
1.122952
1.067519
1.108646
1.007915
1.312494
1.210570
1.212955
1.198649
1.244545
1.333952
1.282692
1.421571
1.579523
2.238750
5.501509
27.046800
67.422986
161.435008
269.233584
450.455546
588.955879
727.141500
776.280761
736.881495
635.832548
449.679494
313.212872
164.388418
90.522766
36.600828
16.032457
5.391836
3.545880
3.536940
3.364682
3.207922
3.250837
3.323555
3.162622
2.908707
2.652407
2.524853
2.547503
2.696514
3.399849
4.498959
7.484555
10.105968
15.577674
19.933581
26.558638
##ZVALUE=400
0.773668
0.859499
0.775456
0.653863
0.354648
0.546575
0.626445
0.599623
0.591874
0.572801
0.537634
0.740886
0.701547
0.604987
0.609756
0.571609
0.594854
0.492930
0.512600
0.568628
0.591874
0.651479
0.644922
0.642538
0.711679
0.606775
0.639558
0.611544
0.552535
0.568628
0.780821
0.680685
0.549555
0.663996
0.695586
0.722408
0.864863
0.862479
0.900626
0.913739
0.899434
0.833869
0.812411
0.949502
0.906587
1.038909
0.741482
0.756979
1.023412
1.022816
0.784993
1.063943
0.921488
0.864863
0.903606
0.851750
0.857711
0.960827
0.689626
1.024604
0.899434
0.889897
0.996590
0.911951
1.017451
0.973940
0.930429
1.038909
1.110435
1.195669
1.136661
1.312494
1.132488
1.190901
1.201630
1.266599
1.290441
1.311898
1.409650
1.480579
1.666546
2.844930
14.175773
39.614439
110.016465
200.078487
365.835428
504.767895
668.707490
742.566586
744.612813
672.357678
512.013435
374.952555
212.744474
127.420425
54.914951
26.412606
9.134412
4.476905
3.369451
3.269911
3.323555
3.431439
3.481507
3.319979
3.281832
3.070831
2.697706
2.515912
2.214909
2.474785
2.862811
3.715754
6.031990
9.498000
##END
