##TITLE=8-1
##FORMAT=SPECTACLE-ASCII V-1.2
##DATA TYPE=ULTRAVIOLET SPECTRUM
##SECOND TYPE=ULTRAVIOLET SPECTRUM
##DATE=04/11/18
##TIME=13:28:18
##SPECTROMETER/DATA SYSTEM=SPECTACLE
##XUNITS=NM EM
##YUNITS=ENERGY
##YFACTOR=1
##FIRSTX=220
##LASTX=450
##NPOINTS=116
##3DDATA=Equidistant
##ZUNITS=NM EX
##FIRSTZ=210
##LASTZ=400
##ZPOINTS=39
##XYDATA=(Y..Y)
##ZVALUE=210
13.701916
15.027523
13.546944
12.781620
13.091564
10.908842
10.615587
8.819699
6.141663
6.656647
4.596710
3.953576
3.561974
3.043413
2.602935
2.912879
2.637506
3.340840
2.982616
3.246665
4.121661
3.713965
4.181862
4.507899
4.129410
4.485846
4.121661
4.496574
4.489422
4.120469
4.623532
4.462600
4.859567
4.817843
5.687475
5.801916
6.073713
5.971789
6.470680
6.931424
6.024837
6.779432
7.528663
6.352663
7.025599
6.451607
6.567836
7.270575
7.143617
6.818771
7.528663
7.444620
7.861853
7.392764
8.573532
7.508993
7.700920
7.008910
8.319616
7.747412
7.850528
7.525682
8.445978
7.681847
7.318854
8.934736
9.139776
8.531809
9.067655
10.231733
11.956692
12.306571
13.187528
15.024543
14.682412
15.575886
14.179945
15.201569
13.090968
13.545752
11.783838
10.931492
10.982752
8.704662
8.512735
8.421540
7.260442
6.488562
7.142425
8.342862
10.531545
12.078881
16.362667
18.420815
23.977757
27.157664
33.399463
36.714673
38.441420
46.755672
47.287941
47.780871
48.464537
45.760870
48.215985
44.923425
42.907000
38.052797
35.616755
29.398799
25.358796
18.194914
17.553568
15.246868
14.727712
14.341474
##ZVALUE=215
40.045977
37.812591
33.429861
25.668740
21.614432
16.986728
18.490553
15.889406
15.291572
13.785958
12.749434
9.519458
8.714795
6.192923
4.973412
4.007816
3.963709
3.177524
3.569722
2.821684
4.197955
4.076958
3.526807
3.361702
3.335476
4.016757
4.416704
3.924966
4.115701
4.923940
4.930496
4.873872
6.314516
5.744696
6.332994
6.949902
6.790757
7.208586
7.247925
7.121563
7.575750
7.723570
7.892847
7.677674
7.722974
7.617474
7.912517
7.743835
8.316636
9.514689
8.762479
9.579659
9.990931
9.300709
9.583831
9.936690
9.571910
9.085536
9.729862
8.790493
9.182692
10.970831
9.270906
8.296967
10.216832
8.943677
8.925796
8.736849
8.911490
10.320544
10.754466
10.480881
11.561513
11.860728
12.411475
13.215542
12.966990
14.169812
12.354851
11.246800
10.911822
10.254979
9.381771
8.469820
8.291602
6.626844
6.575584
5.675554
5.003810
5.356669
5.596876
6.288886
6.026626
6.140471
7.930994
11.446476
13.368726
17.831922
24.114847
28.683543
34.300685
42.437911
49.218535
58.868527
68.055987
68.646669
73.991418
72.889924
69.059730
69.130659
63.560605
57.093501
51.673651
44.387579
37.723780
31.239986
##ZVALUE=220
77.438951
74.377656
76.214671
69.469810
59.216619
43.905973
34.918785
27.973652
24.445653
24.171472
25.394559
25.486946
20.582676
19.028783
16.112924
11.281967
7.996559
5.957484
4.842877
4.063845
3.477931
3.911853
3.598928
4.385710
4.624724
4.421473
3.696680
4.981756
4.891753
5.060434
5.538464
5.221963
6.221533
5.712509
6.251931
7.594824
6.972551
7.578731
8.432865
7.594824
8.554459
8.855462
8.164644
8.120537
7.846951
9.614825
7.869601
9.132624
10.420680
10.097623
11.708736
11.439919
11.473894
11.996627
12.533665
12.101531
12.748837
11.572838
11.733770
12.528896
11.714697
11.811852
10.810494
10.764599
9.541512
9.737611
10.403991
9.420514
10.708570
9.853840
11.866689
11.351705
13.347864
11.952519
13.032556
13.024807
12.153983
10.580420
10.555983
11.867881
9.924769
10.127425
9.124875
7.881522
7.647872
7.467866
6.270409
5.794764
5.801916
6.311536
5.775690
5.434752
5.872846
5.771518
5.485415
5.742908
5.588531
6.432533
6.802678
8.123517
12.606978
16.939640
25.279522
32.551885
43.569803
53.898692
61.776638
74.452758
87.979436
98.591447
100.625753
105.633736
109.536648
111.766458
102.710724
93.239546
##ZVALUE=225
93.372464
100.151896
117.501616
131.330490
128.882527
116.457939
102.893710
76.163411
62.640905
46.401620
39.510727
39.595962
39.452910
39.096475
36.635995
31.391978
26.959777
19.857883
15.251637
10.425448
7.915497
5.501509
4.244447
4.359484
4.246831
4.712939
4.872680
5.106926
5.348921
4.564524
5.801916
5.345941
5.835891
6.228685
6.605983
7.256866
7.348657
8.398890
8.537769
7.812977
9.643435
9.070635
10.122657
9.288788
9.823442
10.207891
10.266900
9.751916
11.100769
11.119843
13.617873
13.543963
13.955832
14.740825
14.275908
14.970899
15.458465
14.096498
14.672875
13.536811
14.425516
13.174415
13.558865
13.398528
13.423562
11.436939
11.592507
11.566877
11.477470
11.684895
11.620522
12.999773
12.408495
13.016462
14.523864
13.483763
13.688803
11.666417
10.672808
11.130571
10.628700
10.039806
8.763671
8.899570
8.291602
7.673502
8.010864
7.509589
5.920529
6.546974
5.931854
6.657839
6.746650
5.544424
6.164908
6.549954
6.375909
5.781651
5.955696
4.435778
5.460978
6.059408
6.503463
7.968545
11.746883
14.247894
22.863746
33.756495
42.962432
57.606697
71.573853
92.089772
108.911991
125.225782
141.610503
152.809620
##ZVALUE=230
64.796805
69.651604
113.797784
146.063566
178.628564
214.642882
212.790966
205.544829
178.538561
140.104890
101.053715
73.708892
65.084696
56.539774
57.985783
58.576465
61.049461
57.578683
47.712922
39.385557
28.759837
19.650459
12.426972
8.995533
5.665421
4.970431
5.019903
5.401969
6.379485
4.625916
5.244613
6.006956
5.818605
7.300973
6.252527
6.823540
7.541776
7.820725
8.875728
9.215474
9.405613
10.082722
8.953810
10.611415
9.574890
10.174513
10.707974
10.770559
11.056662
12.391806
13.283491
14.732480
14.190674
15.814900
13.074875
14.839768
15.377998
14.427900
15.014410
14.595985
13.780594
14.359951
13.019443
14.210939
13.632774
13.343692
13.682842
13.139844
13.959408
13.137460
15.416741
13.187528
14.869571
15.783906
15.381575
13.733506
14.358759
12.980700
12.027621
12.935996
10.094643
11.704564
10.407567
10.008812
9.737611
7.611513
8.742809
8.073449
7.421970
7.067919
7.203817
6.747842
6.774664
8.333921
6.980896
8.004904
7.114410
6.339550
6.383657
6.673932
7.389784
7.490516
7.737875
6.681681
7.623434
6.527901
7.121563
7.986426
9.588599
12.884736
19.067526
29.310584
39.935708
64.784884
81.583858
106.219649
##ZVALUE=235
18.051863
20.406842
47.265887
84.383488
139.747858
207.339525
262.207985
317.397714
332.340002
323.264003
289.038420
220.580697
163.949728
115.016699
90.159774
77.240467
76.095462
84.114671
90.215802
88.084936
79.717636
130.824447
52.454472
37.610531
24.198890
16.569495
10.048747
7.493496
6.127954
5.585551
6.623864
5.422831
6.267428
7.116795
7.166862
7.408857
7.914901
8.525848
8.077621
8.680820
9.398460
10.114908
10.093451
9.333491
10.268688
9.832978
10.012984
10.475516
10.390878
10.545850
12.059808
12.314916
11.816621
12.380481
12.570620
11.142492
12.161732
12.510419
13.714433
14.050603
12.252927
12.902617
12.461543
12.323856
12.421608
11.911988
13.900995
13.317466
13.400912
13.602972
15.023947
14.300942
15.326738
17.274618
15.810728
15.487671
15.638471
14.812946
13.749599
13.621449
12.817979
12.161732
11.156797
11.938810
10.239482
10.445714
10.053515
9.821653
9.994507
9.540915
8.478761
8.327961
8.761883
8.346438
8.142591
8.495450
7.831454
9.506941
8.475780
7.872581
8.276701
8.431673
7.668734
8.325577
7.922649
9.086728
8.322597
8.622408
8.521676
8.207560
7.131696
8.143783
8.556843
10.675788
14.296770
23.059845
##ZVALUE=240
3.094673
3.064871
9.221435
21.014810
45.252442
98.915696
165.833831
266.307592
352.065563
435.109735
466.900468
473.725796
429.522991
341.039896
271.518826
178.532600
135.645866
104.528666
97.966790
110.992789
119.259953
123.269558
117.876530
103.273988
80.533624
67.012906
45.744777
31.869411
18.224716
12.786984
9.393692
7.376671
6.947517
7.124543
7.506609
7.190704
7.812977
8.121729
8.653998
9.479523
9.159446
9.885430
10.290742
9.981990
11.896491
10.020733
11.402965
10.620952
10.102987
9.630919
10.057688
11.570454
12.327433
11.488795
12.545586
11.288524
12.163520
10.925531
11.209846
12.303591
12.857914
11.498928
12.431741
11.435747
11.639595
12.292862
12.688637
12.951493
12.886524
13.746619
13.824701
16.237497
14.859438
17.317533
15.708804
16.374588
16.023517
15.648603
15.388727
13.830662
12.554526
12.667775
12.702942
12.306571
11.163950
11.990666
11.053681
9.470582
10.133982
10.532737
10.068417
9.781718
8.973479
8.880496
9.469986
9.321570
8.007884
9.809732
8.619428
8.633733
8.671880
7.944703
9.408593
9.817481
10.185838
8.899570
9.475946
8.955598
8.885860
8.020997
9.283423
8.305907
8.499622
8.025765
8.898973
8.248687
##ZVALUE=245
2.416968
2.690554
2.552867
2.421737
4.175901
13.781786
33.398867
84.358454
147.690773
254.869461
363.921523
489.651561
551.031828
575.536489
548.053980
454.391837
364.952683
248.512626
173.343420
116.373897
98.020434
100.352764
114.931464
127.316713
132.806897
126.701593
113.171935
95.945597
67.674518
52.117705
33.155680
22.245646
13.275743
10.072589
7.801652
6.835461
7.662773
7.654428
8.104444
8.806586
9.470582
9.013414
9.851456
8.910894
10.243654
10.164976
9.209514
9.585619
9.934902
9.979606
9.339452
10.956526
9.768605
9.527802
9.990931
10.200739
9.867549
8.855462
9.964705
10.236502
9.998679
10.104775
9.664893
10.022521
10.075569
10.315776
10.716915
11.190772
10.681748
10.688901
12.126565
12.367964
13.151765
13.059974
13.104677
13.111830
12.568831
12.003779
11.586547
12.057424
11.244416
10.650754
9.787679
10.076761
9.362698
9.686947
7.703900
8.796453
8.806586
7.862449
8.631945
8.128881
8.368492
7.720590
8.280873
8.611679
7.661581
7.609725
7.767677
7.358789
7.953644
7.263422
8.050799
8.557439
8.215904
7.778406
7.787943
8.302927
7.860661
7.906556
7.811785
7.540584
7.020831
7.663965
7.154942
7.842779
##ZVALUE=250
1.827478
1.993775
1.708865
2.270937
2.335906
2.317429
2.806783
9.932518
24.485588
63.727498
125.861764
244.250894
355.037451
497.286916
580.278635
643.861890
638.012886
560.134053
477.146506
325.739980
234.530568
139.763951
105.162859
93.153715
101.135969
125.551820
135.267973
140.805840
135.187507
123.459697
100.597739
82.079768
54.149628
37.681460
20.560622
13.211966
9.727478
7.164478
7.727742
8.300543
9.337664
9.608865
9.433627
9.546876
9.767413
10.182858
9.974837
10.645986
9.807944
10.087490
9.636879
9.701848
10.449886
10.840893
9.456873
9.953976
9.695888
9.775758
9.877682
10.145903
9.722710
9.123683
8.909702
8.697510
8.342862
8.498430
7.560849
7.996559
8.894801
9.385943
10.052919
10.090470
10.623932
11.486411
9.681582
10.069609
10.634661
9.772778
9.373426
9.322762
8.620620
7.706881
7.450581
7.883906
7.987618
7.497668
7.464886
5.951524
7.003546
6.970763
5.769730
6.193519
5.452633
6.079674
5.711913
6.403923
6.706715
6.086826
5.950928
6.154776
5.792975
5.668998
5.720854
6.495714
6.836653
6.001592
6.408691
6.541610
6.611943
6.885529
6.096959
6.542802
6.249547
6.384850
6.111860
5.742908
##ZVALUE=255
1.584888
1.827478
1.777411
1.497865
2.071857
2.106428
2.129674
2.056956
2.638698
4.792809
15.336871
50.884485
101.311803
211.820602
320.007801
479.253531
586.745739
699.702501
730.061531
680.767894
592.330694
431.437492
303.219557
178.691745
116.231441
85.351467
88.403821
99.842548
124.566555
141.472816
146.503448
146.274567
129.020810
108.150840
78.966618
58.610439
36.094785
23.651719
14.504790
10.736585
9.245872
8.929968
10.459423
9.416938
10.301471
10.619760
10.646582
11.559725
10.887980
10.187626
10.463595
11.368990
10.083914
10.465980
9.959936
10.193586
9.896755
9.771585
9.861588
9.753704
9.050965
8.958578
7.865429
8.824468
8.228421
7.924438
7.895827
7.122755
8.625984
7.681847
7.981658
8.284450
8.775592
9.178519
8.752942
8.612871
8.547902
8.337498
8.279681
7.150769
6.997585
6.597638
7.027984
6.287694
5.891919
5.664825
5.590916
5.196929
5.294681
4.627705
4.803538
5.623698
4.626513
5.113482
4.865527
5.239844
4.853606
4.853606
5.001426
5.322695
4.589558
5.573630
5.096793
4.771948
4.952550
5.515814
4.734993
5.357862
4.997849
5.192757
5.192757
5.178452
4.790425
5.161762
4.771948
5.465746
##ZVALUE=260
1.525879
1.464486
1.490712
1.868606
1.603961
1.533628
1.816750
1.855493
1.705885
1.920462
1.918674
3.008842
9.075403
35.067797
68.836808
164.500475
269.179940
438.284874
572.302938
731.405020
798.518658
788.822770
713.343620
581.421852
384.738445
264.252424
155.551434
100.137591
76.550841
83.438754
108.619928
128.099918
147.095919
155.039430
150.611997
137.963891
108.719468
88.409781
60.679913
42.916536
27.401447
18.929839
14.305711
11.656880
11.506677
12.154579
12.124777
11.852980
12.194514
12.508631
11.791587
11.950731
11.541843
11.335611
12.127757
11.384487
11.157990
10.722876
10.322928
10.823607
10.343790
10.300875
9.292960
9.144545
9.363890
8.582473
8.045435
8.268952
8.313656
8.332729
8.286834
8.333921
8.420944
7.812977
7.900000
7.815957
7.102489
6.865859
7.166862
7.033944
6.712675
5.757809
5.138516
5.250573
5.195737
4.676580
4.839897
5.036592
4.502535
4.667640
3.849864
4.366636
4.381537
4.284978
4.009604
4.064441
4.279613
4.309416
4.482865
4.244447
4.776716
4.554987
4.260540
4.193783
4.438758
4.139543
4.647970
4.593730
4.605651
4.786849
4.236698
4.229546
4.428625
4.373789
4.030466
4.330873
##ZVALUE=265
1.349449
1.398921
1.670718
1.340508
1.348853
1.400709
1.309514
1.699924
1.756549
1.598597
1.596808
1.869798
1.825690
1.987815
4.770756
21.432638
50.541759
129.320621
223.141909
409.379005
560.390949
744.522810
850.939751
873.112679
807.231665
655.000806
517.638922
374.592543
214.329958
130.414963
76.748729
68.737864
83.485842
109.840631
139.417648
153.850913
158.497691
157.529712
137.152672
118.453503
89.398623
66.443682
43.211579
30.027628
20.752549
16.756654
15.200973
14.301538
13.025999
14.147758
14.526844
13.627410
14.045835
13.799667
13.880730
13.767481
12.794733
12.277961
12.109876
12.040734
11.089444
10.671616
11.000633
10.227561
9.449720
9.012818
9.125471
8.523464
8.891821
9.496808
8.677840
8.295774
7.790923
8.421540
8.582473
7.685423
7.252693
7.231832
6.942749
6.005764
5.616546
5.429983
5.204678
5.432963
5.213618
4.788637
4.937649
5.296469
4.371405
4.544854
4.418492
4.402995
4.152656
4.381537
4.117489
3.590584
4.069805
3.700852
3.955960
4.243851
4.177690
4.171729
4.147887
4.433990
4.322529
3.816485
3.806949
3.804564
3.776550
4.416704
4.040599
3.720522
3.776550
3.824830
4.048944
3.745556
##ZVALUE=270
1.259446
1.186728
1.261830
1.312494
1.180768
1.430511
1.401901
1.567602
1.420975
1.288652
1.450777
1.679659
1.558661
1.530647
1.787543
1.904964
2.521873
10.411739
28.499961
91.914535
173.143744
347.149968
510.437489
729.448795
858.120918
942.430496
916.637778
834.406018
652.560592
493.058562
292.723775
182.238817
95.614791
65.645576
65.455437
86.739659
116.246939
140.772462
159.886479
166.808963
160.683990
147.247910
121.735930
97.124577
67.078471
49.586892
32.612681
24.726987
18.463731
17.066598
16.519427
16.694665
16.746521
16.275644
15.339851
16.117692
15.144944
14.801621
14.207959
13.196468
13.114810
12.127757
11.587739
11.172891
11.024475
10.096431
9.994507
9.842515
10.232925
9.029508
9.667873
9.000897
8.441806
8.667707
8.195639
8.557439
7.822514
7.215738
6.939769
6.570816
6.466508
5.941987
5.366802
5.361438
4.817843
5.242825
4.944801
4.911423
5.080700
4.324913
4.744530
4.413724
4.050732
4.205704
3.860593
4.392862
3.898740
3.896952
3.950000
4.199743
4.188418
4.089475
4.193783
4.157424
4.084706
3.544688
4.123449
3.917813
4.214644
3.712773
3.624558
3.746748
3.814697
3.703833
3.674626
3.784895
##ZVALUE=275
1.167655
1.185536
1.205802
0.968575
1.392961
1.108646
1.296997
1.349449
1.403689
1.293421
1.333952
1.391768
1.433492
1.542568
1.561642
1.292825
1.723766
1.824498
1.878738
5.117655
17.160773
61.552525
131.868720
286.592841
446.832776
663.979650
809.554458
948.374867
970.607996
916.741490
764.840841
607.858896
393.808484
245.840549
120.124817
72.701573
53.515434
64.588785
91.933608
114.622712
138.011575
159.190893
164.877772
163.115859
147.754550
116.991997
98.143816
69.303513
52.110553
37.902594
26.329756
21.091700
17.913580
17.188787
16.353726
16.017556
14.891624
15.719533
14.655590
14.407635
13.456941
13.174415
12.477636
12.563467
12.079477
11.180639
10.397434
10.136962
9.817481
10.059476
9.426475
9.308457
9.829998
9.461641
8.476973
8.648634
8.021593
7.578731
7.324815
6.808639
7.098913
6.493926
5.720854
5.872846
5.529523
4.720688
4.901886
4.603863
4.722476
4.917979
4.461408
4.879832
4.966855
4.335642
4.257560
4.168749
4.487634
4.456639
4.291534
4.375577
4.271865
4.167557
4.583597
4.311800
4.227757
4.120469
4.226565
3.977418
4.286766
4.033446
4.071593
4.154444
3.816485
3.662705
3.801584
3.785491
##ZVALUE=280
1.190901
1.240969
1.071692
1.009703
1.043677
1.060963
1.179576
1.393557
1.067519
1.326799
1.375675
1.224875
1.146793
1.389980
1.319647
1.427531
1.467466
1.278520
1.585484
1.817942
1.779795
3.097653
10.842681
35.246611
108.167529
199.829936
371.684432
540.561676
764.953494
895.506740
986.037850
972.078443
846.824646
691.035986
463.033915
307.369828
157.555938
88.897943
50.127506
47.896504
66.557527
88.043809
116.843581
138.767958
158.657432
164.145827
157.735944
144.445896
117.276907
94.163418
66.782832
49.526691
33.445954
24.866462
18.428564
15.539527
15.322566
14.259815
13.830662
14.227629
13.518929
13.303757
12.472868
12.197495
11.116862
11.487603
10.282993
10.541677
9.819865
9.986758
9.721518
9.832978
9.647608
9.438992
8.652806
8.757710
8.012652
7.628798
7.695556
7.526875
6.608963
6.570816
6.399751
6.254911
6.067753
5.690455
5.696416
5.497932
5.004406
5.221963
4.901886
4.592538
4.922748
4.849434
4.392862
4.836917
4.575849
4.834533
4.728436
4.670620
4.296899
4.651546
4.747510
4.420877
4.279613
4.525781
4.398823
4.427433
4.599690
4.515648
4.208684
4.596710
4.117489
4.126430
4.084706
4.120469
##ZVALUE=285
1.076460
1.160502
0.971556
1.037717
1.286864
0.932813
1.029968
1.094937
1.018643
1.055598
1.268983
1.078844
1.171827
1.178980
1.180768
1.383424
1.355410
1.258850
1.431704
1.471639
1.714826
1.760721
1.982450
2.412796
4.724860
23.902655
56.030750
80.168843
257.972479
408.910513
643.195510
797.986984
963.562727
1008.311510
932.478905
807.475448
581.431985
401.950479
216.492414
125.079751
67.430735
37.739873
39.784908
58.447719
80.945492
111.014843
130.707622
152.333975
157.088637
155.536532
139.416456
121.798515
92.390776
70.724487
45.554638
32.584667
21.521449
16.298890
13.051629
11.557937
11.561513
11.205673
10.697842
10.502934
10.321736
10.227561
10.036826
9.760857
9.574890
9.624958
9.199977
9.512901
8.665919
9.456873
8.759499
8.340478
8.240938
7.905960
7.687807
7.350445
6.772876
6.678700
6.239414
6.493926
5.926490
6.304979
5.785823
6.029606
5.766749
5.693436
5.249977
5.319715
5.298853
5.106926
5.319715
5.192757
4.678965
5.220771
5.213618
5.025864
4.747510
4.992485
5.195737
4.955530
4.769564
4.868507
4.576445
4.849434
4.616976
4.508495
4.277825
4.602671
4.532933
4.455447
4.342794
4.419684
##ZVALUE=290
1.100898
1.054406
1.072884
0.897646
0.893474
0.916719
1.055598
1.082420
1.147985
0.981688
1.000762
1.102686
1.015663
1.230836
1.289845
1.268983
1.231432
1.154542
1.274943
1.404881
1.335740
1.362562
1.537800
1.667738
1.788735
1.892447
2.388954
10.208488
31.391978
75.192451
184.146762
311.949849
531.452894
713.950992
918.814540
1008.670926
988.867879
890.835524
682.141781
500.046611
332.985520
166.585445
88.700652
38.584471
27.904510
37.140846
51.282644
76.165795
98.464489
119.910836
142.944455
149.667859
146.726966
137.153864
111.986995
90.496540
62.692761
45.455694
28.101802
20.360947
13.148785
10.719895
9.183884
8.756518
8.609891
8.693933
8.313656
8.635521
8.413792
8.066893
7.774830
7.952452
8.401871
8.253455
8.146763
7.979870
7.696748
7.537603
7.169843
7.403493
7.022619
6.822944
6.725788
6.662607
6.406903
6.245971
5.894899
6.259680
5.968809
5.817413
5.982518
5.755424
5.415678
5.555749
5.337596
5.354881
5.293489
5.203485
5.059838
5.183816
5.377531
5.188584
5.359650
5.339980
5.285740
5.318522
5.010962
5.182624
5.291700
4.581809
4.852414
4.730821
4.725456
4.465580
4.543662
4.459620
##ZVALUE=295
1.020432
0.883937
0.870824
0.834465
0.907779
1.061559
0.915527
0.947714
0.905991
0.979900
1.045465
0.975728
1.123548
1.057982
1.014471
0.984669
1.145601
1.081824
1.136661
1.082420
1.089573
1.216531
1.421571
1.239777
1.435876
1.521707
1.659989
1.663566
1.843572
3.569722
17.461777
47.525764
131.603479
242.374539
451.283455
628.991723
849.905610
966.959596
1009.456515
946.889520
771.104693
600.070953
373.614430
228.888988
104.211569
51.982999
23.902655
21.655560
33.653975
47.428608
71.392655
91.072917
117.021799
133.228898
142.548680
140.132904
123.193860
107.109547
81.928968
63.758492
40.206909
28.302670
17.572641
12.384653
8.988976
7.700920
7.423759
7.546544
7.611513
7.564425
7.260442
7.747412
7.386804
7.851720
7.189512
7.738471
7.504821
7.220507
7.101893
6.843805
6.836653
6.694794
6.556511
6.312728
6.279945
6.463528
5.821586
5.856752
6.147623
5.931854
5.699992
5.727410
5.718470
5.519986
5.481839
4.889965
5.224943
5.135536
5.086660
5.296469
4.909635
5.377531
5.340576
5.051494
5.129576
5.228519
4.927516
5.341768
4.957914
5.373955
4.991889
4.772544
4.748702
4.657507
4.694462
4.317760
##ZVALUE=300
0.947714
0.900626
0.932813
0.826716
0.863671
0.893474
0.889897
0.881553
0.744462
0.940561
0.781417
0.933409
0.954866
0.970960
1.048446
0.868440
1.074672
0.722408
1.055598
1.058578
1.242757
1.065731
1.116991
1.249909
1.291633
1.322627
1.426935
1.562834
1.622438
1.551509
1.856685
2.130866
5.551577
29.937625
75.264573
187.944770
317.929387
544.015765
722.106695
911.641717
992.406607
972.290635
867.838860
653.138757
485.988855
272.007585
162.873864
72.436929
34.961700
17.228723
17.951727
27.987957
39.443970
62.808990
82.638860
107.376575
124.048591
133.685470
131.295919
119.725466
104.990602
78.260899
61.350465
40.131807
26.665926
16.138554
10.800958
8.260608
7.045865
6.940961
7.011890
7.260442
7.042885
7.178783
7.118583
7.102489
6.552935
6.652474
6.730556
6.465912
6.507635
6.607771
6.119609
6.398559
6.242990
6.026626
5.894899
5.550981
5.686879
5.891919
5.319715
5.630851
5.441904
5.174875
5.194545
5.115867
5.211830
5.113482
5.084872
5.348921
5.178452
5.201697
5.104542
5.243421
5.082488
5.055666
4.929900
5.003810
4.826784
4.926920
5.052686
4.650950
4.665852
4.564524
4.578829
4.384518
##ZVALUE=305
0.815988
0.691414
0.726581
0.727773
0.754595
0.835657
1.010895
0.891685
0.901818
0.941753
0.918508
0.834465
0.956655
1.025796
0.893474
0.790954
0.965595
1.052618
1.022816
0.963807
0.982881
1.097918
1.098514
0.908971
1.180768
1.171827
1.166463
1.474619
1.348853
1.585484
1.698732
1.661777
1.699924
1.961589
4.032850
14.163852
55.762529
121.953487
269.380808
424.913764
608.407855
830.500722
950.272679
992.794633
923.956037
731.722713
570.649505
359.947681
221.101642
121.469498
46.816468
21.816492
13.410449
16.506910
27.067661
38.944483
60.120821
78.573823
102.880597
115.758777
124.988556
124.662519
114.059448
99.636912
74.811578
58.525801
37.569404
25.436878
14.726520
10.548830
7.612705
6.790757
6.477833
6.621480
6.317496
6.231666
5.806684
5.883574
6.033778
6.232858
5.820990
5.658865
5.947948
5.800724
5.426407
5.599856
5.235672
5.278587
5.393624
5.090833
5.258918
5.063415
5.007982
4.641414
4.913807
5.085468
4.869699
4.732609
4.625916
4.529953
4.676580
4.752874
4.561543
4.556775
4.747510
4.871488
4.739761
4.644990
4.668832
4.615784
4.553795
4.530549
4.332662
4.332662
4.230738
4.621744
##ZVALUE=310
0.808835
0.838637
0.668764
0.796914
0.743866
0.916719
0.835657
0.751615
0.645518
0.906587
0.868440
0.873804
0.930429
0.902414
0.881553
0.928640
0.973940
1.017451
0.871420
0.852942
0.879765
1.040697
0.981688
0.992417
1.116991
0.953674
1.107454
1.129508
1.154542
1.313686
1.372695
1.292825
1.368523
1.374483
1.785755
1.781583
2.144575
6.065965
30.966997
72.936416
177.413821
307.639837
531.878471
706.584454
904.690027
993.343592
973.959565
874.585509
672.832727
499.511957
289.067626
172.892809
72.727799
34.350753
13.579726
10.544658
14.878511
21.811724
34.868717
49.536824
72.381496
89.636445
107.853413
116.401911
119.735599
112.095475
94.532967
77.807903
54.752827
38.537979
22.940636
15.678406
10.136962
7.442832
6.137490
5.436540
5.346537
5.062819
5.161762
4.855990
4.822612
4.618764
4.709959
4.642606
4.742742
4.735589
4.972816
5.004406
4.507899
4.516840
4.632473
4.469752
4.485846
4.222989
4.408956
4.206896
4.263520
4.073977
4.021525
4.093647
4.149675
4.275441
4.292727
4.169941
4.173517
4.235506
4.289746
4.033446
3.981590
4.083514
3.817677
4.233718
4.366636
3.953576
4.088879
3.790855
##ZVALUE=315
0.854731
0.776649
0.790954
0.790954
0.820756
0.857711
0.756979
0.730753
0.809431
0.738502
0.618696
0.802875
0.727773
0.824928
0.763535
0.813603
0.832677
0.880957
0.887513
0.740886
0.806451
1.109838
0.998974
1.080632
0.934601
0.933409
1.062751
0.961423
1.112819
1.184940
1.072884
1.389980
1.280904
1.348853
1.486540
1.468658
1.505613
1.712441
1.983643
3.250837
15.735626
44.458508
127.495527
231.775045
439.991951
619.255900
829.597712
947.081447
991.615653
928.942561
752.786994
588.470697
364.952683
228.166580
105.823874
50.349832
16.551614
9.809732
10.029674
13.151765
20.419955
30.790567
49.034953
64.182878
84.866881
99.065900
110.968947
111.928582
102.092624
89.537501
68.228841
53.526759
35.174489
24.050474
14.408827
9.784698
6.216764
5.172491
4.246831
4.309416
4.176497
3.894567
3.892779
3.824830
3.787875
4.006624
3.905892
3.640652
3.748536
3.658533
3.875494
3.685951
3.681779
3.673434
3.277659
3.417730
3.497601
3.565550
3.436804
3.762841
3.588796
3.443956
3.560781
3.294945
3.543496
3.646612
3.654957
3.570914
3.385544
3.360510
3.291965
3.635883
3.386736
3.475547
3.311634
3.353953
##ZVALUE=320
0.841618
0.700951
0.864863
0.840425
0.719428
0.898838
0.716448
0.811815
0.786781
0.746846
0.862479
0.687838
0.652671
0.705719
0.814795
0.913739
0.685453
0.845790
0.709891
0.772476
0.843406
0.849962
0.892878
0.945926
0.887513
0.861883
0.885725
0.962615
0.886917
1.046658
0.986457
1.079440
1.155734
1.209974
1.156926
1.406670
1.449585
1.330972
1.660585
1.758933
1.727939
2.065897
7.344484
24.487972
83.048940
168.019533
334.202647
498.934984
730.215907
875.991583
974.532962
962.334871
830.869675
677.384734
451.528430
289.269686
135.482550
71.161985
26.626587
12.566447
8.294582
8.839965
12.303591
17.021894
28.598905
40.658712
60.451627
75.738430
94.408989
102.828741
103.739500
97.952485
84.287524
68.408847
48.920512
34.819841
20.634532
13.051629
7.700920
5.409718
4.242659
3.534555
3.446937
3.329515
3.343821
2.846718
3.029704
3.283620
3.181696
3.144741
3.004670
3.057718
3.247857
2.896786
2.875924
3.176928
2.815723
2.935529
3.022552
2.887845
2.850890
2.937913
2.938509
2.860427
2.891421
3.049970
2.915859
3.006458
2.944469
2.876520
2.816916
2.796650
2.882481
2.982616
2.769828
2.826452
##ZVALUE=325
0.691414
0.597835
0.759959
0.764728
0.757575
0.959635
0.823736
0.857711
0.781417
0.748634
0.827909
0.872612
0.708699
0.708699
0.856519
0.752807
0.821948
0.924468
0.894666
0.846982
0.752807
0.754595
0.813603
0.865459
0.787973
0.933409
0.837445
0.981688
0.948906
0.931621
1.141429
1.002550
1.202822
1.150966
1.046658
1.144409
1.038909
1.199841
1.229644
1.223683
1.352429
1.474619
1.700521
1.862645
3.964901
14.941692
55.856705
118.751526
264.540911
414.724946
641.437769
800.641775
940.970778
964.802504
879.922509
738.059878
509.916544
348.441601
182.596445
100.895762
37.887692
15.881658
8.024573
7.437468
8.349419
10.561943
16.999841
25.506616
42.135715
57.075620
76.498985
87.255836
96.273422
96.789598
89.897513
77.527761
59.563518
45.345426
28.459430
19.576550
11.199713
7.603765
4.646778
3.677607
2.972484
2.920628
2.726912
2.461672
2.606511
2.927780
2.536774
2.696514
2.480745
2.546906
2.678633
2.559423
2.502799
2.597570
2.583861
2.718568
2.616644
2.578497
2.392530
2.424717
2.484918
2.804995
2.465844
2.629757
2.529621
2.527833
2.698898
2.434850
2.540946
2.407432
2.451539
2.280474
##ZVALUE=330
0.621676
0.773668
0.722408
0.635982
0.592470
0.818968
0.783801
0.756979
0.763535
0.753999
0.632405
0.591874
0.648499
0.806451
0.775456
0.867844
0.858903
0.806451
0.756979
0.794530
0.816584
0.736713
0.796914
0.959635
0.975728
0.719428
0.900626
0.915527
0.874996
0.827909
1.000762
0.878572
1.001954
1.041889
1.013875
0.892878
1.147985
0.961423
1.094937
1.150966
1.251698
1.232624
1.159906
1.474619
1.386404
1.671910
2.370477
8.373857
27.137995
88.334680
169.537663
338.586569
499.354005
722.410679
855.866671
940.834880
910.487771
766.325593
608.891845
395.448804
253.323913
118.315816
60.227513
21.525621
10.011792
6.515980
6.564856
7.368922
9.552836
16.362667
24.368763
38.801432
52.023530
70.526600
81.420541
90.030432
91.195703
84.102750
72.768927
55.115819
42.017698
27.034879
18.825531
11.485815
7.757545
4.528761
3.741980
2.835989
2.509952
2.487898
2.248883
2.319813
2.349615
2.366900
2.339482
2.302527
2.296567
2.241731
2.387762
2.140999
2.227426
2.475977
2.287626
2.299547
2.427697
2.250671
2.222657
2.381802
2.128482
2.107620
2.395511
2.101660
2.029538
2.004504
2.085567
1.909733
##ZVALUE=335
0.607967
0.642538
0.618696
0.469685
0.636578
0.667572
0.761747
0.904799
0.771880
0.760555
0.684857
0.412464
0.726581
0.684857
0.652671
0.683665
0.786781
0.701547
0.578761
0.731945
0.882745
0.689626
0.733733
0.623465
0.860691
0.764728
0.639558
0.909567
0.887513
0.841618
0.851750
0.933409
0.919700
0.876784
1.061559
0.903606
0.895858
1.037717
0.974536
0.852942
1.231432
1.189709
1.122952
1.257658
1.238585
1.335740
1.167655
1.608729
1.734495
3.179908
17.601848
46.775937
131.671429
232.155919
425.345898
600.492954
806.609988
897.190571
914.561749
843.320489
663.764477
498.272777
293.543935
180.997849
79.687834
36.779642
12.007952
7.022619
5.987883
5.841851
7.130504
9.099841
14.748573
21.806955
35.476685
47.621727
65.282583
75.672865
84.340572
84.748864
77.565908
68.234801
53.886771
41.740537
28.468966
19.644499
11.532903
7.459521
4.543662
3.233552
2.749562
2.377629
2.076626
2.054572
2.076626
2.092719
2.218485
2.154708
2.246499
2.031922
2.031922
1.994967
2.001524
1.936555
2.106428
2.184510
2.331734
2.264977
2.095699
2.165437
2.060533
2.170801
2.245903
2.103448
2.030730
1.873970
##ZVALUE=340
0.650883
0.646710
0.621676
0.582933
0.487566
0.540614
0.670552
0.602603
0.608563
0.711679
0.636578
0.797510
0.766516
0.738502
0.697970
0.634789
0.606775
0.745654
0.719428
0.530481
0.868440
0.758767
0.619888
0.747442
0.737906
0.779629
0.713468
0.682473
0.648499
0.769496
0.753999
0.900626
0.945926
0.900626
0.894666
0.881553
0.972748
0.889897
0.871420
0.999570
1.005530
0.994802
1.052618
1.034737
1.177788
1.248717
1.090765
1.278520
1.488924
1.525879
1.685619
2.041459
8.966923
28.187633
90.421438
177.650452
357.771516
512.629747
714.820623
836.736560
902.829766
862.850547
713.230968
565.495491
357.674956
222.323537
102.378726
49.724579
15.082955
7.673502
6.051660
5.644560
5.548596
6.371737
8.995533
13.287663
22.786856
32.912493
47.722459
59.395432
71.066618
76.865554
78.120828
73.753595
63.307881
52.622557
38.280487
29.036999
17.991662
12.028813
6.810427
4.613996
3.045797
2.597570
2.339482
2.167821
2.262592
1.966953
1.970530
2.047420
2.014637
1.910925
2.078414
2.218485
1.992583
1.849532
1.976490
2.095699
1.919866
2.087951
2.131462
2.044439
2.150536
1.970530
1.961589
1.878738
##ZVALUE=345
0.567436
0.640750
0.678897
0.526905
0.644922
0.704527
0.711679
0.518560
0.687838
0.619888
0.718832
0.792742
0.627637
0.583529
0.736713
0.781417
0.718832
0.627637
0.580549
0.665784
0.660419
0.893474
0.764728
0.697970
0.771880
0.826716
0.645518
0.724792
0.806451
0.915527
0.848770
0.756979
0.706911
0.726581
0.983477
0.834465
0.812411
0.903606
0.837445
1.003742
1.154542
0.904799
0.978708
1.004934
1.013875
0.883937
0.908971
1.169443
1.139641
1.213551
1.410842
1.456738
1.375675
1.650453
4.044771
14.455914
56.248903
121.601820
262.117982
400.147438
611.369610
752.981901
866.921544
871.722698
771.960616
635.460615
429.129004
281.226635
128.433704
64.784884
23.674965
10.676980
6.192923
5.655885
5.105734
5.128980
5.512834
7.489920
12.716651
19.281507
30.730963
41.401982
54.347515
63.935518
71.182847
72.632432
68.864822
61.726570
49.715638
39.644837
27.248859
19.442439
11.579990
7.560849
4.313588
3.389716
2.560616
2.271533
2.092719
2.223849
2.160668
1.957417
1.991987
1.897812
1.998544
2.049804
2.053976
1.869798
1.983643
1.975894
1.906753
2.047420
1.875758
1.728535
1.956820
1.840591
##ZVALUE=350
0.544786
0.641942
0.615716
0.689626
0.592470
0.683665
0.605583
0.704527
0.744462
0.669956
0.755787
0.670552
0.778437
0.595450
0.649691
0.589490
0.628829
0.566840
0.658631
0.599623
0.640750
0.688434
0.708699
0.682473
0.725985
0.709891
0.732541
0.685453
0.740886
0.879765
0.751615
0.889897
0.904799
0.813603
0.846982
0.723600
0.766516
0.912547
0.776649
0.916719
0.938773
1.059771
0.769496
0.953674
0.991821
1.038909
0.933409
0.968575
1.087785
0.959635
1.116991
1.179576
1.410842
1.353621
1.444817
1.524687
2.480745
7.602572
34.554601
78.057647
188.229680
312.915444
516.716838
667.256713
819.049478
861.392021
802.167654
691.393614
476.231575
322.661996
171.393752
92.887878
32.147765
13.374686
6.269813
5.324483
4.696846
4.309416
4.326701
4.915595
7.367730
10.699630
17.583966
25.054812
37.361979
47.013760
58.570504
63.008666
66.110492
63.939691
56.884885
48.315525
35.878420
26.927590
17.373562
12.082458
7.277727
5.037785
3.476739
2.915859
2.420545
2.123713
2.148747
2.052784
1.779795
1.837611
1.911521
1.801848
1.892447
1.826882
1.848936
1.768470
1.778603
1.580715
1.898408
1.818538
##ZVALUE=355
0.560880
0.615716
0.619888
0.614524
0.533462
0.536442
0.554919
0.641942
0.820756
0.622869
0.744462
0.688434
0.761747
0.708699
0.710487
0.753999
0.714660
0.657439
0.755787
0.649691
0.775456
0.562668
0.723600
0.769496
0.624657
0.659823
0.801682
0.779629
0.792742
0.622869
0.638962
0.738502
0.712872
0.768900
0.924468
0.782609
0.755787
0.789762
0.884533
0.902414
0.939965
0.779629
0.903606
0.953674
0.794530
0.851750
1.035929
0.820756
0.959635
1.028776
1.018643
1.022816
1.208782
1.178980
1.290441
1.399517
1.310706
1.368523
1.800656
3.610849
17.942786
48.552752
132.685900
233.341455
425.341725
580.183864
750.615597
826.974511
809.204578
709.026456
526.829958
381.193757
214.947462
120.080709
46.360493
19.841790
7.300973
5.422831
4.683733
4.422665
3.894567
4.042983
4.922748
6.033778
9.645820
14.090538
22.785664
30.338764
41.679740
49.831867
57.130456
59.865713
58.391690
53.378940
43.756962
36.096573
26.007891
18.982887
11.775494
8.038878
5.046725
3.442764
2.794862
2.356768
2.020597
2.081990
1.877546
1.796484
1.946688
2.052784
1.717806
1.917481
1.949668
1.854897
1.596808
1.703501
##ZVALUE=360
0.753999
0.674725
0.638962
0.746846
0.455976
0.643730
0.794530
0.637770
0.478625
0.627637
0.488758
0.517964
0.632405
0.595450
0.667572
0.725985
0.864863
0.734925
0.728965
0.754595
0.889897
0.797510
0.727773
0.762939
0.683665
0.636578
0.622869
0.686646
0.611544
0.731945
0.695586
0.649691
0.690818
0.828505
0.786781
0.723600
0.842810
0.940561
0.839829
0.751615
0.721812
0.839829
0.809431
0.796914
0.919700
0.800490
0.951886
0.888705
0.935793
0.968575
0.914931
1.007915
1.009703
0.990629
1.123548
1.083612
1.163483
1.320839
1.374483
1.505613
1.752973
2.052784
8.953810
27.228594
84.395409
162.925720
324.159861
475.481749
678.555965
784.825683
816.709995
760.876536
608.429909
459.836721
273.017883
159.255862
64.095855
27.761459
9.006858
5.411506
4.756451
4.368424
4.183650
3.875494
3.930926
3.887415
5.198717
7.209778
11.784434
17.079711
26.421547
33.982992
44.243932
49.692988
54.657459
54.190755
50.046444
44.728518
35.187602
27.851462
19.096732
13.771653
8.656979
5.960464
3.725886
2.836585
2.082586
2.152920
2.064705
1.790524
1.808405
1.874566
1.922846
1.533628
1.673698
1.683831
##ZVALUE=365
0.568628
0.750422
0.624657
0.487566
0.613928
0.580549
0.474453
0.487566
0.643730
0.808835
0.732541
0.783801
0.708699
0.737906
0.691414
0.702739
0.673532
0.689626
0.498891
0.635982
0.659823
0.743866
0.585914
0.732541
0.653863
0.788569
0.762939
0.752807
0.674725
0.648499
0.802875
0.786781
0.801682
0.658631
0.801682
0.821948
0.829697
0.915527
0.822544
0.671744
0.975728
0.789762
0.796914
0.912547
0.909567
0.830889
0.819564
0.944734
0.952482
0.908971
0.821948
0.892878
1.057982
1.052618
0.833869
0.914931
0.890493
1.041889
1.271963
1.379848
1.452565
1.360774
1.499653
1.671910
4.074574
13.787746
52.349567
112.531781
257.198811
398.789644
581.461787
706.684589
795.373917
779.973865
665.655732
530.926585
337.494016
205.354691
89.393854
42.320490
13.113618
6.243587
4.562736
4.384518
3.865957
3.671646
3.425479
3.459454
3.479719
4.356503
6.316900
9.199977
15.128851
21.114945
30.266643
37.071705
44.918656
48.575997
50.381422
48.553944
43.569803
36.527514
27.137995
20.652413
13.654828
9.679794
5.907416
4.074574
3.066659
2.367496
2.002716
1.900792
1.939535
1.677871
1.513958
1.522899
##ZVALUE=370
0.634789
0.545979
0.583529
0.710487
0.642538
0.593662
0.677705
0.617504
0.655651
0.587702
0.614524
0.660419
0.586510
0.605583
0.626445
0.611544
0.626445
0.548959
0.818968
0.734925
0.641942
0.666976
0.672936
0.710487
0.662804
0.685453
0.767708
0.609756
0.649691
0.582933
0.774860
0.805855
0.544786
0.701547
0.653863
0.585914
0.900626
0.741482
0.744462
0.857711
0.869632
0.837445
0.851750
0.853539
0.825524
0.785589
0.705719
0.816584
0.760555
0.732541
0.798702
0.905991
0.987649
0.866652
0.958443
1.031756
1.007915
0.911951
1.020432
0.910759
1.200438
1.176596
1.184940
1.133680
1.308918
1.299977
2.424717
7.095933
35.664439
83.536506
189.149976
311.324000
511.600971
647.817850
760.344863
781.102777
703.075528
574.575663
379.377604
245.373845
114.410520
58.404803
21.965504
9.412766
4.743934
4.217625
3.766418
3.668666
3.411770
3.065467
3.114939
3.096461
3.669858
5.300641
8.258820
12.178421
19.278526
24.746656
32.723546
38.769841
45.807958
47.345757
45.876503
41.954517
35.174489
28.559566
20.701885
14.043450
10.131598
7.340908
4.159808
3.131628
2.336502
1.828671
1.781583
1.736879
##ZVALUE=375
0.556707
0.573993
0.490546
0.579953
0.496507
0.645518
0.612736
0.476837
0.578761
0.614524
0.572801
0.489950
0.490546
0.597835
0.491738
0.452995
0.499487
0.561476
0.606775
0.633597
0.714660
0.649691
0.630617
0.708699
0.734925
0.731945
0.669956
0.743866
0.660419
0.710487
0.688434
0.815988
0.621676
0.694990
0.781417
0.700951
0.863671
0.597835
0.848770
0.758767
0.740886
0.690818
0.677705
0.788569
0.823736
0.802875
0.807643
0.669956
0.749826
0.739694
0.820756
0.894666
0.828505
0.856519
0.795722
0.849962
1.000762
0.819564
0.829697
0.844598
0.975728
0.983477
0.789762
1.038909
1.168847
1.237988
1.376867
1.452565
1.672506
3.945827
19.796491
50.834417
132.849813
237.453580
417.643785
562.791824
720.795989
775.848031
732.717514
635.091662
460.675955
322.264433
176.010728
98.235607
39.041638
16.541481
5.761981
4.251599
3.857613
3.385544
3.241897
3.232956
2.850890
2.685785
3.020763
3.052950
4.213452
6.272793
9.853840
14.224648
21.886826
27.687550
35.673976
40.679574
44.261813
43.837428
41.004419
34.696460
29.989481
22.814870
17.474890
11.589527
8.340478
5.032420
3.590584
2.451539
##ZVALUE=380
0.504851
0.644922
0.673532
0.607967
0.658631
0.511408
0.389814
0.497699
0.580549
0.532866
0.684857
0.641942
0.590682
0.526905
0.600815
0.713468
0.602603
0.551939
0.650883
0.665784
0.567436
0.578761
0.548959
0.639558
0.706911
0.585914
0.604987
0.607967
0.671744
0.596642
0.622869
0.597835
0.619888
0.672936
0.880957
0.769496
0.775456
0.787973
0.796914
0.767708
0.649691
0.776649
0.894666
0.712872
0.887513
0.717640
0.718832
0.809431
0.710487
0.827909
0.633597
0.737906
0.750422
0.770688
0.825524
0.790954
0.781417
0.765920
0.924468
0.912547
0.980496
1.085997
0.984669
0.966787
1.068711
1.098514
1.053810
1.162887
1.291633
1.446605
1.711845
2.417564
11.888742
33.714771
96.990466
182.610750
348.398685
500.835776
676.112771
754.475594
757.203698
682.290792
527.832508
390.547514
226.237774
132.939816
54.990649
25.139451
7.729530
4.332662
3.695488
3.477931
3.206730
3.118515
2.965927
2.934933
2.622604
2.765656
2.780557
3.615618
5.385876
8.211732
13.797879
19.199848
26.579499
31.940937
37.881732
41.537881
41.697621
40.365458
35.599470
30.533671
23.063421
17.653704
11.904836
7.658601
##ZVALUE=385
0.544786
0.510812
0.493526
0.573993
0.546575
0.642538
0.650883
0.591874
0.689626
0.600815
0.507832
0.477433
0.584722
0.575781
0.483990
0.674725
0.664592
0.606775
0.643730
0.577569
0.605583
0.444651
0.660419
0.547767
0.558496
0.682473
0.604987
0.632405
0.787973
0.685453
0.779629
0.616908
0.683665
0.655651
0.648499
0.661612
0.646710
0.711679
0.661612
0.779629
0.750422
0.761747
0.669956
0.643730
0.639558
0.786781
0.639558
0.789762
0.837445
0.858903
0.720620
0.756979
0.762939
0.978708
0.762939
0.778437
0.813603
0.918508
0.752807
0.894666
0.834465
0.893474
0.751615
1.005530
0.839829
0.881553
0.946522
0.957847
1.199841
1.336932
1.331568
1.459718
1.575947
1.718998
4.991889
18.032789
66.560507
138.540864
286.655426
423.473716
598.700643
701.887608
756.850839
725.746751
607.770681
481.633544
305.276513
193.106532
88.646412
42.038560
12.584925
5.397797
3.469586
3.288984
3.166795
3.127456
2.997518
2.969503
2.840757
2.571940
2.524853
2.637506
3.185868
4.175901
6.844997
10.147691
15.617609
22.762418
27.647614
32.879710
36.650896
38.407445
38.626790
34.521818
30.537844
24.116635
##ZVALUE=390
0.478625
0.483990
0.613928
0.624657
0.677705
0.589490
0.649691
0.586510
0.551939
0.579953
0.653863
0.694990
0.635982
0.645518
0.629425
0.602603
0.600815
0.599623
0.532866
0.568628
0.746846
0.667572
0.618696
0.726581
0.583529
0.630617
0.596642
0.599623
0.639558
0.632405
0.699759
0.641942
0.775456
0.699759
0.692606
0.849962
0.803471
0.700951
0.704527
0.702739
0.799894
0.725985
0.857711
0.872612
0.704527
0.815988
0.741482
0.907779
0.835657
0.800490
0.787973
0.828505
0.768900
0.807643
0.747442
0.733733
0.918508
0.774860
0.834465
0.880957
0.914931
0.822544
0.803471
0.670552
0.805855
0.898838
1.021624
1.033545
1.171827
1.265407
1.251698
1.358986
1.127720
1.336932
1.387000
1.323819
2.778769
10.753870
45.916438
98.366737
216.751695
343.497992
523.820519
644.354820
749.612451
758.811831
676.130652
563.798547
383.260846
254.510641
122.221708
63.210726
21.407604
8.732677
4.224777
3.450513
3.099442
3.039837
3.397465
3.154874
2.993941
2.875924
2.748966
2.643466
2.416968
2.953410
3.926754
5.965829
8.430481
13.152957
17.122626
23.575425
28.218627
33.852458
36.032796
36.255717
##ZVALUE=395
0.523925
0.647902
0.548959
0.519753
0.596642
0.541806
0.563860
0.394583
0.431538
0.538826
0.518560
0.586510
0.555515
0.466704
0.691414
0.560880
0.409484
0.572801
0.517964
0.581741
0.584722
0.625849
0.641942
0.591874
0.497699
0.569820
0.511408
0.575781
0.668764
0.619888
0.720620
0.802875
0.610948
0.715852
0.785589
0.695586
0.625849
0.678897
0.768900
0.668764
0.749826
0.719428
0.958443
0.796914
0.865459
0.758767
0.897646
0.990629
0.822544
0.723600
0.808835
1.077652
0.866652
0.787973
0.988841
0.800490
0.896454
0.890493
0.864863
0.760555
0.905991
0.730753
0.949502
0.814795
0.782609
0.956655
0.913739
0.987649
1.073480
1.254678
1.112819
1.159906
1.385808
1.194477
1.183748
1.178980
1.405478
1.580715
2.019405
5.594492
27.795434
69.550872
165.149570
271.956921
451.298952
584.869981
722.142458
772.978663
735.831857
643.281937
470.720530
327.872634
173.698664
92.733502
35.171509
15.124679
5.278587
3.763437
3.515482
3.302693
3.379583
3.334880
3.117919
3.172755
2.968907
2.797842
2.570748
2.438426
2.823472
3.552437
4.686713
6.913543
10.246634
15.747547
20.321608
26.518703
##ZVALUE=400
0.644922
0.725985
0.668764
0.638962
0.475645
0.591874
0.558496
0.767708
0.551939
0.440478
0.466704
0.730753
0.533462
0.565648
0.483990
0.713468
0.631809
0.481606
0.562668
0.561476
0.612736
0.514984
0.574589
0.744462
0.492930
0.575781
0.685453
0.540614
0.566840
0.713468
0.653863
0.632405
0.640750
0.761747
0.687838
0.728965
0.768900
0.723600
0.829697
0.696778
0.884533
0.828505
0.823736
0.892878
0.894666
0.898838
0.968575
0.805855
0.999570
0.827909
0.791550
0.923872
0.748634
0.900626
0.849962
0.948906
1.022816
0.763535
0.874996
0.831485
0.904799
0.946522
0.956655
0.922680
0.885725
0.935793
1.009703
1.068711
1.048446
0.959635
1.144409
1.195669
1.087785
1.242757
1.249909
1.070499
1.280904
1.173615
1.375675
1.380444
1.756549
2.875924
14.456511
39.889812
110.686421
201.509595
367.589593
504.362583
663.663745
737.937689
736.835599
661.218762
503.419638
372.966528
221.038461
133.116841
57.514906
25.974512
8.305907
4.264712
3.438592
3.386736
3.504753
3.290772
3.238916
3.295541
3.097653
2.972484
2.471805
2.356768
2.338886
2.439618
2.762675
3.975630
5.693436
9.438992
##END
