##TITLE=8-3
##FORMAT=SPECTACLE-ASCII V-1.2
##DATA TYPE=ULTRAVIOLET SPECTRUM
##SECOND TYPE=ULTRAVIOLET SPECTRUM
##DATE=04/11/18
##TIME=13:35:04
##SPECTROMETER/DATA SYSTEM=SPECTACLE
##XUNITS=NM EM
##YUNITS=ENERGY
##YFACTOR=1
##FIRSTX=220
##LASTX=450
##NPOINTS=116
##3DDATA=Equidistant
##ZUNITS=NM EX
##FIRSTZ=210
##LASTZ=400
##ZPOINTS=39
##XYDATA=(Y..Y)
##ZVALUE=210
14.969707
13.987422
12.990832
10.634661
9.510517
9.737611
8.991957
7.278919
6.816983
6.214976
4.336834
4.042983
3.391504
2.731681
2.708435
2.758503
2.874732
3.595948
3.389716
3.538728
3.910661
3.792644
4.244447
3.918409
3.593564
3.942847
4.046559
4.011989
4.693866
4.835725
4.901886
4.846454
4.859567
5.934834
6.717443
6.169677
5.485415
8.485913
7.879734
7.377863
8.531809
8.260608
7.519722
8.354783
8.055568
8.702874
9.367466
7.843971
8.979440
7.812977
9.050965
9.140968
9.667873
9.121895
9.563565
9.421706
9.625554
9.164810
10.145903
9.213686
9.259582
9.192824
9.865761
9.081960
9.011626
9.288788
9.669662
9.943843
10.454655
10.761619
11.615753
14.982820
16.775727
15.062690
17.680526
18.173456
17.078519
15.097857
15.175939
15.406609
13.760924
13.043880
11.661649
11.478662
9.224415
8.594990
9.060502
7.725954
7.794499
8.583665
10.886788
13.117790
15.515685
19.984841
26.840568
29.016733
34.458637
36.790967
41.800737
45.659542
50.326586
49.290657
50.102472
47.894716
48.963428
45.530796
39.617419
38.863420
35.012960
29.113889
23.729801
20.150542
18.078685
16.524792
15.620589
14.885664
##ZVALUE=215
37.513971
36.337972
29.875636
24.441481
20.398498
16.808510
17.045736
17.374754
16.167760
14.206767
13.805628
10.590553
8.502603
5.162954
4.617572
3.612638
3.508925
3.418922
3.755689
3.443956
3.577471
3.340840
3.333688
4.379749
3.995895
4.336834
4.172921
4.622936
4.972816
5.570650
6.396770
6.087422
6.863475
7.878542
7.745624
7.366538
8.258820
9.282827
9.025931
9.984970
10.539889
10.535717
9.917617
10.504723
10.983944
10.081530
10.218620
10.263920
10.885000
11.549592
12.301803
10.891557
11.391640
12.052655
13.229847
11.576414
12.623668
13.234615
13.224483
12.955666
12.911558
12.649894
13.078451
12.637973
12.760758
10.925531
14.120936
12.939572
13.574958
14.498830
14.552474
17.619729
18.869638
18.337965
19.995570
20.040870
17.950535
17.328858
17.005801
16.790628
15.349984
14.072657
13.106465
12.670755
11.124611
10.047555
9.547472
8.561611
7.944703
8.957982
8.207560
8.087754
9.849668
9.709597
11.587739
13.861656
16.839504
19.945502
24.913549
30.756593
41.205883
51.227808
60.256720
66.163540
72.725415
74.141622
80.375671
77.290535
75.865984
73.364973
68.493485
63.803792
57.381988
50.684810
41.963458
33.831000
##ZVALUE=220
80.699921
79.096556
78.172684
72.107911
58.935881
45.683980
38.132668
29.406548
26.695728
25.152564
24.884939
25.008917
24.773479
18.985868
14.405847
10.173917
8.327961
5.267859
5.334616
3.554821
4.079938
4.366636
4.180670
4.893541
5.021691
4.488826
5.109906
4.814863
5.525947
5.852580
6.423593
7.861853
7.254481
7.770658
9.537935
9.965897
10.058880
11.746883
12.646914
12.730956
13.357997
12.178421
14.167428
14.545918
13.341904
14.475584
13.703704
14.867783
15.631914
15.321970
15.998483
16.649961
16.578436
17.381907
18.546581
18.062592
17.493963
19.770861
19.172430
18.718839
18.813610
17.786622
16.718507
16.913414
17.638803
16.903877
16.650558
17.097592
18.122792
18.004775
16.756654
18.727779
21.229982
24.079680
21.846890
24.236441
23.981929
20.364523
21.971464
16.968846
16.526580
15.495420
14.390945
13.591647
13.013482
9.658933
10.225773
10.473728
9.275675
9.051561
9.016991
9.716749
7.540584
8.033514
8.098483
8.049607
8.028746
9.057522
9.440780
10.879636
13.834834
18.703938
24.870634
37.270784
42.050481
55.735707
66.175461
80.103874
86.484551
99.708438
107.485652
114.977956
118.683577
114.095807
106.438994
97.781420
##ZVALUE=225
95.205903
104.457736
117.799640
131.004453
133.895874
122.537613
109.554529
80.261827
64.311624
49.290657
40.515661
36.736727
36.460757
39.454699
36.751628
31.103492
26.163459
22.411942
13.972521
9.930730
7.428527
5.109906
4.512668
4.427433
4.769564
4.987717
4.918575
5.685687
6.163716
6.660819
5.970597
7.740855
8.195639
9.223819
10.036826
9.876490
10.860562
12.264848
12.727976
15.375614
14.426708
14.565587
14.469624
15.272498
16.031861
15.493631
14.295578
17.460585
17.221570
17.125607
18.747449
18.972754
20.180941
20.511746
21.352768
21.551847
20.505786
22.843480
21.541715
19.920468
19.797683
20.693541
21.395683
19.366741
19.100904
18.046498
17.308593
18.753409
17.770529
17.310977
17.338991
20.435452
19.516945
19.054413
19.803643
18.754601
18.821955
18.227696
16.015768
16.058683
13.834834
14.165640
12.435913
12.530684
11.560917
10.470748
10.141730
9.015799
10.190606
8.137822
8.246899
8.128881
9.207726
8.118749
8.367896
7.753968
8.514524
7.801652
7.412434
7.998943
7.096529
7.757545
8.042455
9.733438
11.303425
17.428994
23.625493
38.992763
44.690967
59.169531
76.150894
95.374584
107.262731
132.524967
146.943927
164.322853
##ZVALUE=230
65.884590
68.014860
107.894540
143.898726
179.205537
212.605596
224.131942
207.261443
182.603598
137.289762
104.870796
69.424510
61.188936
55.160522
53.995848
57.658553
57.947636
53.742528
47.119856
36.452413
29.180646
18.678904
12.589693
8.544922
5.638599
6.008744
5.359650
5.734563
5.054474
6.562471
5.985498
6.733537
7.180572
9.652972
9.929538
10.632873
11.177659
11.840463
12.813807
13.870597
13.900995
15.192628
16.419888
15.591979
15.224814
14.631748
16.554594
16.301870
16.709566
17.421842
18.523932
19.283891
20.137429
20.360947
19.919872
22.310615
20.742416
20.694733
21.191835
21.659732
20.769835
20.495653
20.482540
20.523667
19.288659
18.183589
17.091632
17.265677
17.272830
17.879605
18.225908
18.657446
19.624829
20.515919
20.460486
19.065738
19.894838
18.525720
18.634796
16.102791
15.221834
13.472438
12.087822
13.905764
12.148619
10.759830
10.594726
11.314750
9.709597
8.522868
9.235740
9.139776
8.249879
9.534955
8.761883
7.585883
8.615851
8.000731
7.443428
8.454919
8.255839
7.484555
7.881522
8.527637
7.872581
7.970929
8.829832
8.691549
11.087656
13.971925
18.384457
30.626655
40.679574
64.743757
83.800554
115.900636
##ZVALUE=235
19.138455
20.871758
48.458576
86.070895
132.224560
201.123953
267.265439
327.184796
350.596905
328.201652
301.747918
223.960876
174.912810
115.726590
86.787939
75.968504
74.141622
85.626841
89.962482
84.056854
79.325438
63.420534
50.195456
33.724904
24.135709
13.931990
9.400845
7.206798
6.646514
6.573796
7.671714
7.030964
7.149577
7.585883
9.228587
9.212494
9.775758
10.541677
10.817647
11.682510
11.467934
11.879802
13.272762
12.550950
14.326572
13.708472
13.640523
13.292432
14.890432
15.692711
16.426444
15.653968
16.718507
16.788840
17.407537
17.153621
17.465949
17.278790
18.344522
16.832948
17.195940
17.262697
18.032789
18.427968
16.837716
16.966462
16.719699
17.214417
16.713738
18.713474
18.814802
18.838644
18.948913
18.711686
20.729899
18.973947
19.215941
15.159845
17.927885
17.206669
16.887784
16.244650
14.869571
13.751984
13.137460
12.611747
11.224747
10.535717
11.443496
11.416674
9.635687
10.681748
10.318756
8.876920
10.710955
10.060668
9.419918
8.469820
9.418726
10.810494
9.849668
8.722544
9.489655
8.768439
9.586811
9.122491
9.325743
9.987950
8.680820
9.393692
9.387732
9.439588
10.194778
11.301637
15.212893
25.156736
##ZVALUE=240
2.766848
2.606511
8.085966
19.927621
42.556524
100.625753
171.470642
281.127691
375.867486
457.450747
501.296520
502.972603
454.978943
358.314514
277.298689
187.474489
137.556791
100.100636
94.493628
107.539892
113.088489
119.093657
120.203495
106.736422
85.678697
67.750812
46.916604
34.251809
19.860864
13.015866
9.627938
7.683635
7.902980
8.532405
8.072853
8.113980
8.202791
9.484887
10.451674
9.641647
10.636449
11.802912
11.473894
12.696981
11.991858
13.143420
11.564493
12.505651
12.821555
13.769865
13.565421
13.370514
15.933514
13.655424
14.837980
15.910864
14.032722
14.342666
15.181899
15.827417
16.836524
16.127825
15.418530
16.578436
16.781688
16.081929
15.944839
17.428994
18.097758
19.023418
18.638968
20.322800
20.712614
20.859838
19.859672
20.045638
19.467473
19.223690
17.476678
18.740892
17.433763
15.677810
14.291406
13.858676
14.243722
13.851523
11.378527
12.839437
11.759996
11.577606
12.421608
13.073683
10.094643
11.586547
11.756420
10.251999
11.140704
11.061430
11.179447
10.363460
11.983514
10.559559
10.099411
10.887980
10.986924
11.955500
10.586977
10.644794
11.200905
11.811852
11.291504
10.132790
10.321736
9.939671
9.900928
9.480715
##ZVALUE=245
2.219677
2.029538
2.599955
2.461672
4.480481
14.981627
35.257936
90.638995
154.904723
273.591876
380.623937
498.137474
570.861697
594.700575
553.071499
465.773940
373.603702
256.242752
179.162621
115.443468
98.479986
102.544427
114.399791
127.592683
132.784843
125.393867
111.795664
98.055601
75.048804
52.716732
32.239556
22.148490
13.622642
10.563731
8.226633
9.188652
8.761883
9.008646
9.686947
9.729862
10.288954
9.869933
10.349751
10.625720
10.987520
11.645555
10.410547
11.060834
11.628866
12.172461
12.317896
12.138486
13.142824
13.843775
13.135672
12.614727
12.617707
12.129545
13.570786
12.746453
14.985800
13.670921
13.689995
13.474822
12.388825
12.890697
14.279485
13.961792
14.479756
15.005469
16.300678
15.582442
16.023517
15.317798
16.830564
17.720461
16.861558
15.540719
15.478730
14.938712
13.222694
12.814999
13.063550
11.825562
11.109710
11.329651
10.948777
9.807944
10.250807
9.781718
10.390878
9.809732
9.246469
9.074807
9.991527
9.478927
9.298921
9.999871
9.298921
10.434985
10.398626
9.992719
10.101795
10.412931
9.231567
10.745525
9.409785
9.592772
10.265708
10.192990
9.202957
8.761883
9.111762
8.421540
8.253455
8.519888
##ZVALUE=250
1.899600
1.994967
2.110600
2.066493
2.153516
2.558827
2.588630
9.210706
24.371743
69.146752
131.004453
247.581005
368.387699
511.763692
602.482557
666.608810
664.488673
585.848689
491.469502
338.251591
236.424804
145.230889
107.017756
95.776916
102.434754
122.695565
134.468675
142.839551
135.797858
123.851895
100.525618
79.563856
55.089593
37.421584
21.762848
14.927983
10.659695
8.954406
9.019971
10.114908
10.603666
9.959936
10.441542
11.074543
12.054443
11.988878
11.964440
11.564493
12.477636
11.931658
12.649894
13.642907
12.959838
11.793971
13.693571
12.375712
13.480783
13.682842
12.919903
12.858510
13.381839
12.590885
12.987852
12.770891
11.300445
12.212992
11.963844
13.353825
12.946725
14.595985
13.100505
13.918877
13.877749
14.473796
14.586449
13.047457
14.321804
12.924671
12.722611
12.111664
11.583567
11.160970
11.593699
9.767413
8.530617
9.134412
9.316802
8.280873
8.316636
8.600950
8.279681
7.745624
7.944703
8.168817
7.720590
8.102655
7.774830
7.873774
7.315874
7.864833
7.514954
7.508993
6.484985
7.584691
7.553697
7.581711
8.246899
7.781982
6.974936
7.136464
8.026958
7.814765
8.060932
6.731749
7.232428
8.003712
##ZVALUE=255
1.558661
1.918674
1.953840
1.759529
1.871586
1.621842
2.012849
1.958609
2.505779
5.582571
15.896559
50.798655
104.912519
218.450427
327.399969
492.690802
610.631704
725.098848
756.267905
707.111955
603.538752
448.632836
309.500694
182.793736
119.650960
88.838935
87.677836
99.628568
125.644803
142.096877
149.623752
147.152543
128.751993
109.507442
78.448653
60.669780
38.346648
25.053620
16.423464
13.107657
12.573600
11.718869
12.205839
12.066960
12.653470
13.302565
13.086796
13.831854
15.375614
13.320446
12.831688
14.462471
13.313890
14.345646
14.417768
14.187694
14.346838
13.659000
14.982820
14.014840
14.652610
14.112592
13.444424
13.203621
12.451410
13.213754
12.015700
12.902617
12.821555
13.250709
12.467504
12.762547
12.960434
13.281703
13.079643
12.873411
12.784600
12.240410
12.052655
11.234879
10.436773
9.869933
9.416938
8.952618
8.815527
8.594990
7.454753
7.514954
7.675886
7.394552
7.401705
6.812811
6.679893
6.860495
5.761981
6.957650
6.685853
6.317496
6.826520
6.343722
6.908774
6.302595
6.302595
5.935431
6.506443
6.151795
6.169677
6.280541
6.660819
6.982684
5.578995
6.480813
6.119609
6.280541
6.170869
6.423593
##ZVALUE=260
1.670718
1.494884
1.409650
1.534820
2.027750
1.501441
1.796484
1.715422
2.083778
2.014637
1.799464
3.106594
8.792877
33.223629
72.300434
168.081522
276.475549
459.038615
599.826574
764.828920
836.846828
817.081928
738.143921
563.540459
422.293544
247.562528
164.694786
93.811750
79.410672
83.412528
109.328628
128.920674
145.390630
158.463717
152.840614
136.226416
112.902522
91.986656
63.642859
45.398474
32.189488
22.995472
17.605424
16.462803
15.204549
15.886426
15.315413
16.374588
16.491413
15.404820
15.776753
16.033649
16.942620
17.385483
16.644597
17.338991
16.089678
16.548634
16.419888
16.187429
15.679598
15.688539
15.911460
15.346408
15.060902
14.930964
14.626980
15.035868
15.098453
15.038848
13.500452
13.739467
13.418794
14.719963
13.489723
12.606978
12.174845
11.937618
11.029840
10.569692
10.671616
9.748936
9.453893
8.424520
8.490682
7.964969
7.636547
7.277727
6.988645
6.985664
6.814599
6.436706
6.639957
6.435513
6.543994
5.998611
6.174445
5.825758
6.475449
6.160736
6.075501
5.771518
5.511642
5.936623
5.923510
6.328821
5.464554
5.552769
5.622506
5.705953
5.369782
5.563498
5.021691
5.092621
5.358458
5.015731
##ZVALUE=265
1.400709
1.276731
1.631975
1.476407
1.406670
1.290441
1.536608
1.403689
1.891851
1.565814
1.929998
1.951456
1.854897
2.203584
4.507899
22.356510
52.444935
131.848454
231.670737
425.413847
584.397912
775.817037
873.702765
904.167891
837.291479
676.059723
535.547733
391.211510
218.069553
133.909583
76.706409
69.398880
87.959766
112.155676
140.363574
157.650709
166.411996
159.814954
141.505599
123.961568
93.644857
72.463751
50.525665
37.320852
25.960803
22.530556
19.932985
19.641519
19.539595
19.098520
20.434856
19.614697
19.965768
20.277500
19.399524
20.406842
19.906759
20.214915
19.363761
19.545555
19.200444
19.028783
17.770529
17.382503
17.018914
16.426444
16.252995
15.992522
14.882684
16.062856
14.792681
15.288591
14.847517
14.940500
14.457703
14.043450
13.479590
12.619495
11.985898
11.210442
11.031628
9.751916
9.465814
8.361936
9.048581
8.478761
8.020997
7.627606
7.682443
7.422566
7.399917
6.890893
6.734729
6.622672
6.117821
6.405711
6.082654
5.634427
5.680919
5.792975
5.755424
4.960895
5.032420
5.987883
5.235672
5.738735
5.607605
5.666614
5.105734
4.972816
4.978776
5.263686
5.017519
4.926920
4.543662
5.351901
##ZVALUE=270
1.345873
1.412630
1.265407
1.323819
1.535416
1.379848
1.291633
1.218915
1.510978
1.336932
1.543760
1.489520
1.673698
1.728535
2.051592
2.126694
2.690554
10.999441
30.284524
92.503428
181.390643
354.957581
523.178577
753.120780
885.244608
971.074700
947.634578
858.967900
674.581528
506.511927
300.891399
188.566446
99.107623
67.263842
71.283579
89.888573
121.710896
143.078566
166.016817
172.759891
167.530775
153.175592
126.985908
101.518631
74.453950
56.223869
41.155815
30.545592
25.136471
23.845434
22.906661
23.007989
23.342967
22.798777
22.982955
22.398829
22.914410
22.641420
21.507740
22.629499
22.618771
21.473765
19.826889
20.223856
19.500852
18.221736
18.677711
18.134713
17.971992
16.550422
17.029643
16.285777
16.812682
16.496778
15.966892
14.574528
14.347434
13.562441
12.729764
12.803674
12.045503
10.514855
9.885430
10.164976
9.450912
8.528829
8.999705
8.485913
7.814765
8.216500
7.341504
7.033944
6.715655
6.786585
6.747842
6.053448
6.492734
5.766749
6.105900
5.604625
5.955696
5.613565
5.380511
5.438924
5.743504
5.557537
5.459785
5.820990
5.722642
5.365610
5.053878
5.174875
5.364418
4.877448
4.879832
4.901886
##ZVALUE=275
0.984669
1.213551
1.192689
1.271963
1.385808
1.312494
1.409650
1.375675
1.286864
1.292825
1.685619
1.139641
1.212955
1.630783
1.371503
1.692772
1.612902
1.852512
1.924634
5.311966
18.417835
64.284801
141.319633
260.939002
485.155582
654.177666
852.307677
968.191028
1008.206606
945.460796
783.802867
621.971488
395.792723
250.172615
124.594569
77.935457
60.274601
69.572926
97.615719
123.697519
151.833892
166.234970
176.263452
172.660947
152.328610
129.464865
101.309419
80.660582
57.513714
43.251514
33.225417
28.062463
25.800467
25.244951
24.882555
24.211407
23.472905
24.338961
23.884773
23.209453
22.446513
22.502542
21.250844
21.421909
20.698905
19.988418
19.629598
19.437671
18.713474
18.384457
17.952919
17.502904
17.421842
16.510487
16.140938
16.086698
14.748573
14.411807
13.205409
13.290644
12.171865
12.110472
11.424422
10.755658
10.525584
9.569526
9.030700
8.481741
8.501410
8.048415
8.045435
7.552505
7.449985
6.777644
6.995797
6.681681
6.876588
6.615520
6.162524
6.298423
6.226897
6.198883
6.107688
5.737543
6.138682
5.548596
5.768538
5.764961
5.863905
5.458593
5.134940
5.271435
5.502701
4.920959
5.180836
5.080700
##ZVALUE=280
1.090765
1.095533
1.247525
1.047850
1.085997
1.072884
1.267791
1.143813
1.271963
1.045465
1.157522
1.503825
1.461506
1.441836
1.268983
1.630783
1.495481
1.682639
1.719594
1.991987
2.034903
2.443790
11.857748
37.927628
114.852786
209.606886
391.548872
568.887591
802.618861
943.285823
1015.712023
1015.671492
887.873769
721.476674
479.260683
321.102738
165.122747
94.159842
54.566860
53.688884
71.969628
92.080832
123.904943
143.923759
164.315701
169.382691
165.007710
150.073767
124.250650
102.349520
73.882937
56.506991
40.571690
32.996535
25.936961
22.771955
23.416877
22.791624
22.451878
22.287965
21.513700
22.324920
21.357536
20.826459
19.906759
19.449592
19.468665
18.499494
18.210411
17.992854
17.731786
16.952753
17.088652
15.957952
16.259551
15.835762
14.651418
14.736652
12.927651
12.971759
12.003779
12.233853
11.322498
11.416674
10.564923
9.909868
9.261966
9.503961
8.646846
8.707643
7.889867
7.912517
7.528663
7.546544
6.838441
6.944537
6.899834
6.952882
6.579757
6.239414
6.547570
6.527901
6.258488
6.438494
6.070733
6.141663
6.055832
6.330609
5.389452
5.333424
5.757809
5.287528
5.487800
4.985929
4.785657
5.068779
##ZVALUE=285
1.108646
1.106858
0.935793
0.942945
1.168847
0.870824
1.006722
1.077652
1.126528
0.978708
1.163483
1.113415
1.178980
1.435876
1.190901
1.182556
1.397729
1.299977
1.453757
1.571774
1.577735
1.856685
1.989603
2.410412
5.424619
25.879741
63.954592
129.262805
278.896689
437.233448
678.688884
848.893523
1011.672616
1015.712023
980.399847
852.224827
613.107681
425.113440
225.594640
133.406520
63.181520
42.401552
44.969916
59.943795
86.438656
109.792948
136.051774
152.469873
161.556602
159.178972
142.014623
124.066472
94.545484
75.516701
51.500797
38.712621
27.412772
22.934675
19.666553
19.160509
19.329786
18.003583
18.099546
18.259883
17.884970
17.591715
17.756820
16.574860
16.464591
16.808510
16.204715
15.858412
15.537739
15.120506
14.889836
14.676452
13.852715
13.288856
12.639761
12.469888
11.702776
11.619925
10.376573
10.623932
10.229945
9.991527
9.466410
8.294582
8.806586
8.534789
8.411407
8.290410
7.817745
7.298589
7.045865
7.068515
6.913543
7.078648
6.711483
7.137656
6.791949
6.754994
6.415844
6.454587
6.513596
6.114841
6.311536
5.902648
5.714893
5.971789
5.933642
5.859733
5.418658
5.090833
5.405545
5.162954
##ZVALUE=290
0.952482
0.931621
0.954866
0.923872
1.131892
0.963807
0.880957
1.054406
0.982881
1.069903
1.056790
1.205802
1.063943
1.054406
1.033545
1.263618
1.329780
1.168847
1.222491
1.234412
1.275539
1.553893
1.669526
1.811981
1.939535
2.015829
2.703667
11.644959
35.507679
83.742738
200.651884
336.825848
566.070676
766.595602
975.324512
1015.712619
1015.712619
930.858850
710.601807
527.779460
348.154902
173.279643
92.892647
38.998723
29.004812
39.142966
53.810477
77.105761
98.225474
121.202469
143.339634
151.059628
149.994493
136.837959
113.418698
93.486905
64.918995
48.484802
32.754540
24.766922
18.519759
16.439557
14.531612
14.219880
14.162660
14.613867
13.588667
13.435483
13.846755
13.452768
14.058948
13.995767
13.030767
13.418794
12.933612
12.429953
11.850595
11.762977
11.241436
11.255741
10.413527
10.664463
10.450482
9.855628
9.266734
9.426475
9.310842
8.843541
8.528829
8.097887
7.803440
7.785559
7.627606
7.602572
7.243752
7.015467
6.845593
6.667972
7.098913
7.026792
6.559491
6.577969
6.539822
6.350875
6.341934
6.231666
6.511807
6.113648
6.015897
5.911589
6.091595
6.168485
5.853772
5.385876
5.652905
5.127788
##ZVALUE=295
0.936985
0.943542
0.814795
1.006722
1.167655
0.862479
1.014471
0.941753
1.042485
0.961423
1.082420
1.115799
1.070499
1.099706
1.010895
1.145601
1.345873
1.210570
1.169443
1.279712
1.157522
1.269579
1.410842
1.382828
1.523495
1.463890
1.754761
1.935959
2.248883
3.744960
19.042492
51.033497
143.703818
258.374810
482.925773
670.629740
904.247761
1013.446450
1015.712023
1001.532674
816.133618
636.335015
395.479798
246.018767
112.079978
54.686666
25.101900
22.709966
33.996701
47.446489
71.898699
93.078613
118.671656
133.272409
144.425631
140.086412
126.711726
110.061765
84.901452
66.002607
43.593645
30.665994
19.956827
15.319586
11.902452
11.111498
11.165738
10.550618
10.445714
11.142492
10.649562
10.776520
11.365414
11.190772
10.824800
10.496974
10.822415
10.207891
9.295940
9.531975
9.358525
9.089708
8.922815
8.388758
8.682609
8.298755
7.935762
7.810593
7.766485
7.738471
7.431507
7.401705
7.030964
6.821752
6.627440
6.947517
6.681681
6.883740
6.616712
6.805658
6.822944
6.605983
6.364584
6.336570
6.357431
6.007552
6.133914
6.329417
6.599426
5.993843
5.951524
5.745888
5.832911
5.847812
5.713701
5.474687
##ZVALUE=300
0.996590
0.766516
0.915527
0.922680
0.972748
0.930429
0.921488
1.043677
0.820756
0.889897
1.003742
0.933409
0.902414
0.980496
0.965595
1.079440
1.036525
0.937581
1.133680
1.102686
1.265407
1.439452
0.905991
1.455545
1.471639
1.406670
1.394749
1.499653
1.639724
1.638532
1.844764
2.360940
8.813739
28.575659
95.774531
182.271004
370.153785
554.711819
800.217986
946.344733
1015.712023
1015.712023
910.334587
758.638978
513.754487
335.158706
173.769593
93.662739
36.235452
19.386411
19.736886
27.718544
44.538975
60.305595
86.179972
104.980469
127.040744
132.235885
130.429864
123.624802
103.399754
85.868835
59.559941
44.409633
27.526617
19.247532
12.473464
10.381937
9.066463
8.770823
8.820891
8.674860
9.035468
8.853674
8.486509
9.029508
8.557439
8.402467
8.470416
8.294582
8.028746
7.773638
7.738471
8.064508
7.656813
7.269979
6.719828
7.410645
7.082820
6.813407
6.753802
6.634593
6.796718
6.264448
6.428957
6.211996
6.546974
6.214976
6.325841
6.317496
6.223917
5.909801
6.297827
5.891919
6.268620
5.890727
6.136894
6.075501
5.744696
6.397963
5.990863
5.547404
5.532503
5.535483
5.590916
5.484819
##ZVALUE=305
0.813603
0.694990
0.892878
0.822544
0.602603
0.925660
0.720620
0.995994
1.070499
0.795722
0.915527
1.018643
0.996590
0.892878
0.952482
0.842810
0.714660
0.983477
0.868440
0.957847
1.161695
1.096725
1.136661
1.164675
1.245737
1.275539
1.246929
1.397729
1.277924
1.406670
1.653433
1.640916
1.660585
1.999736
4.621744
16.697645
63.754916
137.499571
298.097730
457.778573
704.131722
880.568027
1015.712023
1015.712023
983.254910
833.986998
603.631735
418.577790
220.714808
119.866729
47.242641
21.848679
13.757944
17.208457
26.348829
39.209723
61.084628
79.137683
102.658868
116.872787
126.086473
128.294826
113.379955
98.773837
76.471567
59.046745
39.125681
26.970506
16.152859
11.276603
8.911490
8.400679
7.946491
7.416606
7.625818
7.360578
7.254481
7.287860
6.918907
7.033944
6.985664
6.873608
6.809831
6.744862
6.748438
6.532669
6.491542
6.501675
6.587505
6.418824
6.188750
6.273985
5.968809
6.012917
5.776882
5.783439
5.823970
6.044507
5.738735
5.620718
5.578995
5.828738
5.847812
5.773902
5.716681
5.749464
5.988479
5.950928
5.734563
5.419850
5.559921
5.694628
5.578995
5.534887
5.155802
4.982948
##ZVALUE=310
0.894666
0.857711
0.868440
0.886917
0.837445
0.867844
0.976920
0.873804
1.012683
0.835657
0.870824
0.914931
0.740886
0.797510
0.867844
0.868440
0.854731
1.006722
1.058578
1.162887
0.867844
0.966787
1.034737
1.143813
1.041889
1.154542
1.058578
1.173615
1.340508
1.173615
1.378655
1.431704
1.499653
1.566410
1.934767
1.824498
2.290606
7.163882
34.875870
81.454515
200.249553
337.009430
572.035909
759.401917
967.974663
1015.712023
1015.712023
944.465995
723.204613
536.122918
311.714411
183.970928
77.091455
36.186576
14.736652
11.266470
15.767813
22.558570
35.470724
50.155520
72.257519
90.535879
109.515786
118.252635
119.601488
112.527609
93.035698
77.993870
54.639578
38.666725
24.029613
16.882420
11.099577
8.561611
6.971955
6.673932
6.128550
6.226897
6.303787
5.786419
6.015897
5.882978
5.716681
5.695820
5.755424
5.819798
5.676746
5.424619
5.464554
5.604625
5.302429
5.241632
5.149841
4.900694
5.496740
5.149841
5.319715
5.144477
5.300641
5.088449
5.170703
5.063415
5.225539
5.196929
5.458593
5.233884
5.450845
5.220771
5.474687
5.186796
5.172491
4.877448
4.822612
4.940629
4.922748
4.875660
##ZVALUE=315
0.662804
0.699759
0.705719
0.634789
0.657439
0.640750
0.812411
0.777841
0.781417
0.957847
0.834465
0.974536
1.002550
0.771880
0.949502
0.872612
0.786781
1.120567
0.906587
0.908971
0.875592
0.903606
1.046658
0.948906
0.946522
1.057982
1.085997
1.212955
1.185536
1.031756
1.234412
1.073480
1.335740
1.096725
1.620650
1.425743
1.708865
1.804829
1.850724
3.274679
17.108917
48.779845
141.217709
255.807638
477.799773
668.990016
888.154507
1005.870700
1015.712023
997.623801
813.148618
633.652806
394.879580
247.810483
113.174915
54.038763
17.107725
10.356903
10.635853
13.343692
20.984411
31.520724
49.247742
64.606667
86.707473
100.093484
110.653639
112.285614
102.368593
88.696480
68.064928
53.767562
34.749508
24.873614
14.956594
10.258555
7.003546
5.900860
5.541444
5.251765
5.111694
4.865527
4.857779
4.686713
4.581809
4.840493
4.737973
4.563928
4.814863
4.849434
4.456639
4.582405
4.504919
4.445910
4.559755
4.687905
4.550815
4.393458
4.619956
4.436970
4.682541
4.703999
4.728436
4.600883
4.877448
4.873872
4.563928
4.607439
4.587770
4.707575
4.837513
4.213452
4.466772
4.544854
4.361868
4.421473
##ZVALUE=320
0.717640
0.677705
0.593662
0.571609
0.748634
0.632405
0.687838
0.823736
0.681877
0.800490
0.655651
0.663996
0.739694
0.784993
0.898838
0.835657
0.929832
0.836849
0.757575
0.726581
0.882745
1.026988
0.963807
0.897646
0.964999
0.967979
1.060963
0.980496
0.878572
1.131892
1.280904
1.174808
1.111627
1.281500
1.263618
1.264811
1.298785
1.390576
1.418591
1.445413
1.838803
2.231598
8.027554
26.258826
91.162920
181.848407
364.090800
544.484854
789.291859
935.590863
1015.712023
1014.908552
877.802968
716.915727
482.016802
309.266448
143.531561
74.738860
27.628541
13.480783
8.818507
9.358525
12.485981
17.641783
28.825998
40.583611
60.938597
76.226592
93.919635
102.230906
104.184747
98.145604
83.175898
69.047809
49.416423
36.641955
22.339821
14.445782
8.256435
6.134510
5.107522
4.298687
4.334450
3.953576
3.998876
3.735423
3.904700
3.764629
3.651977
3.717542
3.666878
4.069805
3.778934
3.710985
3.852844
3.875494
3.968477
3.815889
3.887415
3.843904
3.930926
3.897548
3.970861
3.900528
3.893971
3.851652
4.046559
3.939867
3.985763
3.772974
3.753901
3.716946
3.786683
3.779531
3.636479
3.853440
##ZVALUE=325
0.821948
0.673532
0.788569
0.763535
0.731945
0.858903
0.911951
0.737906
0.682473
0.715852
0.566840
0.633597
0.743866
0.765920
0.625849
0.817776
0.899434
0.842810
0.889897
0.720620
0.756979
0.915527
0.929832
0.950694
0.923872
1.031756
0.975728
0.960827
1.187921
1.069903
0.987649
0.983477
1.039505
1.088977
1.131892
1.261830
1.110435
1.282692
1.314878
1.364946
1.510978
1.653433
1.710653
1.897812
4.451871
15.304685
59.330463
129.875541
290.706754
460.977554
713.137984
881.139636
1014.239788
1015.712619
936.455727
780.912638
534.676909
370.354652
194.284916
106.263757
40.031672
17.174482
8.216500
7.590652
8.147955
10.515451
17.310977
25.768876
42.862892
58.056712
76.560974
88.346004
96.777678
97.884536
91.276765
78.211427
60.326457
44.808984
29.537678
19.759536
12.045503
7.900000
5.601645
4.600883
3.995895
3.716946
3.541708
3.674626
3.314614
3.330708
3.001690
3.387928
3.307462
3.575683
3.244877
3.156662
3.371835
3.557801
3.478527
3.550649
3.586411
3.575683
3.857613
3.461838
3.429651
3.223419
3.562570
3.605485
3.275871
3.387928
3.323555
3.308654
3.152490
3.389716
3.170967
3.049970
##ZVALUE=330
0.734925
0.630617
0.708699
0.790954
0.729561
0.704527
0.693798
0.671744
0.697970
0.600815
0.642538
0.755787
0.693798
0.861883
0.699759
0.826716
0.861883
0.804663
0.770688
0.772476
0.709891
0.786781
0.855923
0.774860
0.822544
0.865459
0.863671
0.657439
0.882745
1.026988
0.918508
1.020432
1.135468
1.155734
0.997782
1.036525
1.269579
1.076460
1.141429
1.173615
1.417994
1.282692
1.444817
1.658797
1.627803
1.732707
2.594590
7.412434
35.610795
84.419847
210.088491
358.043909
605.840683
790.596604
979.628563
1015.712619
980.253816
850.312710
627.307892
455.271602
252.457857
140.925646
54.647923
25.651455
9.532571
7.149577
6.690621
7.394552
10.716915
16.129613
26.931763
37.643909
54.180622
68.266988
82.348585
89.674592
90.467930
84.351897
70.618987
57.226419
40.441751
29.833913
18.337965
12.345910
7.670522
5.421638
4.041791
3.494620
3.369451
3.045797
2.990961
2.883673
2.949834
2.928972
3.121495
3.050566
3.030896
3.051758
3.078580
3.012419
3.013611
3.287792
3.165603
3.102422
3.125668
3.201962
3.097653
3.168583
3.294945
3.077984
3.207922
3.052950
3.167987
2.859831
2.848506
2.881885
##ZVALUE=335
0.751615
0.684857
0.730753
0.797510
0.747442
0.701547
0.692606
0.772476
0.695586
0.539422
0.629425
0.601411
0.853539
0.637770
0.585914
0.656843
0.662804
0.715852
0.814795
0.778437
0.752807
0.626445
0.764728
0.798702
0.776649
0.733733
0.787973
0.795722
0.848770
0.843406
0.888705
0.989437
0.955462
1.017451
1.063943
1.108646
0.977516
1.003742
0.972748
1.091957
1.067519
1.053810
1.125932
1.469851
1.544952
1.687407
1.558661
1.601577
1.847744
3.223419
16.794801
47.845840
139.725804
261.587501
505.604744
709.629655
943.014622
1015.712619
1015.712619
948.665738
727.767944
542.601943
320.110917
192.259550
80.121756
37.192702
12.837648
7.266998
6.399751
6.075501
7.435679
9.343624
15.585423
23.052692
35.690665
48.561692
65.187812
75.926781
84.351897
85.262656
77.552795
67.975521
53.926706
42.967796
28.478503
20.440817
12.214780
8.392930
5.251765
4.040599
3.404617
3.161430
2.852678
2.773404
2.900958
2.883673
3.043413
2.800822
2.890825
2.932549
2.807975
2.663732
2.856851
2.860427
3.072619
2.941489
2.954602
3.014803
2.798438
2.893806
2.962947
2.841949
2.710819
2.875924
2.821684
2.566576
##ZVALUE=340
0.768900
0.758767
0.628829
0.604987
0.652671
0.831485
0.611544
0.746846
0.615716
0.712872
0.604987
0.801682
0.644922
0.662804
0.718832
0.658631
0.839829
0.708699
0.687838
0.672936
0.766516
0.735521
0.842810
0.708699
0.735521
0.805855
0.804663
0.926852
0.822544
0.915527
0.934601
0.899434
0.876784
0.981688
0.987649
0.926852
0.756979
1.008511
0.920892
1.089573
1.038909
1.095533
1.128912
1.204610
1.120567
1.258850
1.341701
1.498461
1.491904
1.595616
1.682639
2.117753
9.267926
30.763745
99.751949
197.511911
406.291485
616.332889
884.739757
1015.712023
1015.712023
1015.712023
839.903951
642.446876
382.497907
235.353708
106.784701
50.837994
15.961528
8.138418
6.152987
6.222725
6.146431
6.972551
9.211898
13.823509
22.891760
32.629967
48.452616
59.490800
72.938800
77.604651
78.071952
74.531436
63.249469
53.896904
38.754940
29.338598
18.220544
12.369752
7.660985
5.340576
3.647804
3.398657
3.070831
2.960563
2.802610
2.866983
2.796650
2.707839
2.902746
2.745986
2.639890
2.811551
2.869964
2.779961
2.801418
2.980828
2.788901
2.852678
2.735853
2.720952
2.688766
2.726912
2.544522
2.596974
##ZVALUE=345
0.610948
0.698566
0.658631
0.773668
0.584722
0.620484
0.669956
0.601411
0.623465
0.691414
0.809431
0.614524
0.622869
0.679493
0.695586
0.713468
0.704527
0.817776
0.905991
0.812411
0.716448
0.693798
0.744462
0.817776
0.633597
0.718832
0.714660
0.771880
0.784993
0.866652
0.864863
0.856519
0.899434
1.010895
0.942945
0.859499
0.903606
0.902414
0.829697
0.905991
0.979900
1.058578
1.069903
1.034737
1.116991
1.162887
1.172423
1.233816
1.212955
1.384616
1.559854
1.683831
1.748800
1.780987
4.432797
15.730858
64.410567
134.310722
295.956731
469.256639
750.735998
946.860909
1015.712023
1015.712023
971.897840
784.182549
506.762862
320.114493
140.154958
67.403913
22.456646
10.489821
6.725788
5.933642
5.625486
5.350709
6.122589
8.248687
12.945533
19.727945
31.498671
41.649938
54.835677
63.662529
71.575642
72.791576
68.895817
62.314868
50.356984
40.091872
27.902722
19.721985
12.070537
8.348823
5.104542
4.083514
3.236532
2.836585
2.952814
2.799630
2.788901
2.608895
2.699494
2.750754
2.680421
2.715588
2.651811
2.460480
2.707839
2.690554
2.680421
2.613664
2.724528
2.679825
2.712607
2.678633
##ZVALUE=350
0.746846
0.627637
0.564456
0.708699
0.561476
0.667572
0.695586
0.492930
0.911951
0.574589
0.716448
0.771880
0.788569
0.658631
0.668764
0.611544
0.639558
0.709891
0.687838
0.756979
0.696778
0.661612
0.674725
0.676513
0.735521
0.701547
0.751615
0.821948
0.861883
0.788569
0.823736
0.789762
0.928640
0.855923
0.889897
0.919700
0.947714
0.915527
0.928640
0.952482
0.911951
0.996590
0.874996
0.935793
1.039505
0.978708
1.028776
1.010895
0.930429
1.268983
1.306534
1.354814
1.371503
1.458526
1.574755
1.710653
2.563596
8.087754
36.821961
85.947514
208.141804
350.720882
604.023933
806.460977
1014.841795
1015.712023
1015.712023
903.428793
606.011748
399.740934
202.161670
104.625821
34.661889
14.498830
7.067919
5.959868
5.099773
4.886985
4.664660
5.675554
7.833838
11.031628
18.153787
25.187731
37.004948
46.725869
57.677627
63.893795
65.816641
63.967705
56.184530
48.322678
35.977960
27.435422
17.772913
12.826920
7.929802
5.617738
3.857613
3.356934
2.885461
2.743602
2.841949
2.624989
2.594590
2.515912
2.567768
2.543926
2.580881
2.519488
2.649426
2.540946
2.566576
2.345443
2.371669
2.620816
##ZVALUE=355
0.699759
0.691414
0.663996
0.578761
0.769496
0.699759
0.526905
0.598431
0.596642
0.635982
0.598431
0.787973
0.653863
0.752807
0.643730
0.709891
0.682473
0.589490
0.709891
0.582933
0.622869
0.643730
0.844598
0.813603
0.776649
0.798702
0.794530
0.784993
0.792742
0.598431
0.771880
0.871420
0.790954
0.776649
0.833869
0.865459
0.893474
0.849962
0.794530
0.923872
0.898838
0.715852
0.939965
0.920892
0.789762
1.011491
1.083612
1.060963
1.180768
0.983477
1.129508
1.146793
1.192689
1.183748
1.286864
1.462698
1.545548
1.595616
1.914501
3.856421
20.425916
54.655671
146.018863
257.865787
474.705696
656.625032
874.166489
986.777544
1004.439592
906.394720
696.625710
500.736833
261.992812
144.432783
56.771636
23.464561
7.888675
5.593896
4.999638
4.567504
4.503727
4.398823
5.053878
6.381869
9.874701
14.340878
22.999644
30.996799
42.387843
49.719810
57.168603
59.880614
57.984591
53.388476
43.920875
36.387444
26.136637
19.830465
13.163686
9.321570
5.707741
4.204512
3.319979
2.956986
2.764463
2.606511
2.679825
2.449751
2.460480
2.583861
2.399683
2.439618
2.440810
2.437830
2.403855
2.201796
##ZVALUE=360
0.561476
0.669956
0.653863
0.651479
0.558496
0.685453
0.596642
0.667572
0.624657
0.579953
0.677705
0.777841
0.683665
0.667572
0.710487
0.622869
0.668764
0.618696
0.532866
0.642538
0.762939
0.807643
0.769496
0.769496
0.784993
0.722408
0.848770
0.765920
0.726581
0.767708
0.715852
0.695586
0.796914
0.655651
0.782609
0.953674
0.923872
0.709891
0.811815
0.811815
0.938773
0.854731
0.759959
0.810623
0.838637
0.873804
1.069903
0.993609
0.908971
1.104474
1.152754
1.056790
1.131892
1.243949
1.290441
1.407862
1.193881
1.314878
1.606941
1.500845
1.729727
2.339482
9.320974
29.460788
95.031857
181.749463
353.135467
523.267388
748.096704
872.567892
930.988789
886.311531
726.987720
561.509728
338.670611
201.621652
86.205602
35.812855
10.409951
6.000996
4.974604
4.814863
4.183650
4.194975
4.052520
4.180670
5.577803
7.367730
12.159944
17.627478
26.395917
34.092665
44.526458
49.869418
54.341555
53.898692
50.001740
44.672489
35.391450
28.436780
18.908978
14.495850
8.839965
6.153584
4.287958
3.343821
2.892613
2.503991
2.389550
2.401471
2.353787
2.359748
2.375841
2.656579
2.313852
2.233982
##ZVALUE=365
0.656843
0.751615
0.652671
0.689626
0.574589
0.570416
0.763535
0.727773
0.604987
0.602603
0.522733
0.669956
0.625849
0.628829
0.535846
0.639558
0.709891
0.587702
0.678897
0.654459
0.821948
0.508428
0.727773
0.732541
0.757575
0.663996
0.783801
0.662804
0.581741
0.819564
0.708699
0.718832
0.698566
0.726581
0.688434
0.661612
0.866652
0.883937
0.801682
0.823736
0.955462
0.928640
0.864863
0.966787
0.919700
0.970960
0.892878
0.783801
0.835657
0.932813
1.018643
1.023412
1.039505
1.016855
1.211762
1.151562
1.110435
1.206994
1.177788
1.246929
1.576543
1.607537
1.608729
1.951456
4.528761
14.768839
58.533549
124.251842
279.828906
435.094833
646.478534
775.874853
868.873000
864.958763
748.448968
607.264638
398.140550
247.484446
110.972524
52.102804
14.778972
6.907582
4.920959
4.390478
4.113913
3.683567
3.710985
3.563762
3.663898
4.392862
6.333590
9.648800
15.322566
21.574497
30.615926
37.268996
45.019984
48.753619
49.674511
48.510432
42.763948
36.977530
28.197765
21.986961
14.478564
10.250807
6.483793
4.593730
3.467798
2.847910
2.691746
2.487898
2.466440
2.396703
2.188683
2.183914
##ZVALUE=370
0.651479
0.554919
0.609756
0.671744
0.695586
0.710487
0.614524
0.850558
0.646710
0.650883
0.746846
0.675917
0.746846
0.752807
0.622869
0.640750
0.445843
0.596642
0.603795
0.680685
0.684857
0.837445
0.690818
0.841618
0.770688
0.680685
0.525713
0.720620
0.626445
0.709891
0.708699
0.840425
0.677705
0.679493
0.698566
0.712872
0.712872
0.867844
0.778437
0.599623
0.922680
0.789762
0.824928
0.801682
0.861883
0.896454
0.902414
0.913739
0.809431
0.962615
0.945926
0.785589
0.953674
1.144409
0.907779
1.105666
1.018643
1.047850
1.094937
1.071692
1.172423
1.217723
1.280904
1.387596
1.513958
1.593828
2.523661
8.495450
41.927695
97.282529
216.521025
351.279974
570.051670
714.125633
831.735730
857.383013
772.055984
644.384623
434.495807
285.289884
135.764480
70.850849
25.872588
10.653734
5.171895
4.368424
4.022717
3.780723
3.489852
3.279448
3.333688
3.294945
4.013777
5.483627
8.554459
12.670755
19.356608
25.518537
32.977462
39.465427
44.676661
47.435760
45.561790
42.170882
35.278797
29.263496
21.308661
16.334653
10.774732
7.575750
4.873872
3.837943
3.151894
2.650619
2.359748
2.191663
##ZVALUE=375
0.611544
0.603795
0.573993
0.497699
0.644922
0.463724
0.680685
0.629425
0.635982
0.642538
0.626445
0.758767
0.682473
0.712872
0.691414
0.758767
0.580549
0.722408
0.662804
0.668764
0.670552
0.696778
0.710487
0.602603
0.686646
0.601411
0.795722
0.704527
0.521541
0.630617
0.780821
0.694990
0.744462
0.751615
0.702739
0.600815
0.899434
0.648499
0.756979
0.777841
0.687838
0.803471
0.700951
0.826716
0.843406
0.771880
0.747442
0.720620
0.867844
0.820756
0.907779
0.840425
0.811815
0.839829
0.911951
0.883937
0.921488
0.876784
1.089573
1.031756
0.979900
1.058578
1.204610
1.051426
1.151562
1.200438
1.348853
1.450777
1.844764
4.345775
23.373961
59.203506
151.282549
266.663432
468.040705
620.692968
784.446597
845.212936
806.260705
696.758032
499.433875
352.220535
196.935534
111.083984
43.432713
18.562675
6.103516
4.507899
3.953576
3.470778
3.710985
3.298521
3.217459
3.173947
2.883673
3.475547
4.606843
6.600618
10.525584
14.745593
22.460818
28.816462
36.701560
40.812492
44.089556
44.399500
40.989518
34.881830
29.774904
23.031831
17.569661
12.138486
8.824468
5.416870
3.908873
2.772808
##ZVALUE=380
0.625849
0.613928
0.672936
0.607967
0.579953
0.553727
0.525713
0.641942
0.558496
0.595450
0.734925
0.615716
0.680685
0.678897
0.693798
0.550747
0.468493
0.692606
0.600815
0.499487
0.552535
0.598431
0.588894
0.632405
0.656843
0.679493
0.738502
0.666976
0.783801
0.772476
0.783801
0.736713
0.684857
0.817776
0.640750
0.643730
0.658631
0.733733
0.665784
0.808835
0.801682
0.630617
0.742674
0.926852
0.691414
0.795722
0.638962
0.709891
0.756979
0.776649
0.782609
1.015663
0.813603
0.894666
0.864863
0.732541
0.855923
0.872612
0.829697
0.852942
1.028776
0.858903
1.117587
1.023412
1.151562
1.167655
1.173615
1.244545
1.393557
1.485944
1.732707
2.708435
12.788773
38.500428
113.541484
210.836530
404.994488
569.425821
749.946833
828.893781
826.074481
742.094517
570.782423
426.398516
248.770714
146.768689
61.105490
27.871728
8.556843
4.485846
3.866553
3.424883
3.459454
3.150702
3.356934
2.896786
2.871752
3.000498
3.088713
3.750920
5.942583
8.339882
13.566613
18.505454
26.068687
33.661723
38.609505
41.926503
42.349696
39.789677
36.355853
30.311942
24.680495
17.324686
12.840629
8.572936
##ZVALUE=385
0.631809
0.514984
0.665784
0.584722
0.513792
0.620484
0.577569
0.491738
0.481606
0.625849
0.649691
0.712872
0.608563
0.605583
0.576973
0.697970
0.611544
0.554919
0.716448
0.568628
0.579953
0.739694
0.693798
0.781417
0.557899
0.608563
0.771880
0.696778
0.618696
0.668764
0.710487
0.692606
0.677705
0.780821
0.842810
0.628829
0.826716
0.908971
0.749826
0.852942
0.644922
0.806451
0.683665
0.958443
1.009703
0.816584
0.794530
0.730753
0.786781
0.651479
0.810623
0.772476
0.872612
0.880957
0.895858
0.935793
0.881553
0.878572
0.934601
0.845790
0.864863
0.991821
1.006722
1.065731
1.100898
1.110435
1.038909
1.190901
1.272559
1.161695
1.547933
1.478791
1.457930
1.845956
5.596876
19.194484
72.345734
152.782798
317.632556
473.883748
678.792596
780.535936
825.948715
785.945654
646.800995
511.313677
323.168635
204.429626
93.262792
45.970678
15.012622
6.136894
3.713965
3.254414
3.409982
3.122687
3.202558
2.905726
2.802610
2.747774
2.727509
2.909899
3.556609
4.565716
7.226467
10.605454
16.380548
22.856593
28.258562
32.474995
37.333965
38.487911
37.838817
35.439730
29.641986
23.479462
##ZVALUE=390
0.704527
0.491738
0.462532
0.560880
0.721812
0.590682
0.524521
0.472665
0.454783
0.474453
0.501871
0.673532
0.613928
0.759959
0.531673
0.666976
0.535846
0.537634
0.700951
0.639558
0.607967
0.531673
0.594854
0.564456
0.655651
0.694990
0.496507
0.599623
0.587702
0.722408
0.669956
0.757575
0.819564
0.785589
0.890493
0.859499
0.835657
0.770688
0.977516
0.846982
0.823736
0.819564
1.046658
0.783801
0.782609
0.876784
0.802875
0.907779
0.879765
0.971556
0.781417
0.926852
0.933409
0.884533
0.927448
0.905991
0.792742
0.898838
0.916719
0.952482
0.852942
0.928640
0.769496
0.945926
1.024604
1.020432
1.157522
1.034737
1.069903
1.360774
1.184940
1.336932
1.447797
1.418591
1.495481
1.501441
2.784729
10.750890
49.079657
110.949874
252.051950
390.671492
579.153895
711.271763
814.210773
820.044875
723.354816
600.510836
406.840444
273.890495
140.706897
71.667433
24.593472
9.642839
4.003644
3.768802
3.296733
3.415942
3.351569
3.213882
3.234744
3.126860
2.925992
2.780557
2.647638
2.985597
3.969669
6.371737
9.034872
13.254881
17.448664
24.291873
28.619766
34.148693
36.775470
36.445856
##ZVALUE=395
0.811815
0.569820
0.590682
0.621676
0.674725
0.539422
0.639558
0.529885
0.431538
0.468493
0.579953
0.691414
0.563860
0.554919
0.675917
0.558496
0.543594
0.566840
0.596642
0.605583
0.615716
0.697970
0.592470
0.681877
0.669956
0.683665
0.711679
0.787973
0.573993
0.634789
0.740886
0.521541
0.719428
0.678897
0.816584
0.816584
0.870824
0.904799
1.031756
0.932813
0.905991
1.106858
0.970960
0.970960
0.862479
0.941753
1.209974
1.016855
1.017451
0.951886
0.964999
0.792742
0.852942
0.972748
0.955462
0.853539
1.094937
0.887513
0.993609
1.070499
0.995994
0.970960
0.894666
0.859499
0.879765
0.810623
1.046658
1.039505
1.058578
1.179576
1.207590
1.276731
1.266599
1.246929
1.342893
1.378655
1.501441
1.580715
1.965761
5.905628
31.358600
76.126456
179.075003
299.394727
498.477817
645.212531
798.359513
841.296911
794.379711
685.305595
500.904918
346.415639
183.544755
98.628998
36.560893
15.917420
5.413890
3.840923
3.601909
3.579855
3.620982
3.429651
3.497601
3.161430
3.116727
2.873540
2.718568
2.595782
2.823472
3.715754
4.732609
7.303953
10.483861
15.673637
20.269752
26.500821
##ZVALUE=400
0.696778
0.697970
0.693798
0.545979
0.588894
0.591874
0.598431
0.581741
0.632405
0.582933
0.699759
0.425577
0.571609
0.619888
0.492930
0.527501
0.559688
0.356436
0.600815
0.537634
0.618696
0.556707
0.629425
0.651479
0.811815
0.533462
0.639558
0.614524
0.551939
0.736713
0.645518
0.576973
0.692606
0.800490
0.667572
0.858903
0.849962
0.673532
0.901818
0.915527
0.862479
1.004934
0.910759
0.942945
1.053810
0.991821
0.852942
1.097918
0.933409
0.808835
0.880957
1.015663
1.033545
1.003742
0.935793
0.916719
0.913739
0.707507
0.910759
0.970960
0.992417
0.890493
1.040697
1.035929
0.949502
1.006722
1.033545
1.151562
1.024604
1.048446
1.183748
1.038909
1.156926
1.323819
1.281500
1.293421
1.353621
1.448989
1.476407
1.556873
1.633763
3.148913
15.630722
43.467879
122.034550
220.953822
404.999852
556.136966
737.036467
817.802548
813.193917
730.036497
552.636981
402.344465
225.693583
134.231448
58.436990
26.645660
8.272529
4.417896
3.453493
3.352761
3.452897
3.552437
3.680587
3.515482
3.307462
3.174543
3.025532
2.776980
2.555847
2.545714
2.817512
4.135966
5.675554
9.684563
##END
