##TITLE=9-1
##FORMAT=SPECTACLE-ASCII V-1.2
##DATA TYPE=ULTRAVIOLET SPECTRUM
##SECOND TYPE=ULTRAVIOLET SPECTRUM
##DATE=04/11/18
##TIME=11:35:52
##SPECTROMETER/DATA SYSTEM=SPECTACLE
##XUNITS=NM EM
##YUNITS=ENERGY
##YFACTOR=1
##FIRSTX=220
##LASTX=450
##NPOINTS=116
##3DDATA=Equidistant
##ZUNITS=NM EX
##FIRSTZ=210
##LASTZ=400
##ZPOINTS=39
##XYDATA=(Y..Y)
##ZVALUE=210
14.855862
14.374852
13.390779
11.924505
11.212826
10.445714
9.461641
7.219911
7.412434
5.967617
4.311800
3.289580
3.717542
2.711415
3.101826
3.128648
2.494454
2.914667
3.750920
3.670454
4.106760
3.784895
3.578663
3.850460
3.498793
4.022717
4.337430
4.547834
5.198717
4.497766
4.200935
4.815459
5.692840
5.820990
5.867481
5.582571
6.060600
6.479621
6.572604
6.002784
6.439686
6.200671
6.365776
6.101727
6.488562
6.127954
5.925894
7.511973
6.837845
7.253885
7.582903
6.877780
7.051826
7.487535
8.171797
7.809997
8.278489
8.168817
6.871819
8.084774
7.586479
6.594658
6.550550
7.287860
7.152557
6.881952
6.941557
6.936789
8.660555
8.820891
9.786487
10.580420
13.218522
12.896657
14.046431
13.814569
14.523864
12.525916
13.055801
12.749434
12.061596
11.143684
9.193420
8.737445
7.270575
8.160472
6.288886
6.598830
6.896853
7.675886
10.705590
11.667609
16.107559
17.765760
25.622845
27.786493
35.027862
35.129786
41.751862
46.514869
49.347878
46.750903
49.833655
46.454668
45.451522
44.109821
39.491653
35.967827
31.983852
31.261444
23.285747
20.294785
16.878843
14.641881
12.608767
12.750626
##ZVALUE=215
41.322708
41.882992
31.532645
28.054714
22.004843
19.800663
17.385483
16.469955
15.364885
13.499856
12.132525
10.176897
6.562471
6.381869
4.203916
3.408790
3.884435
3.115535
3.452897
3.219843
3.435612
3.355742
3.565550
3.965497
4.542470
4.853606
4.036427
4.390478
3.915429
4.927516
4.956722
5.710721
5.623698
5.425811
6.290674
6.686449
6.871819
6.629825
7.982850
7.471442
6.597638
7.909536
7.935762
7.549524
8.079410
8.884668
8.496642
8.243918
8.610487
9.879470
8.858442
8.713603
8.964539
9.648800
8.249879
10.848641
9.489655
9.617805
9.910464
9.151697
9.511709
9.646416
9.203553
8.367896
9.496808
8.635521
8.866787
9.192824
9.144545
9.927750
11.317730
12.114644
12.665987
12.692809
12.264848
13.597608
13.423562
14.768839
13.392568
12.549758
11.200905
10.679960
10.385513
8.359551
8.348823
6.732941
7.344484
5.847812
6.236434
5.698800
5.137920
5.827546
5.570650
6.276965
8.448958
12.736917
15.547872
21.021962
24.709702
33.049583
38.171411
48.917532
53.003430
61.691999
66.549778
71.794987
74.209571
72.778463
74.687600
69.905519
65.759420
59.018731
56.496859
45.999885
40.102601
34.018755
##ZVALUE=220
83.565712
86.517930
83.610415
74.150562
65.540671
47.787428
37.475824
31.339526
25.587678
24.468899
27.391911
24.484992
21.250844
16.663671
15.335679
11.058450
8.011460
6.093979
4.603863
3.618598
3.361702
4.468560
4.388690
4.076958
4.606843
5.332828
4.605651
4.912615
5.356669
6.030798
5.222559
5.810857
7.272959
6.728768
7.430911
7.005930
7.137656
8.524656
7.657409
9.093881
8.295774
8.600950
8.707643
8.236766
9.062886
8.726716
9.084940
9.992719
9.492636
9.941459
11.704564
11.001825
12.547970
12.084842
12.828708
12.754798
11.004806
11.320710
12.089610
12.298822
10.972619
11.903644
11.584759
11.898875
10.704994
10.746717
10.041595
11.460781
11.516809
10.342598
12.497902
13.131499
13.360977
13.524890
13.928413
14.893413
15.201569
13.928413
13.066530
13.789535
12.147427
11.775494
11.198521
10.385513
9.838939
8.182526
7.816553
7.788539
6.578565
6.446838
6.217957
5.964637
5.928874
6.347895
6.117821
5.799532
5.618930
6.300807
6.766915
8.487701
12.795925
18.097758
26.602745
33.838749
46.002865
55.133700
67.295432
79.192519
85.560679
98.662972
103.715658
113.153458
108.355880
108.497739
106.440783
102.047920
##ZVALUE=225
102.357864
107.551813
126.470923
136.173964
136.899948
125.139952
108.686686
80.090761
60.303807
45.901537
41.477680
35.657883
41.523576
38.110614
36.449432
32.927990
27.797818
21.288991
16.378760
9.521842
6.658435
5.192757
4.449487
4.102588
4.145503
4.523993
4.509687
4.939437
4.861951
5.108714
6.903410
6.999969
7.277727
6.902814
8.707643
9.511709
8.363724
8.869767
8.997917
9.025931
9.822845
10.187626
10.219812
10.120869
9.591579
11.078715
9.246469
10.445714
11.965632
11.765957
13.750792
14.204979
14.908910
14.348626
15.286803
14.647841
14.101863
14.801621
14.531612
15.485883
12.848973
13.125539
13.914704
14.719963
12.401938
12.381673
14.349818
13.370514
13.243556
13.952851
13.626814
14.267564
14.342666
13.642907
14.751554
14.508963
15.621781
13.804436
13.296604
13.271570
11.228919
11.471510
10.420680
10.959506
8.680820
9.376407
7.723570
7.460713
7.577538
7.737875
7.008910
6.100535
6.510615
6.687641
6.258488
6.109476
6.025434
7.002950
6.182790
6.627440
5.577803
6.110668
7.627606
7.992983
12.868643
14.961958
25.440454
37.667751
48.264861
62.916875
78.074932
91.472864
104.284883
129.385591
137.404799
154.196620
##ZVALUE=230
69.421530
71.842670
120.816827
156.413913
188.960433
221.627951
231.340528
211.318731
183.160901
135.419965
104.978681
76.053739
58.675408
56.305528
54.883957
60.364604
61.847568
57.307482
48.082471
38.693547
26.527643
18.881559
13.084412
8.637905
5.976558
5.162954
5.865693
6.360412
6.138682
5.705953
6.196499
6.266832
7.420778
7.291436
7.041693
7.137656
7.885695
8.254647
9.047985
9.789467
8.975863
9.033680
10.432601
10.702610
11.275411
11.229515
10.828972
11.281967
11.653900
12.641549
12.807846
15.130639
14.366508
13.426542
15.750527
14.597774
15.234947
12.867451
13.586879
15.737414
15.446544
13.736486
14.368892
13.813972
12.807846
14.045835
14.110804
12.781620
14.127493
13.432503
15.324950
13.871789
16.038418
14.053583
16.569495
14.797449
15.428662
16.006827
15.117526
14.429688
12.505651
11.856556
10.769963
10.350943
10.828972
9.361506
9.275675
9.117723
8.708835
7.194877
7.687807
8.132458
6.850958
8.280873
7.097721
8.108616
6.986856
7.148981
7.495880
7.572770
6.904602
7.562637
7.580519
7.378459
6.266832
7.033944
7.184744
9.032488
9.140968
14.188886
19.386411
30.201674
42.299628
62.860847
83.449483
110.599995
##ZVALUE=235
21.119714
21.415949
49.164891
88.301897
143.162608
212.018490
267.531872
334.885716
354.949832
343.296528
303.838849
228.126645
173.069835
112.472773
88.862777
80.151558
79.803467
85.456967
87.303519
85.017681
80.865622
63.546896
53.285956
38.147569
24.103522
14.827847
10.363460
7.864833
5.729795
6.746650
6.557703
7.824898
7.571578
7.094741
7.271767
6.994605
8.603930
8.030534
8.750558
8.782744
9.055734
9.417534
9.919405
9.477735
11.451840
10.845661
10.543466
10.764599
11.162758
11.889935
11.193752
11.480451
13.072491
12.726784
13.161898
12.594461
12.003779
12.610555
12.272000
11.756420
12.892485
14.013648
13.036728
11.674762
13.986826
13.238788
11.861920
12.847781
14.105439
13.760924
14.358759
14.593601
15.782714
17.160773
17.283559
17.185807
15.187860
16.031861
14.820695
14.537573
13.623834
12.969971
11.523962
10.537505
10.966659
10.215640
10.471940
10.258555
10.048747
9.535551
9.024739
9.665489
8.649826
7.865429
8.772612
8.618832
8.418560
8.513927
8.451939
8.440614
8.722544
8.472800
8.310676
8.609891
8.464456
8.278489
8.413792
8.328557
8.975863
7.993579
8.460879
8.845925
9.327531
9.951591
15.820861
25.603771
##ZVALUE=240
2.985597
2.869964
8.253455
20.751953
45.262575
105.086565
173.848867
295.147896
371.892452
467.205644
512.663722
493.973494
452.855825
357.790589
284.548998
186.509490
135.013461
104.074478
94.181895
101.633668
113.927722
117.646456
115.548968
105.710626
79.983473
65.916777
47.160983
32.708645
19.234419
12.695789
8.410811
7.458925
7.092953
7.953644
8.042455
7.819533
7.900000
8.307695
9.008646
8.838773
9.268522
9.269714
9.417534
9.455681
10.807514
10.678768
10.571480
11.144876
10.292530
10.686517
11.819601
11.292696
10.603666
12.163520
11.572838
11.506677
11.984706
12.502670
12.364984
12.284517
11.388659
13.009906
12.594461
12.413859
12.750626
13.042688
12.892485
12.536645
12.079477
14.314651
14.686584
14.464855
16.293526
15.138984
16.503930
17.726421
16.026497
15.301704
14.791489
14.978647
14.817715
13.075471
12.989640
12.330413
11.708736
10.847449
10.377765
11.443496
10.228753
10.689497
10.164976
9.805560
10.353923
8.797646
8.853674
9.315610
9.482503
9.604692
10.445714
9.672642
9.675622
9.549856
9.029508
8.631945
8.843541
9.123683
9.114742
9.201765
8.396506
9.136796
9.277463
9.344816
8.672476
8.574724
9.487867
8.268952
##ZVALUE=245
2.042651
2.088547
2.585649
2.516508
4.084706
15.155673
34.389496
90.550780
158.899426
272.783637
375.638008
506.659746
576.933622
597.480536
559.766889
472.962856
373.014808
252.207518
178.164840
116.331577
100.950599
102.422833
112.908483
123.090744
131.222606
126.488805
114.233494
98.432899
70.845485
53.520799
33.982992
24.627447
13.487935
9.650588
8.626580
7.804632
8.440614
8.095503
7.922649
9.474754
9.038448
8.130670
9.564757
9.580851
10.275841
9.235740
9.919405
10.056496
9.892583
10.765791
10.750890
9.882450
9.539723
10.204911
10.210872
10.720491
10.227561
9.950995
9.897947
9.704828
10.250807
10.064840
10.750890
10.543466
10.850430
10.924935
10.559559
11.126995
10.821819
12.594461
12.266636
13.272762
13.254881
14.476776
14.039874
13.341904
13.835430
13.808608
12.775660
12.323856
11.498928
12.730956
11.224747
10.592937
11.114478
10.457635
9.559989
9.040833
9.552836
9.254813
8.371472
8.446574
8.731484
8.358955
8.747578
8.923411
7.779598
8.533597
8.053780
7.783771
8.118749
8.635521
7.641912
7.902980
8.151531
8.419752
8.877516
8.335710
8.710623
7.100701
8.602738
8.004904
7.983446
7.527471
7.348657
7.456541
##ZVALUE=250
1.807809
2.022982
1.875758
2.059937
1.758933
2.397895
2.461672
9.881854
24.066567
68.523884
132.369995
255.873799
370.137691
525.531769
605.591536
671.570897
667.056441
588.365793
491.979718
339.826941
240.614414
144.304633
105.807781
94.327927
102.360845
121.185780
133.066773
139.767528
131.865740
123.917460
104.053617
79.306960
54.807663
37.488937
22.344589
14.171600
9.834766
8.572936
8.756518
8.509755
9.462833
9.648800
8.890629
9.352565
9.923577
8.976460
10.729432
9.694695
9.328723
10.141730
10.412931
10.164976
9.888411
10.185838
9.518862
11.064410
10.415912
9.781718
9.670854
9.282827
9.853840
9.024739
9.481907
9.551644
9.247661
10.807514
9.034872
9.105802
9.690523
9.999871
11.582971
11.218786
11.701584
11.564493
11.748672
11.884570
10.530949
10.943413
9.859800
9.838939
9.755492
9.044409
8.165836
8.914471
8.597970
7.348657
6.888509
7.422566
7.766485
6.997585
7.307529
7.738471
6.919503
6.709695
6.398559
6.840825
7.018447
6.784797
7.107854
6.715655
7.013679
7.686615
6.729960
6.675720
7.157922
6.914735
6.960630
7.309914
7.632971
6.653666
7.053614
7.048845
7.708669
6.401539
6.539822
6.671548
##ZVALUE=255
2.068877
1.716614
1.928806
1.609921
1.570582
1.964569
1.562834
2.161860
2.070665
5.638599
15.328526
51.034689
106.053948
220.714808
324.508548
499.981642
622.970462
729.375482
758.950710
708.040595
619.681478
457.697511
316.902995
204.817653
114.790797
89.657903
88.808537
103.617907
128.487945
138.938427
146.990418
141.532421
126.826763
109.760761
80.623627
57.848692
36.263466
23.083687
14.837980
11.819601
9.967685
9.289980
9.882450
11.059642
10.427833
10.166764
10.819435
10.313988
10.127425
10.552406
10.369420
10.801554
10.896921
10.233521
10.693669
10.821819
10.812879
9.846687
10.467768
10.093451
9.844899
9.575486
9.230971
8.844733
9.059906
9.087920
9.246469
9.759665
9.519458
9.057522
10.122657
10.386705
10.741949
10.585785
9.015799
10.383725
9.752512
9.122491
9.050965
8.659959
8.076429
7.690787
7.555485
7.628798
7.177591
6.402731
6.616712
6.997585
6.450415
6.077886
6.260872
6.303787
5.925894
6.003976
6.437898
5.926490
6.008744
6.279945
5.808473
5.872846
5.713701
5.415678
5.998611
6.000996
5.777478
6.100535
6.794930
5.474687
5.572438
5.916953
6.001592
6.155968
6.205440
6.006956
6.044507
5.536675
##ZVALUE=260
1.628995
1.642704
1.234412
1.501441
1.543760
1.779795
1.880527
1.981854
1.823902
1.909733
1.964569
3.450513
8.774996
33.445954
70.801973
166.654587
278.182626
454.047918
600.245595
762.283802
838.873982
822.205544
743.301511
569.659472
418.056846
251.040459
163.555741
109.599829
80.148578
80.824494
106.285810
127.996802
148.559809
154.791474
149.599910
138.510466
111.637712
88.661909
57.922602
42.047501
26.364923
20.674467
14.465451
12.292862
11.882782
10.743737
11.532903
11.197925
12.310743
11.703968
12.656450
11.989474
11.925697
11.891723
11.817813
12.049675
11.761785
11.902452
11.438727
12.002587
10.566711
11.293888
10.258555
10.608435
9.850860
9.854436
9.882450
9.261966
9.397864
9.657741
9.767413
9.798408
10.398626
9.477735
9.376407
9.490848
8.338690
9.301901
8.036494
7.955432
7.206798
6.780624
6.852746
6.359816
6.338954
6.514788
6.504655
5.984902
5.905628
5.665421
5.329847
5.345941
5.616546
5.694628
5.326867
5.225539
5.510449
5.455613
5.413890
5.456805
5.492568
5.706549
5.663633
5.339980
5.733967
5.103946
4.819632
5.248785
5.683899
5.171895
5.399585
5.173683
5.394816
5.565882
5.426407
4.509687
##ZVALUE=265
1.370907
1.458526
1.597404
1.617670
1.636744
1.681447
1.720786
1.602769
1.591444
1.734495
1.840591
1.877546
2.045631
2.408624
4.786849
22.741556
50.592422
131.689906
228.324533
425.866842
585.380793
775.215030
877.533555
913.473964
833.538771
717.226863
534.505844
381.115675
208.321810
132.919550
80.064535
71.494579
86.728930
110.609531
137.966871
151.015520
159.628987
156.033635
137.171745
115.553737
84.536672
66.841841
42.412877
30.872822
20.471811
16.524792
14.646649
14.409423
13.740659
14.024973
14.076829
14.161468
13.628602
13.414621
13.356805
13.227463
13.681650
13.045669
12.774467
11.778474
12.454987
11.984706
11.407733
11.394620
10.911822
10.095835
9.496808
10.128617
9.698868
9.211898
10.107756
9.965897
9.602904
9.532571
9.701848
9.548664
8.948445
8.509755
8.265972
8.093715
7.056594
7.256866
6.764531
6.457567
6.278753
6.082654
6.170869
5.541444
5.621910
5.524755
5.375743
5.626678
5.149841
5.269647
5.225539
5.602837
5.088449
5.299449
5.080700
4.774928
5.350709
4.902482
5.108714
5.012751
5.320907
5.145669
5.207658
5.027652
5.156994
4.724860
4.944801
5.229712
4.873872
4.943609
4.818439
4.493594
##ZVALUE=270
1.341701
1.460910
1.404881
1.609921
1.330972
1.583695
1.552701
1.359582
1.429915
1.648664
1.562834
1.779795
1.671910
1.802444
1.707673
1.925826
2.798438
10.289550
30.186772
93.373656
176.894665
351.477861
520.551801
750.823021
888.758898
970.767736
952.733755
873.034596
687.583685
517.659783
310.657620
192.402601
98.891854
64.944625
65.611601
84.856749
115.242600
137.950778
158.516765
164.977908
158.728957
147.014856
119.737983
95.704794
68.067908
49.280524
31.965971
24.767518
19.488931
17.014742
16.777515
16.378760
15.924573
15.641451
15.092492
15.791655
14.577508
14.538765
13.731718
13.860464
14.450550
13.126731
12.382865
12.208819
11.776686
12.070537
11.400580
11.370778
10.137558
10.916591
10.435581
10.852814
10.509491
9.968877
10.619760
9.585619
9.708405
9.044409
8.850694
7.878542
7.678866
7.745624
7.085800
6.661415
6.075501
6.443858
6.079674
5.936623
5.931854
5.902648
5.691648
6.000996
5.812645
6.098747
5.195737
5.189776
4.765987
5.459785
5.142689
5.418658
5.176663
5.195737
5.422831
4.669428
5.002618
5.263686
5.130768
5.209446
5.063415
4.862547
4.741549
4.910827
5.417466
4.381537
4.190803
4.688501
##ZVALUE=275
1.243949
1.163483
1.333952
1.200438
1.269579
1.377463
1.293421
1.135468
1.505613
1.239777
1.399517
1.393557
1.408458
1.570582
1.663566
1.635551
1.874566
1.855493
2.033710
5.044937
17.488599
63.461661
135.942698
296.278000
461.312532
691.571832
831.733942
951.530933
1008.889675
960.990787
798.221827
635.066032
410.082936
257.564783
130.296946
75.809956
54.065585
63.033700
88.533759
113.433003
141.305923
156.657696
165.088773
159.044862
140.773654
121.646523
93.276501
71.497560
48.544407
35.040975
25.529861
20.958781
18.107891
16.578436
15.947819
15.827417
15.148520
15.028715
15.289783
15.047789
15.345812
14.118552
13.869405
12.851954
13.019443
12.201667
12.205839
11.272430
11.408925
11.374950
10.867715
10.444522
10.742545
10.729432
10.081530
10.021925
9.852648
9.697676
8.603930
8.572936
7.823706
8.351803
7.019639
6.955862
7.027984
6.659627
6.521940
6.338954
6.155968
5.763769
6.063581
5.561709
5.651712
5.524755
5.619526
5.605817
5.524755
5.512834
5.192757
5.103946
5.545616
5.035996
5.042553
5.475879
4.909635
5.053878
5.199909
4.854798
4.878640
5.157590
4.868507
4.828572
4.639626
5.114675
4.727840
4.297495
##ZVALUE=280
1.133680
1.282692
1.209974
1.150966
1.220703
1.193881
1.219511
1.117587
1.262426
1.228452
1.396537
1.338720
1.525879
1.472831
1.652837
1.547933
1.535416
1.606941
1.629591
2.000928
1.877546
3.081560
10.293722
46.434999
102.430582
229.464769
365.191698
584.175587
763.633847
903.973579
1014.723778
1009.164453
885.036588
728.845596
484.130979
324.137807
166.896582
92.174411
49.713850
46.933889
59.753656
87.889433
110.558867
139.563680
154.711604
161.896944
154.962540
140.307546
117.102861
96.781850
68.309903
51.229596
32.994747
24.851561
18.539429
16.435981
14.855862
15.103817
14.702678
13.623834
14.177561
13.825893
13.400912
12.331605
12.380481
12.117624
11.724830
11.785626
11.182427
10.702610
10.548830
10.899901
10.634661
10.773540
9.233952
10.102987
9.316802
9.150505
8.737445
8.831620
8.020997
8.643866
7.774830
7.606745
7.734895
6.978512
6.919503
6.591678
6.360412
6.505847
6.190538
6.098747
5.781651
5.795956
5.565882
5.454421
5.822778
5.238652
5.312562
5.752444
5.532503
5.386472
5.185604
5.132556
5.512834
5.323887
5.311966
5.195737
5.451441
5.104542
4.700422
5.120635
4.663467
4.714727
4.708767
4.544854
##ZVALUE=285
1.081824
1.224875
1.266599
1.106858
1.081824
1.097918
1.200438
1.149774
1.129508
1.217723
1.179576
1.223683
1.189709
0.994802
1.309514
1.407862
1.435876
1.366735
1.449585
1.699924
1.671910
1.729727
1.910925
2.396703
4.839897
23.225546
59.287548
121.617913
263.410807
419.214964
657.964945
829.941630
994.748473
1015.712023
973.268747
837.182999
611.876845
423.926711
227.819681
131.712556
60.033798
38.662553
41.449666
55.653453
81.905723
103.984475
130.095482
144.728422
155.097842
152.665973
137.265921
119.858980
89.623928
69.157481
46.502948
33.336878
21.394491
16.567707
13.547540
12.563467
11.930466
11.571646
11.134744
11.431575
11.124611
10.929704
10.417700
10.709763
10.544658
10.101795
10.400414
10.720491
10.419488
9.938478
9.940863
9.412766
9.204745
8.706450
8.323789
8.635521
7.907748
7.701516
7.810593
7.375479
7.626414
7.086992
6.966591
6.738901
6.517768
6.385446
6.566644
6.074905
6.428957
6.541610
5.886555
6.470680
5.972981
5.896688
5.902648
5.826950
6.023645
5.964637
5.743504
5.485415
5.516410
5.860925
5.240440
5.468726
5.132556
5.377531
5.053878
4.579425
4.996657
5.066991
4.657507
4.768968
##ZVALUE=290
0.967979
0.904799
0.995994
1.088977
0.995994
1.120567
1.129508
1.003742
0.989437
1.010895
1.123548
1.208782
1.077652
1.098514
1.300573
1.276731
1.329780
1.287460
1.295805
1.422763
1.653433
1.329780
1.483560
1.796484
1.948476
1.946688
2.613664
8.009672
36.197901
83.457828
194.901824
327.889919
558.550954
750.574470
955.895782
1015.712023
1015.388966
918.734670
702.733994
526.319742
308.550000
184.516907
80.931783
42.459965
27.948618
34.618974
52.579641
70.768595
100.840926
120.688677
140.937567
149.817467
144.814849
133.747458
111.382604
88.806748
60.429573
44.771433
28.219819
19.943714
13.981462
11.428595
10.509491
10.068417
9.268522
9.396672
9.235740
9.042621
9.017587
9.033680
9.563565
9.488463
9.628534
9.503961
8.982420
9.128451
8.624792
8.289814
8.301735
8.307695
7.954836
7.730722
7.501841
7.445812
7.276535
7.036924
7.002950
6.976724
6.855726
6.424785
6.564856
6.364584
6.424785
6.109476
6.188750
6.299615
6.181598
6.065965
6.130934
5.893707
5.613565
6.043911
5.996823
5.624890
5.513430
5.723834
5.738735
5.518794
5.576611
5.182624
5.109906
5.427599
5.468726
5.323887
4.966855
5.105734
##ZVALUE=295
0.893474
0.906587
1.013875
1.049638
0.986457
1.016855
1.170635
1.120567
1.062751
1.060963
1.121759
1.048446
1.218915
1.062751
0.918508
1.055598
1.091957
1.218915
1.184940
1.323819
1.291633
1.407862
1.428723
1.502633
1.606941
1.589656
1.858473
1.975894
2.359748
3.473759
17.067790
47.347546
133.565664
252.932906
472.362638
656.479597
885.588527
1008.379459
1015.712619
996.643901
810.608864
635.156035
396.612883
247.300863
110.705495
55.164695
24.206638
21.491647
32.080412
45.785904
69.121718
89.698434
115.564466
130.317807
140.243769
138.842463
123.080611
106.308460
81.106424
61.673522
40.355921
28.540492
17.117858
12.408495
8.868575
8.135438
7.630587
7.872581
7.756948
7.747412
8.207560
8.036494
7.971525
8.217692
8.101463
8.051991
7.810593
7.640719
7.433891
7.402897
7.648468
7.350445
7.194877
7.204413
6.848574
6.694794
6.517768
7.038713
6.562471
6.572604
6.496906
6.652474
6.212592
6.197691
6.231666
5.878806
6.074905
5.947948
5.973577
6.214976
5.813837
5.917549
5.885959
5.637407
5.595684
5.327463
5.777478
5.514622
5.755424
5.487800
5.264878
5.175471
5.057454
4.978776
5.097985
5.098581
##ZVALUE=300
0.993609
0.942945
0.882745
1.062751
0.959635
0.899434
1.095533
0.858903
0.979900
0.979900
1.127720
0.858903
0.993609
0.865459
0.924468
1.088977
1.239777
1.089573
1.151562
1.289845
1.164675
1.218915
1.330972
1.174808
1.426935
1.391768
1.239777
1.701713
1.623631
1.924634
2.090931
2.188683
7.410645
26.413798
90.501904
175.412893
359.876752
542.975664
788.555741
941.693783
1015.712619
1015.712619
931.234956
711.614490
522.271991
287.532806
172.414780
77.916980
36.646724
20.140409
18.299818
26.154518
42.276978
59.100986
84.257722
102.481842
122.889876
130.368471
129.017830
121.032000
100.145936
82.529783
57.701468
42.559505
25.870800
17.329454
10.794997
8.652806
7.211566
6.636977
7.062554
6.564856
7.102489
7.074475
7.309914
7.233620
7.324815
6.910563
6.994605
6.922483
6.814599
6.818771
6.515980
6.676912
6.909966
6.632805
6.577969
6.244779
6.204844
6.470680
5.680919
5.820990
5.654693
5.458593
5.866885
5.825758
5.621910
5.809665
5.610585
5.268455
5.616546
5.583763
5.848408
5.672574
5.535483
5.497932
5.344748
5.349517
5.556941
5.215406
5.176663
5.288720
4.914999
5.103946
4.931688
4.660487
##ZVALUE=305
0.967979
1.018643
0.935793
0.953674
1.000762
0.960827
0.829697
0.920892
1.054406
1.004934
0.954866
1.072884
1.157522
0.856519
1.019835
0.927448
1.081824
1.117587
1.131892
1.159906
1.199841
1.104474
1.147985
1.217723
1.139641
1.246929
1.252890
1.300573
1.443624
1.560450
1.615882
1.902580
1.877546
2.178550
4.271865
14.964938
58.290958
127.688646
285.897851
443.839431
687.124729
860.069990
1008.940935
1015.712023
950.488448
811.387897
583.819747
407.168865
212.608576
118.967891
46.582818
21.525621
13.319850
16.377568
25.704503
38.158894
60.428977
78.024864
99.549890
114.141703
124.659538
122.879744
111.719966
97.353458
75.380802
57.036877
37.285686
25.601983
15.418530
10.360479
7.854700
6.865859
6.769896
6.701946
6.621480
5.971789
6.304979
6.139874
6.242990
6.222725
6.060600
6.188750
6.186962
6.111860
6.276965
5.988479
5.751848
5.921721
5.562901
5.876422
5.458593
5.481839
5.640984
5.571842
5.702972
5.507469
5.571842
5.205870
5.358458
5.492568
5.041957
5.314946
5.563498
5.580783
5.123615
5.370975
5.236864
5.070567
5.134940
5.061626
5.241632
5.148649
4.997849
4.741549
4.828572
4.592538
##ZVALUE=310
0.817776
0.944734
0.773668
0.883937
0.791550
1.002550
0.935793
0.830889
0.667572
0.898838
0.962615
0.876784
0.811815
0.920892
0.882745
0.925660
1.068711
0.972748
0.902414
1.012683
1.084805
1.134872
1.218915
1.129508
1.162887
1.262426
1.183748
1.226664
1.279712
1.361966
1.501441
1.389980
1.553893
1.687407
1.656413
1.929998
2.604723
6.739497
33.018589
78.746676
193.265676
325.560570
557.783842
737.974644
946.357846
1015.712619
1008.239985
911.082029
697.059035
516.533852
298.526883
178.108811
75.535774
35.407543
14.238954
11.249781
15.088916
21.301508
34.914613
49.066544
71.384907
87.932944
107.503533
115.678906
116.255879
109.783411
92.501640
76.425672
52.598715
37.827492
23.117661
16.068816
10.519624
7.912517
6.391406
5.957484
5.519986
5.274415
5.539656
5.446672
5.242825
5.223751
5.421638
5.153418
5.165935
5.066991
5.117655
5.416870
5.022883
5.094409
4.943609
4.867911
5.123615
5.091429
4.837513
4.931688
4.906654
4.727840
4.832745
4.765987
5.067587
4.878640
4.824996
4.498959
4.921556
4.653931
4.683733
4.820824
4.530549
4.685521
4.538894
4.610419
4.592538
4.589558
4.379749
4.362464
##ZVALUE=315
0.825524
0.770688
0.867844
0.877976
0.803471
0.938773
0.916719
0.934601
0.876784
0.953674
0.966787
0.892878
0.894666
0.913739
0.863671
0.984669
0.891685
0.957847
0.981688
0.799894
1.036525
1.003742
1.092553
1.050830
0.952482
0.960827
1.121759
1.166463
1.123548
1.106858
1.125932
1.330972
1.310706
1.278520
1.537800
1.503825
1.582503
1.707673
2.157688
3.462434
12.347698
53.294897
120.332837
272.951722
436.184406
692.592859
851.964951
995.957851
1015.712023
981.366634
802.745819
626.216531
386.394858
236.184001
105.156898
50.903559
17.847419
10.165572
10.147691
13.197660
20.198822
29.900670
46.336651
62.669516
84.157586
98.108649
108.210444
109.357834
100.059509
88.414550
68.813562
52.658916
34.463406
23.878813
14.851689
10.010600
6.743670
5.568862
4.881620
4.712939
4.641414
4.618764
4.595518
4.614592
4.463792
4.439950
4.475713
4.291534
4.636645
4.535913
4.240870
4.531741
4.457831
4.221797
4.291534
4.557967
4.097819
4.076958
4.324913
4.168749
4.102588
4.216433
4.570484
4.324913
4.163980
4.168749
4.095435
4.108548
4.243851
4.127622
4.030466
4.038811
3.846884
4.033446
3.884435
3.776550
##ZVALUE=320
0.828505
0.788569
0.924468
0.850558
0.823736
0.839829
0.833869
0.854731
0.800490
0.844598
0.884533
0.964999
0.881553
0.845790
0.922680
0.970960
0.985861
0.931621
0.955462
0.889897
1.009703
1.047850
0.943542
0.908971
0.805855
1.215935
1.120567
1.105666
1.079440
1.129508
0.959635
1.112819
1.240969
1.212955
1.478791
1.317859
1.590848
1.411438
1.603961
1.583695
2.059937
2.275705
7.843971
25.535822
89.886785
179.870725
357.697606
532.587767
771.842599
919.736028
1015.712619
1012.317538
876.616836
716.351867
485.215783
310.590863
144.696832
74.556470
27.938485
13.194680
8.312464
8.930564
11.948943
17.017722
28.770566
40.337443
59.763789
75.250864
94.187856
102.426410
102.596879
96.947551
82.458854
67.586899
47.905445
34.968853
20.751953
14.212728
8.362532
6.091595
4.604459
4.062653
3.902912
3.950000
3.684759
3.752708
3.705621
3.817677
3.678799
3.786683
3.836751
3.767610
3.864765
3.819466
3.868937
3.790855
3.721714
3.717542
3.843904
3.550649
3.584623
3.664494
3.801584
3.603697
3.668666
3.668666
3.529787
3.782511
3.855824
3.877878
3.843904
3.760457
3.676414
3.625751
3.365874
3.650784
##ZVALUE=325
0.810623
0.919700
0.838637
0.960827
0.806451
0.732541
0.807643
0.759959
0.760555
0.827909
0.837445
0.749826
0.873804
0.805855
0.891685
0.987649
0.931621
1.014471
0.952482
0.882745
1.031756
0.823736
0.791550
0.907779
0.914931
0.852942
0.970960
0.943542
0.962615
1.080632
0.989437
1.047850
1.168847
1.186728
1.314878
1.336932
1.289845
1.344681
1.541972
1.275539
1.581907
1.642704
1.791716
1.971722
4.440546
16.524792
61.753988
130.259991
289.319754
451.282859
691.335797
849.787593
995.651484
1015.712023
923.735499
778.006911
529.560447
365.607738
193.152428
105.888844
39.552450
17.474890
8.204579
7.199645
7.953644
10.550618
17.047524
24.866462
41.173697
56.558847
74.994564
86.741447
96.372962
96.830726
88.542700
78.706741
61.021447
46.057701
29.634833
20.046830
11.651516
8.288622
5.178452
4.300475
3.939867
3.717542
3.662705
3.604889
3.364682
3.411770
3.419518
3.304482
3.254414
3.322959
3.213882
3.452897
3.364682
3.520846
3.438592
3.297925
3.349781
3.378987
3.646612
3.423691
3.645420
3.564954
3.397465
3.417730
3.360510
3.464818
3.490448
3.358722
3.150702
3.214478
3.359914
3.113747
##ZVALUE=330
0.850558
0.668764
0.743866
0.740886
0.746846
0.791550
0.847578
0.738502
0.933409
0.717640
0.779629
0.731945
0.754595
0.680685
0.690818
0.871420
0.970960
0.707507
0.808835
0.916719
0.983477
0.850558
0.979900
0.858903
0.857711
0.883937
0.960827
1.003742
1.024604
0.990629
1.093745
1.057982
1.133680
0.957847
1.096725
1.069903
1.037717
1.258850
1.334548
1.290441
1.352429
1.440644
1.381636
1.373887
1.845956
1.828671
2.386570
9.172559
30.299425
77.801943
197.461843
333.839655
564.856529
746.407509
929.729939
993.746519
949.833989
832.761526
617.168546
449.838638
249.768496
140.568614
57.443976
25.904775
9.078979
6.945729
6.463528
7.136464
10.790825
15.325546
25.012493
36.525726
53.825974
67.085624
81.428885
88.275671
89.188814
83.637834
69.142580
57.158470
39.715767
29.010773
18.338561
12.648702
7.301569
5.457997
4.051924
3.716946
3.300905
3.058910
3.256798
3.238916
3.015995
2.983809
3.007650
3.049970
3.032684
3.119707
3.122687
2.992749
3.149509
3.196597
3.222823
3.240705
3.206730
3.203750
3.229976
3.118515
3.152490
3.174543
3.035665
2.958775
2.995729
2.893806
3.013611
2.823472
##ZVALUE=335
0.584722
0.872612
0.787973
0.711679
0.866652
0.831485
0.730753
0.795722
0.868440
0.803471
0.738502
0.639558
0.792742
0.753999
0.765920
0.805855
0.708699
0.678897
0.721812
0.821948
0.922680
1.043677
1.027584
0.906587
0.958443
0.878572
0.939965
0.821948
1.011491
0.919700
0.722408
0.904799
1.026988
0.934601
0.975728
1.086593
1.054406
1.107454
1.268983
1.134872
1.139641
1.202822
1.171827
1.316667
1.392961
1.364946
1.726747
1.787543
1.939535
3.589988
18.432736
51.860809
145.152807
259.379745
470.234752
656.535625
866.178870
959.616899
963.284969
883.643627
693.197846
521.055460
306.470990
186.501741
82.181692
38.105845
12.561679
7.445812
6.285906
6.340742
7.209778
9.515882
15.020967
22.300482
35.269856
47.319531
63.820481
74.986815
82.851648
82.824826
77.120662
67.983866
52.423477
42.253733
27.970672
19.663572
11.990666
8.450747
5.121827
3.847480
3.244877
2.847910
2.893806
2.923608
2.889633
2.619624
2.887845
2.754927
2.818704
2.981424
2.943873
2.960563
3.032684
2.897978
3.130436
3.002882
2.690554
3.111959
2.928972
2.917647
2.791882
2.928972
2.955794
2.878904
2.883673
2.829432
##ZVALUE=340
0.702739
0.704527
0.706911
0.755787
0.723600
0.781417
0.670552
0.676513
0.620484
0.778437
0.789762
0.598431
0.784993
0.781417
0.758767
0.698566
0.749826
0.894666
0.963807
0.830889
0.792742
0.890493
0.940561
0.805855
0.821948
0.697970
0.778437
0.880957
0.876784
0.891685
0.966787
0.970960
0.802875
0.971556
1.024604
1.065731
1.019835
1.023412
0.996590
0.913739
0.894666
1.107454
1.154542
1.156926
1.237988
1.367927
1.353621
1.458526
1.556873
1.657605
1.625419
2.096891
8.746982
30.654669
102.150440
198.822618
389.770865
566.046834
781.343579
901.553631
959.751010
914.254785
755.739808
594.914556
369.317532
228.619576
105.905533
51.162839
15.426874
8.198619
6.256700
5.628467
5.907416
6.585717
9.113550
12.971759
21.857619
32.584667
46.984553
58.531761
71.814656
76.975822
76.860785
72.620511
62.369704
52.781701
38.620830
28.676987
18.355846
12.429953
7.592440
5.357862
3.770590
3.385544
3.165603
2.854466
2.701879
2.810955
2.736449
2.733469
2.809763
2.797842
2.517700
2.730489
2.737641
2.863407
2.932549
2.665520
2.653599
3.043413
2.743602
2.601743
2.650619
2.705455
2.703667
2.368689
##ZVALUE=345
0.701547
0.684857
0.786781
0.705719
0.675917
0.765920
0.698566
0.800490
0.765920
0.781417
0.650883
0.641942
0.737906
0.799894
0.672936
0.716448
0.849962
0.708699
0.640750
0.775456
0.831485
0.656843
0.853539
0.759959
0.709891
0.854731
0.884533
0.698566
0.821948
0.912547
0.682473
0.809431
0.898838
0.829697
0.838637
1.003742
0.892878
0.893474
0.757575
1.024604
1.084805
1.025796
1.050830
0.996590
1.043677
1.114607
1.172423
1.293421
1.382828
1.289845
1.349449
1.559854
1.415610
1.797676
4.263520
15.126467
63.607693
133.254528
282.123685
438.568592
665.506721
818.066001
927.577019
927.255750
814.123750
671.322942
450.868607
296.804905
136.015415
67.872405
22.498965
10.654926
6.251931
5.909801
5.330443
5.225539
5.806684
7.898808
13.056993
19.208789
30.395985
40.290952
54.308772
63.338876
71.153641
72.282553
67.435503
61.041713
49.634576
39.230585
26.420951
18.846989
11.310577
7.805824
5.346537
3.978610
3.170967
3.195405
2.706647
2.949834
2.677441
2.798438
2.665520
2.644658
2.703667
2.536774
2.726912
2.508759
2.726912
2.665520
2.739429
2.640486
2.544522
2.491474
2.530813
2.344847
##ZVALUE=350
0.763535
0.691414
0.698566
0.603795
0.720620
0.616908
0.768900
0.745654
0.686646
0.829697
0.726581
0.695586
0.939965
0.663996
0.751615
0.875592
0.810623
0.700951
0.914931
0.642538
0.766516
0.848770
0.859499
0.724792
0.818968
0.876784
0.960827
0.871420
0.817776
0.810623
0.902414
0.904799
0.818968
0.825524
0.863671
0.884533
0.795722
0.836849
0.955462
0.860691
0.963807
1.029968
0.674725
0.942945
0.974536
1.095533
1.000762
1.113415
1.107454
1.047850
1.124740
1.149774
1.349449
1.378655
1.606941
1.757741
2.466440
7.621646
34.829974
82.737803
199.957490
336.160660
555.029511
713.281631
870.066881
911.895633
846.090913
720.881820
499.508977
338.490009
179.699659
95.858574
33.066869
13.800859
6.538630
5.647540
5.283952
4.888773
4.793406
5.383492
7.576942
10.979772
17.649531
24.758577
36.415458
45.733452
56.883693
62.785745
65.145493
63.371658
56.406856
47.425628
35.825968
27.439594
17.690659
12.497902
7.660985
5.508661
4.188418
3.547668
3.111959
2.688766
2.765656
2.594590
2.644658
2.611876
2.763867
2.563000
2.436638
2.565980
2.539754
2.435446
2.477765
2.473593
2.336502
2.441406
##ZVALUE=355
0.639558
0.712872
0.837445
0.576973
0.719428
0.650883
0.738502
0.759959
0.842810
0.776649
0.681877
0.722408
0.689626
0.626445
0.843406
0.769496
0.821948
0.786781
0.664592
0.852942
0.800490
0.753999
0.673532
0.829697
0.894666
0.829697
0.840425
0.770688
0.806451
0.689626
0.860691
0.787973
0.925660
0.872612
0.835657
0.761747
0.851750
0.825524
0.834465
0.796914
0.990629
0.844598
0.933409
0.956655
0.959635
1.005530
0.947714
1.137853
1.049638
1.075864
1.203418
1.235604
1.051426
1.380444
1.306534
1.402497
1.577735
1.680851
1.898408
3.501773
18.341541
52.441955
143.351555
251.503587
446.308851
610.906482
799.292922
874.500871
857.551694
749.660730
549.682975
399.143696
224.375725
124.166608
48.197508
20.315647
6.932616
5.580783
4.858971
4.697442
4.158616
4.290938
4.964471
6.372929
9.493828
14.135838
22.735000
30.258894
41.209459
49.102902
57.874918
59.145689
57.292581
53.003430
44.773817
36.986470
26.569963
19.405484
12.318492
8.863807
5.476475
4.196763
3.305674
3.064871
2.786517
2.667904
2.563596
2.457500
2.576709
2.510548
2.402663
2.608895
2.387762
2.595782
2.364516
2.474785
##ZVALUE=360
0.788569
0.658631
0.804663
0.677705
0.567436
0.845790
0.749826
0.670552
0.715852
0.664592
0.796914
0.807643
0.783801
0.766516
0.748634
0.740886
0.667572
0.798702
0.780821
0.801682
0.757575
0.701547
0.938773
0.847578
0.783801
0.921488
0.851750
0.825524
0.672936
0.749826
0.912547
0.889897
0.820756
0.884533
0.806451
0.774860
0.759959
0.953674
0.863671
0.829697
0.767708
0.887513
0.988841
0.926852
1.070499
1.047850
1.036525
0.984669
1.165867
1.043677
1.166463
0.981688
1.112819
1.292825
1.204610
1.192689
1.209974
1.458526
1.378655
1.626611
1.766682
2.329946
8.539557
27.094483
89.177489
171.357989
341.481566
500.669479
714.680552
820.198655
853.785872
797.368884
625.821948
470.646620
288.833976
171.948671
71.758628
31.349659
9.572506
5.700588
4.838705
4.393458
4.179478
4.138947
3.890991
4.122853
5.552769
7.515550
12.276769
17.523766
26.261806
34.640431
44.479966
50.075650
53.376555
53.293705
49.980879
44.742823
35.825968
28.599501
19.896626
14.041662
8.695722
6.142855
4.337430
3.394485
3.065467
2.687573
2.484918
2.465844
2.270937
2.237558
2.292991
2.200603
2.164841
2.242923
##ZVALUE=365
0.658631
0.729561
0.622869
0.663996
0.854731
0.544786
0.636578
0.664592
0.824928
0.653863
0.795722
0.623465
0.847578
0.647902
0.850558
0.749826
0.754595
0.686646
0.702739
0.743866
0.728965
0.817776
0.658631
0.822544
0.871420
0.753999
0.711679
0.737906
0.818968
0.861883
0.882745
0.900626
0.915527
0.748634
0.824928
0.941753
0.821948
0.824928
0.902414
0.866652
0.933409
0.926852
0.735521
0.835657
0.812411
0.814795
0.932813
0.831485
0.994802
0.913739
0.900626
1.136661
1.092553
1.178980
1.253486
1.202822
1.248717
1.195669
1.321435
1.501441
1.411438
1.430511
1.698732
1.743436
3.567934
16.989708
48.290491
136.246681
247.685909
436.142683
595.033765
760.268569
829.877853
804.469585
701.273680
507.769585
357.632637
194.065571
105.744600
39.613843
16.352534
6.139874
4.806519
4.451871
4.075766
4.012585
3.643632
3.575683
3.666878
4.574656
6.031990
10.117888
14.395714
21.351576
28.480887
37.364960
43.083429
48.153996
49.739480
47.972798
43.120980
35.197735
28.415918
19.779801
14.615655
9.452701
6.469488
4.557967
3.676414
2.813935
2.811551
2.227426
2.119541
2.066493
2.315640
1.973510
##ZVALUE=370
0.727773
0.702739
0.472665
0.614524
0.717640
0.608563
0.658631
0.655651
0.668764
0.685453
0.773668
0.717640
0.708699
0.760555
0.851750
0.792742
0.610948
0.780821
0.889897
0.767708
0.755787
0.702739
0.651479
0.681877
0.839829
0.639558
0.735521
0.738502
0.737906
0.750422
0.735521
0.740886
0.607967
0.799894
0.787973
0.932813
0.701547
0.822544
0.771880
0.865459
0.802875
0.806451
0.909567
0.825524
0.840425
0.831485
0.854731
0.916719
1.041889
1.001954
1.034737
0.903606
1.067519
0.984669
1.027584
1.028776
1.234412
1.103878
1.110435
1.103878
1.035929
1.008511
1.360774
1.401901
1.555681
1.611710
2.686977
7.413626
36.608577
89.564919
210.636854
337.525010
539.828539
684.545636
807.852745
825.295448
726.002455
590.880513
388.971567
254.839659
124.670863
63.306689
22.489429
9.506941
4.911423
4.336834
4.140735
3.853440
3.648996
3.308654
3.283620
3.289580
4.021525
5.159974
8.485913
12.238622
18.630624
25.106668
33.195615
39.272904
44.851899
46.481490
45.507550
41.450858
34.425855
28.421879
20.756721
14.368892
10.400414
6.863475
4.915595
3.306866
2.806783
2.693534
2.346635
2.027750
##ZVALUE=375
0.643730
0.693798
0.694990
0.650883
0.767708
0.644922
0.547767
0.698566
0.628829
0.832677
0.751615
0.706911
0.693798
0.758767
0.625849
0.688434
0.776649
0.635982
0.819564
0.670552
0.695586
0.724792
0.735521
0.659823
0.754595
0.799894
0.657439
0.840425
0.799894
0.812411
0.760555
0.834465
0.789762
0.807643
0.726581
0.729561
0.759959
0.791550
0.779629
0.930429
0.731945
0.829697
0.660419
0.761747
0.794530
0.769496
0.898838
0.881553
0.933409
1.012683
0.918508
1.007915
0.831485
0.922680
0.838637
0.961423
0.814795
0.919700
1.038909
0.892878
1.073480
1.024604
1.174808
1.144409
1.155734
1.171827
1.381636
1.535416
1.959801
4.112720
21.562576
53.080916
139.562488
251.080990
444.700718
594.015718
753.178596
814.126730
772.089958
663.328767
465.197563
327.197909
180.431008
101.103783
40.040612
17.084479
5.924702
4.302859
3.591776
3.587604
3.372431
3.345609
3.221631
3.051758
3.078580
3.301501
4.380941
6.452799
10.473728
14.709830
21.875501
27.824640
35.384893
40.737987
43.685436
43.820739
40.525794
34.676790
29.533505
22.925735
17.254949
11.830926
8.841753
5.471706
3.983974
2.832413
##ZVALUE=380
0.628829
0.739694
0.428557
0.651479
0.734925
0.620484
0.730753
0.766516
0.622869
0.625849
0.749826
0.638962
0.741482
0.749826
0.769496
0.685453
0.694990
0.569820
0.727773
0.751615
0.767708
0.715852
0.683665
0.769496
0.792742
0.692606
0.748634
0.958443
0.900626
0.835657
0.770688
0.635982
0.816584
0.761747
0.885725
0.817776
0.732541
0.690818
0.764728
0.899434
0.711679
0.846982
0.862479
0.809431
0.773668
0.890493
0.886917
0.781417
0.805855
0.847578
0.835657
0.698566
0.795722
0.797510
0.830889
0.858903
0.793934
0.957847
1.013875
0.994802
1.086593
0.915527
0.896454
1.025796
1.107454
1.071692
1.065731
1.284480
1.449585
1.623631
1.875758
2.576709
11.028647
33.179522
101.499557
193.674564
376.679897
536.509752
714.728832
792.235732
791.847706
709.756017
545.400977
406.876802
235.109925
138.362646
57.923794
26.346445
8.192658
4.544854
3.788471
3.507733
3.552437
3.260970
3.353953
3.173947
2.897978
2.865791
3.301501
3.755689
6.054640
8.532405
13.075471
18.271804
26.077628
33.327937
37.651658
41.325688
41.382909
39.632916
36.054850
29.729605
24.638772
17.436743
13.052821
8.478761
##ZVALUE=385
0.607967
0.570416
0.547767
0.477433
0.648499
0.596642
0.633597
0.655651
0.638962
0.615716
0.600815
0.786781
0.622869
0.650883
0.578761
0.850558
0.635982
0.695586
0.870824
0.616908
0.787973
0.756979
0.685453
0.542998
0.796914
0.662804
0.790954
0.671744
0.647902
0.878572
0.637770
0.653863
0.852942
0.716448
0.690818
0.808835
0.764728
0.874996
0.741482
0.941753
0.773668
0.924468
0.827909
0.817776
0.765920
0.730753
0.707507
0.915527
0.716448
0.833869
0.865459
0.787973
0.847578
0.882745
1.006722
0.785589
0.929832
1.071692
0.885725
1.017451
0.924468
1.143813
0.937581
0.951886
0.976920
1.141429
0.962615
1.212955
1.163483
1.264811
1.405478
1.502633
1.433492
2.018809
4.515648
21.751523
57.048798
153.497458
269.011855
471.701622
620.327592
763.560534
796.073675
746.966600
645.614862
466.996431
327.345729
176.698565
99.763870
40.462613
16.759634
5.410910
3.837943
3.503561
3.284812
3.230572
3.161430
2.828836
2.921820
2.990961
2.766848
3.061891
3.357530
4.920959
7.004738
11.478662
15.399456
21.827817
26.797652
33.018589
35.975575
38.021803
37.701726
34.663677
30.458570
24.511814
##ZVALUE=390
0.573993
0.633597
0.570416
0.696778
0.649691
0.700951
0.588894
0.589490
0.686646
0.702739
0.708699
0.751615
0.650883
0.633597
0.430942
0.630617
0.648499
0.733733
0.483990
0.637770
0.599623
0.682473
0.637770
0.642538
0.772476
0.641942
0.656843
0.728965
0.641942
0.705719
0.644922
0.706911
0.739694
0.693798
0.828505
0.844598
0.768900
0.921488
0.824928
0.853539
0.910759
0.966787
0.812411
0.849962
0.848770
0.920892
0.892878
0.901818
0.818968
0.951886
0.907779
0.833869
0.909567
0.979900
0.954866
0.894666
0.948906
1.002550
0.965595
0.879765
0.979900
0.871420
1.004934
0.881553
1.082420
0.979900
1.057982
1.249909
1.132488
1.280904
1.284480
1.373887
1.430511
1.401901
1.516938
1.474619
3.024936
10.964870
46.358705
101.078749
224.291682
357.812643
549.089909
677.397847
783.555508
791.011453
702.787638
583.077669
394.501686
260.563493
124.874711
63.497424
22.163987
9.258986
4.053712
3.653765
3.518462
3.284812
3.329515
3.534555
3.184676
3.073812
2.761483
2.803802
2.686977
2.977848
4.232526
6.291866
8.695722
13.098717
17.606616
23.736954
28.370619
33.406615
35.894513
36.065578
##ZVALUE=395
0.600815
0.745654
0.634789
0.666976
0.557899
0.543594
0.707507
0.635982
0.573993
0.556707
0.606775
0.559688
0.745654
0.800490
0.766516
0.639558
0.576973
0.720620
0.625849
0.783801
0.749826
0.609756
0.772476
0.628829
0.589490
0.573993
0.690818
0.741482
0.608563
0.532866
0.660419
0.691414
0.810623
0.778437
0.882745
0.937581
0.850558
0.886917
0.894666
0.901818
0.819564
1.040697
0.902414
0.955462
0.938773
0.966787
1.063943
0.994802
0.899434
1.013875
0.991821
0.913739
0.790954
0.831485
1.034737
0.928640
0.815988
0.947714
0.892878
1.035929
0.972748
0.956655
1.022816
1.032948
1.216531
1.080632
0.995994
1.072884
1.196861
1.520514
1.281500
1.379848
1.405478
1.448989
1.231432
1.405478
1.524687
1.590848
2.062917
5.889535
27.988553
68.406463
165.869594
275.736451
468.267798
614.511967
766.325593
817.713737
772.594810
667.729974
470.045805
325.374007
170.356631
93.213916
37.468672
16.217828
5.698800
3.976822
3.815889
3.725886
3.632903
3.496408
3.584623
3.277659
3.189445
2.870560
2.679825
2.726912
2.860427
3.651977
4.636645
7.138848
10.100603
15.445948
20.237565
26.344657
##ZVALUE=400
0.869632
0.770688
0.659823
0.673532
0.688434
0.606775
0.626445
0.742674
0.652671
0.660419
0.652671
0.651479
0.676513
0.631809
0.609756
0.594854
0.586510
0.811815
0.624657
0.650883
0.643730
0.717640
0.680685
0.757575
0.682473
0.682473
0.736713
0.679493
0.814795
0.711679
0.813603
0.730753
0.791550
0.674725
0.816584
0.854731
0.951886
0.868440
0.868440
0.945926
0.866652
0.922680
0.862479
0.936985
0.986457
0.855923
1.062751
0.886917
0.899434
0.934601
0.863671
0.845790
0.968575
1.011491
0.808835
0.959635
0.882745
0.949502
0.854731
1.061559
1.108646
1.014471
0.931621
0.887513
0.933409
1.006722
0.963807
1.022816
1.093745
1.281500
1.311898
1.219511
1.250505
1.337528
1.176596
1.220703
1.357794
1.295805
1.533628
1.580715
1.662970
3.150702
14.607906
39.855838
111.926794
206.036568
379.970670
525.317788
699.992776
779.863000
782.587528
705.360770
534.595847
388.776660
220.211744
129.787922
56.296587
25.908947
8.220673
4.305840
3.640652
3.443956
3.445745
3.526807
3.543496
3.547668
3.060699
3.062487
3.012419
2.684593
2.499819
2.636909
2.971888
4.171729
6.023645
9.250641
##END
