##TITLE=FQP00601
##FORMAT=SPECTACLE-ASCII V-1.2
##DATA TYPE=ULTRAVIOLET SPECTRUM
##SECOND TYPE=ULTRAVIOLET SPECTRUM
##DATE=10/03/17
##TIME=12:45:56
##SPECTROMETER/DATA SYSTEM=SPECTACLE
##XUNITS=NM EM
##YUNITS=ENERGY
##YFACTOR=1
##FIRSTX=220
##LASTX=410
##NPOINTS=96
##3DDATA=Equidistant
##ZUNITS=NM EX
##FIRSTZ=210
##LASTZ=400
##ZPOINTS=39
##XYDATA=(Y..Y)
##ZVALUE=210
3.889799
3.944635
4.327893
3.820658
4.123449
4.224777
4.437566
5.502701
5.616546
6.747842
7.416606
7.022619
6.642938
7.621646
8.562803
9.373426
10.534525
10.332465
11.083484
12.016892
11.875629
12.804866
14.625788
16.187429
15.486479
17.453432
18.013716
17.254949
18.180609
18.610954
20.403862
20.181537
22.127628
20.556450
20.915866
22.603869
23.851991
24.312735
23.119450
24.953485
23.543835
23.614764
24.804473
25.827885
26.171803
27.120709
27.069449
26.400685
29.072762
28.622746
28.698444
30.183792
29.047728
30.171871
32.066703
32.184720
31.707883
31.659603
32.685995
30.956864
31.935573
32.221675
33.615828
32.855868
32.889843
38.370490
38.410425
41.967630
51.772594
58.134794
72.406530
82.226992
100.739598
114.754438
129.612684
143.822432
157.477856
164.257884
167.136788
162.981749
155.069828
144.068003
121.436715
105.337501
80.174804
63.632727
49.572587
41.148663
35.838485
34.216642
32.106638
29.624701
31.232834
31.339526
31.050444
30.172467
##ZVALUE=215
18.238425
18.768907
16.954541
12.834668
10.830760
7.975698
7.025599
8.176565
7.702708
8.241534
9.248853
9.697676
8.568764
8.623600
9.168983
8.693933
8.997917
9.824634
9.797812
10.633469
12.704730
12.698770
14.583468
14.213920
15.170574
15.937686
16.410947
16.791821
18.080473
17.974973
19.547939
20.403862
20.509958
21.345615
20.084977
20.736456
21.414757
22.531748
23.947954
22.771955
24.002790
24.585724
23.665428
24.351478
25.819540
26.371479
26.563406
27.581453
27.017593
28.627515
27.100444
28.331876
28.950572
27.972460
29.067993
28.272867
29.057860
29.632449
29.272437
29.967427
30.390620
31.313896
28.772950
28.565526
31.653643
34.156442
35.170913
35.258532
43.393970
48.840642
59.402585
68.449974
79.335570
90.221763
102.661848
110.336542
118.936896
124.538541
123.785734
121.316910
113.816857
106.077790
89.717507
75.399876
61.730742
52.455664
41.914582
34.369826
30.042529
27.826428
27.059913
28.118491
24.298429
28.268695
26.300550
26.139617
##ZVALUE=220
59.675574
64.337850
68.919659
70.225596
64.690709
51.192641
39.341450
25.061965
17.568469
15.547872
13.653636
14.974475
14.869571
13.632774
13.394952
12.011528
12.057424
11.196733
10.810494
9.411573
10.530949
10.864735
12.381673
14.386773
13.680458
15.407801
15.285611
16.164780
16.886592
18.704534
18.717647
19.334555
20.997524
19.327998
19.126534
20.076632
20.340681
22.637844
21.427870
20.339489
23.152828
22.640824
22.157431
24.452806
23.191571
24.309754
24.764538
25.308728
21.351576
23.662448
25.141835
24.387836
25.204420
26.103854
24.549961
25.405884
27.040839
25.834441
25.943518
26.014447
25.563836
26.132464
27.544498
26.197433
28.519630
27.981997
28.323531
31.632781
33.196807
40.749907
45.148730
52.664876
59.057474
68.305731
76.502562
84.185004
88.532567
91.186762
93.900561
92.395544
90.382695
79.886913
72.876811
61.762929
51.703453
42.114854
36.451817
30.776858
28.455853
25.518537
23.886561
24.850965
22.823811
23.334622
23.794770
21.813512
##ZVALUE=225
96.637607
106.924772
142.305493
187.138915
197.568536
201.810598
179.568529
139.374733
99.126697
67.769885
36.213994
28.690696
25.623441
28.227568
28.173923
25.712848
23.953915
22.993684
18.729568
15.223622
12.829900
11.929870
12.056828
12.188554
12.547970
13.480783
14.546514
14.667511
15.382767
16.525984
18.032789
16.896725
17.789602
20.414591
19.603968
20.107627
20.458698
19.963980
21.577477
21.003485
22.158623
23.215413
22.437572
21.773577
22.425652
22.770762
22.146702
23.380518
25.121570
25.791526
24.565458
25.363564
26.222467
25.364757
27.788877
26.362538
26.068687
26.129484
26.728511
26.352406
28.305650
28.304458
29.610991
27.949810
27.783513
29.882789
30.827522
35.202503
36.306977
39.702654
43.062568
48.939586
53.759813
58.818460
65.263510
64.564943
73.290467
66.958666
69.033504
67.012906
63.435435
56.084991
51.470995
45.539737
42.034984
37.437677
34.899712
28.989911
28.908849
27.164817
27.299523
24.460554
26.215911
25.466681
25.758743
24.465919
##ZVALUE=230
89.475513
98.498464
158.777833
266.188979
348.012447
420.965552
448.345542
428.562760
370.837450
304.588675
193.346739
126.552582
70.765615
51.893592
47.100782
47.707558
52.027702
51.349998
46.244860
39.398670
31.395555
22.961497
16.648769
14.041662
12.575984
11.975765
11.751652
14.032722
15.952587
14.689565
14.473796
15.704632
15.347600
16.792417
17.812848
18.962622
18.055439
19.160509
19.886494
20.485520
20.302534
22.902489
22.834539
23.497939
24.100542
28.422475
27.105808
26.380420
28.903484
30.220747
31.840801
31.788945
32.441616
33.137798
33.421516
33.337474
36.468506
37.373900
35.970807
35.522580
37.000775
39.284825
37.561655
38.403869
38.979650
39.669871
41.302443
41.602850
43.995976
47.165751
51.370859
52.405596
59.783459
65.437555
69.981813
69.191456
71.575642
70.687532
70.777535
65.952539
64.266920
61.997771
53.567886
51.907897
45.999885
43.091774
39.130449
37.715435
36.805868
37.425756
35.244823
34.758449
36.309958
33.750534
31.761527
33.457875
##ZVALUE=235
27.326941
33.365488
71.071982
171.293616
280.978680
452.203751
592.948794
743.253827
802.380443
789.102912
687.301755
543.156862
351.462960
231.923461
137.683749
97.272992
76.720715
80.340505
83.718896
82.888603
77.326894
70.882440
54.819584
40.956736
30.638576
24.007559
18.158555
15.860796
13.443828
14.652610
14.473796
15.085936
15.563965
16.463995
17.271638
17.368793
19.133687
19.568801
19.252896
22.092462
26.742816
25.663972
28.853416
29.029846
31.211972
34.949780
34.988523
37.176609
40.594935
45.152903
43.217540
48.095584
47.844648
46.753883
51.119924
49.756765
48.782825
50.466657
51.111579
51.602721
52.965879
55.283904
56.156516
56.435466
57.578683
60.531497
57.487488
62.979460
63.849688
69.008470
72.590709
75.243711
78.433752
83.605647
83.414912
87.432861
83.241463
88.658929
85.377693
78.874826
79.599619
74.917674
70.006847
65.532923
62.487721
59.258938
58.007836
56.448579
51.966906
48.350692
51.490664
49.031973
49.426556
48.066974
47.807693
46.244860
##ZVALUE=240
4.226565
4.836917
14.702678
41.085482
102.524757
257.444978
438.984632
758.651495
993.763804
1015.918851
1015.918851
1015.918851
1015.918851
855.216980
622.166991
368.024707
233.427882
138.291717
104.687810
104.521513
112.307668
119.444728
113.573670
104.290843
85.011721
73.341727
52.748919
41.465759
29.809475
24.215579
18.457770
18.748641
17.932653
18.291473
19.013882
19.563437
20.950437
23.236871
24.021864
25.977492
30.033588
33.635497
36.292672
41.771531
44.094920
50.368905
52.604675
53.888559
59.714913
60.403943
63.585639
67.687631
66.517591
70.209503
69.885850
70.436001
70.161819
71.710944
73.145628
74.454546
76.004863
74.299574
76.602697
77.208877
78.322887
80.976486
78.561902
80.794692
82.006454
89.480877
89.681745
93.494654
92.572570
98.159909
100.845695
105.155706
105.718970
105.372667
103.454590
100.302696
97.142458
91.839433
86.247921
81.252456
79.698563
71.510673
71.716905
70.301890
69.835782
67.943931
65.302849
63.407421
61.790943
61.768889
59.146881
56.770444
##ZVALUE=245
3.224611
3.013611
3.231764
3.937483
9.159446
26.645660
101.549625
216.300488
493.790507
764.907002
1015.681624
1015.681624
1015.681624
1015.681624
1015.681624
1015.681624
971.325040
641.912818
435.923934
236.323476
154.610872
119.614601
120.469928
128.980875
132.752657
128.548741
116.452575
100.662708
83.615780
63.235760
47.196746
32.116771
26.266575
19.820929
19.460917
20.522475
20.659566
21.932721
25.951862
28.145909
31.016469
34.659505
38.991570
45.221448
48.786998
55.211782
56.144595
63.802600
67.001581
69.354773
71.829557
76.485872
76.185465
83.163977
82.122684
81.427693
82.063675
81.587434
80.551505
80.191493
79.331994
79.391003
82.788467
79.004765
80.446601
81.826448
79.708695
80.262423
79.350471
81.105828
89.053512
86.315870
90.603828
91.452599
92.587471
94.004869
91.190934
89.939833
89.829564
86.936951
81.508756
84.038973
78.550577
74.918866
72.340965
69.682598
69.845915
66.397786
64.422488
62.793493
63.450933
60.440898
59.028864
57.789683
57.142973
56.317449
##ZVALUE=250
2.587438
2.877712
2.440810
2.936721
3.065467
3.415942
4.373789
20.194650
58.484674
129.273534
329.468846
562.476516
927.820802
1015.681624
1015.681624
1015.681624
1015.681624
1015.681624
1015.681624
927.814841
638.991594
337.639451
209.286809
124.533772
113.897920
128.914714
140.671730
145.123601
137.861967
126.365423
106.331706
81.280470
63.731670
44.841766
34.230947
25.653839
22.792816
23.525953
24.213791
27.062893
31.536818
35.732985
41.726828
45.757890
48.486590
56.506991
59.452653
64.440966
68.906546
70.295930
76.227784
77.848434
79.127550
81.667900
79.442859
80.971718
79.851747
83.812475
80.750585
80.117583
78.631639
78.530908
74.043870
74.884892
73.084831
72.712898
72.745681
72.037578
71.412921
73.195696
72.416663
73.035955
75.372458
74.372888
77.606440
76.505542
77.350736
75.424910
74.034929
70.822835
69.183707
69.704652
65.486431
64.636469
65.358877
59.874654
59.646964
57.520866
58.314800
56.042671
56.161880
54.559708
52.866936
52.006841
49.550533
49.419999
##ZVALUE=255
2.064705
2.128482
2.116561
2.367496
2.615452
2.744794
2.820492
3.210902
3.780723
12.456775
56.566000
124.162436
242.746472
507.316589
765.673518
1015.718579
1015.718579
1015.718579
1015.718579
1015.718579
1015.718579
1015.718579
740.935802
444.358587
209.213495
128.691792
103.369951
111.923814
130.814910
143.471956
151.993632
148.930550
135.503411
112.050772
90.038776
64.607859
50.235987
35.754442
30.595660
28.935671
30.291677
34.630895
38.171411
42.489767
46.808720
50.961971
54.637790
59.372783
62.811971
66.358447
69.225430
71.953535
74.491501
71.267486
73.337555
72.584748
72.446465
72.767735
72.051883
72.474480
67.831874
66.522956
69.258809
66.568851
62.681437
62.603951
59.828758
61.018467
62.197447
60.557723
60.617924
60.725808
65.400600
64.787865
65.451860
64.477921
63.863993
62.846541
62.473416
60.534477
59.393644
58.656931
57.862997
56.778789
55.110455
52.687526
53.332448
51.923990
51.223636
50.832629
49.793720
50.664544
49.212575
47.240853
47.381520
45.112967
##ZVALUE=260
2.259612
2.099872
2.022982
1.989603
2.344847
2.217889
2.371669
2.842546
2.719760
2.858639
3.144741
5.812645
35.188794
85.215569
213.550925
400.181413
776.337981
1015.681624
1015.681624
1015.681624
1015.681624
1015.681624
1015.681624
1015.681624
967.664719
551.593900
335.731506
159.670711
105.788708
94.016790
110.718012
135.029554
151.751637
160.155892
151.143670
137.275457
120.443702
91.199875
74.459910
54.995418
44.593811
38.934946
37.997961
38.999915
41.449666
45.054555
47.659874
52.260756
52.864552
56.451559
56.202412
58.389902
58.558583
58.376789
59.919953
59.941411
60.065985
59.342980
57.881474
55.990815
56.882501
54.985881
52.747726
53.002834
49.678683
50.082803
51.372647
50.140619
49.612522
50.817728
53.091645
51.406622
54.046512
52.885413
55.050850
53.748488
55.425763
54.514408
53.484440
53.357482
53.249598
52.563548
49.110651
48.056841
46.972632
47.890544
45.446754
45.138001
45.772791
44.786930
44.679642
44.217706
42.211413
42.674541
43.587685
43.232441
##ZVALUE=265
1.891851
1.869798
1.995564
2.170801
2.216697
2.284646
2.516508
2.407432
2.608895
2.603531
2.907515
2.840757
3.103614
4.334450
12.128949
64.794421
154.482722
359.875560
613.625646
1015.845537
1015.845537
1015.845537
1015.845537
1015.845537
1015.845537
1015.845537
1015.845537
748.826861
391.929746
228.857994
112.843513
83.346963
90.365410
119.124651
138.181448
157.185793
163.992643
155.113935
142.512918
121.865869
100.792646
77.639818
62.063932
49.233437
44.185519
40.321946
41.889548
42.494535
43.508410
46.252608
47.774911
47.831535
48.608780
48.472881
49.528480
47.904849
46.687722
47.181845
46.510696
46.690702
44.433475
45.096874
43.773651
44.850707
44.749975
43.375492
43.763518
42.928457
42.642951
44.978857
45.243502
46.637654
47.433972
48.035979
47.426820
48.177838
47.533512
48.402548
47.909617
47.982931
47.005415
45.260787
45.954585
44.848919
41.759610
41.631460
42.021871
42.418838
42.259693
39.362907
39.381981
39.900541
39.707422
39.847493
38.673878
39.416552
##ZVALUE=270
1.665950
1.717806
1.631975
1.773834
1.981854
1.836419
1.983643
2.079606
2.117753
2.221465
2.268553
2.450943
2.512932
2.900958
2.922416
3.222823
5.823970
21.355748
118.719935
288.218856
548.313856
1004.194021
1015.681624
1015.681624
1015.681624
1015.681624
1015.681624
1015.681624
1015.681624
956.084728
626.673698
298.682451
164.502859
84.882975
73.020458
94.702840
116.500854
144.125819
161.159635
168.536901
164.943933
151.195526
130.811930
103.692412
84.425807
64.582825
53.775907
44.429898
41.530728
41.345954
41.873455
42.498708
42.003989
42.108893
42.293668
42.446852
42.162538
41.805506
41.297674
39.767623
40.585995
40.714741
39.321780
40.344000
39.788485
40.134788
39.807558
40.283799
39.947629
41.625500
42.586923
43.529868
45.179725
46.468973
45.653582
46.879649
46.199560
46.034455
45.234561
44.966936
43.830872
42.388439
42.475462
41.532516
40.556788
40.532947
40.249825
39.296746
39.419532
38.284659
38.340688
37.407875
37.228465
37.021637
36.499500
36.438704
##ZVALUE=275
1.730919
1.693964
1.812577
1.612902
1.784563
1.815557
1.664758
2.119541
1.879930
2.012849
1.947880
2.117753
2.163649
2.345443
2.550483
2.870560
2.949834
3.448725
3.822446
10.490417
44.755936
138.884783
406.572819
745.782852
1015.681624
1015.681624
1015.681624
1015.681624
1015.681624
1015.681624
1015.681624
1015.681624
855.425000
422.459841
232.706666
100.684762
67.012906
71.632862
90.290904
120.650530
143.147707
163.160563
170.002580
166.846514
154.288411
125.828981
107.190609
84.931850
68.556666
52.756667
47.359467
42.263865
39.819479
39.387941
39.317608
38.421750
38.135648
38.563609
38.641691
38.135648
38.742423
38.199425
38.298965
38.878918
37.937760
39.421916
38.691759
39.643645
39.751530
41.719675
41.035414
42.031407
43.575764
45.266747
44.678450
44.094920
44.495463
45.406818
44.942498
43.832660
43.340921
41.669607
40.946603
41.372776
39.313436
38.023591
38.128495
37.850738
37.155747
37.312508
36.745667
36.921501
35.652518
35.873652
34.741759
35.308599
##ZVALUE=280
1.453757
1.476407
1.447797
1.473427
1.256466
1.558661
1.468658
1.621842
1.772642
1.840591
1.871586
1.918674
1.800656
2.172589
2.045631
1.965761
2.154708
2.407432
2.798438
2.627969
3.022552
3.979802
22.712946
72.351694
225.599408
418.238640
808.116794
1015.681624
1015.681624
1015.681624
1015.681624
1015.681624
1015.681624
1015.681624
1015.123725
593.743920
344.143510
150.345564
77.733994
55.785775
67.571998
96.289515
119.372606
147.054791
163.882971
167.784691
164.700747
149.494410
131.202936
104.109645
86.474419
65.764785
53.895712
43.271780
40.295720
36.833882
36.512613
38.003922
38.219690
36.923885
37.556887
37.994981
37.446618
38.507581
38.766861
40.389895
39.696693
39.995909
39.829612
40.126443
40.446520
41.887760
41.945577
42.601824
42.500496
43.054819
42.737722
41.892529
41.210651
41.157603
40.619969
39.879680
39.755702
40.133595
39.875507
37.962794
37.651658
37.730932
35.908818
36.827922
36.410689
34.583807
34.959912
33.430457
33.909678
34.287572
##ZVALUE=285
1.322627
1.348853
1.422763
1.464486
1.202822
1.439452
1.238585
1.463890
1.587868
1.451969
1.503825
1.504421
1.676679
1.566410
1.741648
1.807809
1.810789
1.826882
2.028942
2.129674
2.485514
2.590418
3.268719
3.157854
9.656549
33.479929
111.929774
231.486559
507.001877
821.606517
1015.678644
1015.678644
1015.678644
1015.678644
1015.678644
1015.678644
1015.678644
815.013647
506.814718
238.762498
120.617747
54.274797
47.655702
65.142512
86.772442
116.225481
136.994720
155.788660
161.285996
159.809589
147.397518
126.692653
107.745528
81.092715
65.027475
48.216581
41.806698
37.463903
35.053492
34.660697
34.781694
35.963655
34.784675
36.166906
37.097931
36.697984
37.622452
37.110448
38.874745
38.846731
40.426850
40.561557
40.988922
41.669607
40.969849
41.535497
41.731596
40.060878
41.200519
40.096641
38.691759
39.993525
38.821697
38.768649
38.061738
38.123727
38.019419
37.006736
36.922693
36.151409
35.597682
35.302639
35.357475
34.569502
33.613443
33.079982
##ZVALUE=290
1.176596
1.200438
1.208782
1.105666
1.053810
1.274943
1.247525
1.227856
1.383424
1.290441
1.496673
1.381636
1.544952
1.636744
1.482964
1.483560
1.503825
1.767874
1.673698
2.092719
2.049804
2.056956
2.401471
2.310872
2.626777
3.122687
4.187822
13.913512
61.815977
144.061446
346.632600
617.893934
964.601636
1015.681624
1015.681624
1015.681624
1015.681624
1015.681624
1015.681624
954.824686
622.544885
306.220651
156.198740
60.641766
38.237572
43.695569
57.582855
83.199739
104.393959
130.645633
147.419572
159.241557
156.726837
143.866539
126.352906
100.687742
80.184937
59.262514
49.464703
40.140748
35.948753
33.677816
32.649636
32.886863
34.437776
34.228563
34.077764
35.429001
37.023425
37.784576
38.010478
39.070845
39.234757
39.530993
39.260983
39.772987
40.169954
39.242506
39.400458
39.950609
38.859844
39.181709
38.483739
37.834644
38.733482
37.725568
37.248731
36.861897
36.873817
35.769939
35.329461
34.398437
33.923984
33.919811
33.233762
33.388734
##ZVALUE=295
1.060963
1.143813
1.090765
1.129508
1.054406
1.223683
1.200438
1.376867
1.238585
1.500845
1.314878
1.313686
1.341701
1.317859
1.210570
1.541972
1.337528
1.422763
1.620650
1.503825
1.782775
1.979470
1.933575
2.085567
2.434850
2.329946
2.803802
2.740622
3.416538
6.811619
26.442409
108.848810
235.611796
531.209707
849.404931
1015.681624
1015.681624
1015.681624
1015.681624
1015.681624
1015.681624
1015.681624
768.485069
399.941802
213.550925
79.500675
39.961934
29.301643
37.371516
56.786537
74.700713
102.568865
121.657848
141.703486
149.969459
147.841573
136.770606
116.478801
96.602440
75.050592
60.691833
45.315623
38.036704
32.959580
30.601621
30.461550
30.097961
31.868815
32.589436
33.164620
33.920407
35.269856
34.846663
36.660433
36.384463
37.332773
37.060976
37.370920
37.483573
36.772490
36.499500
37.541986
37.173629
36.357641
36.723614
37.025809
36.600828
36.118627
35.547614
34.724474
34.942627
33.868551
33.711791
33.970475
32.568574
33.011436
##ZVALUE=300
1.007915
1.081824
1.025796
1.079440
1.035929
1.125932
1.143813
1.106858
1.180768
1.219511
1.261830
1.151562
1.353621
1.158714
1.307726
1.209974
1.422763
1.284480
1.532435
1.589656
1.576543
1.654625
1.641512
1.741648
1.782775
1.832843
1.989603
2.223849
2.657771
2.793670
2.858639
3.381968
15.638471
56.663752
184.887648
348.805785
699.489713
1007.699966
1015.681624
1015.681624
1015.681624
1015.681624
1015.681624
1015.681624
926.359892
592.765808
288.411975
154.378414
56.794882
29.113889
26.762486
34.690499
52.606463
69.020987
94.018579
113.780499
134.145617
142.501593
141.359568
132.950544
115.161538
97.771883
75.092912
59.637427
44.257641
37.796497
32.866001
31.220913
31.162500
31.288862
32.518506
32.164454
33.264756
34.592748
34.797788
35.116673
35.524964
35.678744
36.423802
37.088990
36.880970
36.947727
37.078857
37.471652
36.754608
37.333965
37.212968
36.343932
35.945773
36.352873
35.446882
34.428835
33.764839
34.475923
33.453703
33.552647
##ZVALUE=305
0.925660
0.922680
1.154542
0.990629
1.079440
1.050830
1.030564
1.129508
1.080632
1.043677
1.047850
1.093745
1.036525
1.119971
1.158714
1.302958
1.200438
1.352429
1.348853
1.311898
1.560450
1.465678
1.651645
1.540780
1.716614
1.651645
1.786947
2.055764
1.971722
2.275705
2.399683
2.439618
2.909899
3.141761
8.081794
30.616522
114.340782
237.130523
517.055392
806.692839
1015.681624
1015.681624
1015.681624
1015.681624
1015.681624
1015.681624
1015.681624
770.244598
398.902893
217.586756
85.203648
39.099455
22.486448
25.401711
34.927726
46.763420
70.572495
88.121891
110.904574
124.752522
135.456920
135.383606
125.697851
112.811923
90.408921
75.374842
56.517720
46.577454
36.966801
34.191608
32.231808
32.624602
32.488704
32.926798
34.253597
35.108924
35.626888
35.745502
37.063956
37.738681
38.529634
38.368702
38.115978
38.769841
38.489699
38.751960
38.060546
37.973523
37.199855
37.493706
36.998987
36.137700
35.492778
34.883618
34.260750
34.467578
##ZVALUE=310
0.928640
0.993609
0.944734
0.781417
0.857711
1.017451
1.062751
0.943542
0.938773
0.997782
0.991821
1.018643
1.092553
1.124740
1.149774
0.983477
1.014471
1.283884
1.135468
1.169443
1.296997
1.376867
1.408458
1.449585
1.497865
1.516938
1.558661
1.521707
1.817942
1.561642
2.252460
1.961589
2.111793
2.344847
2.574921
2.845526
3.103614
16.845465
55.311918
171.665549
326.100588
651.143789
974.384546
1015.681624
1015.681624
1015.681624
1015.681624
1015.681624
1015.681624
954.514742
628.540516
308.382511
162.818432
59.402585
27.699471
20.124912
23.782849
32.480955
43.263435
63.365698
79.867840
103.428960
117.387772
127.199888
129.854679
121.691823
110.737681
92.103481
75.306892
57.372451
48.095584
40.667653
37.007928
35.095811
34.961700
35.220981
35.828948
36.058426
37.374496
38.098693
38.431883
39.362907
38.757920
39.803982
39.206743
40.026903
39.747953
39.553642
39.622784
39.043427
38.217902
37.536621
37.992597
36.717653
36.562681
36.773682
##ZVALUE=315
0.974536
1.041889
0.830889
0.835657
0.920892
0.854731
0.915527
1.026988
0.877976
0.763535
1.033545
0.763535
1.029968
1.064539
1.006722
1.006722
1.045465
0.979900
0.897646
1.180768
1.013875
1.075864
1.338720
1.232624
1.264811
1.334548
1.409650
1.592636
1.498461
1.734495
1.677871
1.698732
1.776814
1.929998
2.056956
2.183914
2.547503
2.734661
2.876520
7.839799
33.658743
138.300657
287.638903
602.656603
939.365029
1015.672684
1015.672684
1015.672684
1015.672684
1015.672684
1015.672684
1015.672684
825.554729
432.007909
232.554674
84.509850
36.525726
19.584894
18.979907
23.930669
29.811859
43.821931
57.767630
77.609420
94.788671
113.916993
122.928619
125.561953
120.250583
105.445981
92.355609
73.889494
61.817765
48.559904
42.891502
38.742423
37.259459
37.626624
37.968755
37.945509
39.371848
39.520860
39.778948
40.859580
41.044950
40.720701
40.538907
40.773749
40.728450
39.954782
39.362907
38.668513
38.087964
37.668943
37.612915
37.188530
##ZVALUE=320
0.727773
0.667572
0.742674
0.948906
0.761747
0.795722
0.804663
1.005530
0.916719
0.977516
1.074672
1.016855
0.992417
1.065731
1.017451
0.973940
1.111627
1.113415
1.080632
1.186728
1.219511
1.059771
0.995994
1.337528
1.286864
1.418591
1.453757
1.408458
1.420975
1.517534
1.406670
1.655817
1.510978
1.734495
1.802444
1.766682
2.055764
2.365708
2.506971
2.598763
2.945662
4.403591
14.145970
81.601739
205.946565
504.643917
802.821517
1015.674472
1015.674472
1015.674472
1015.674472
1015.674472
1015.674472
1015.674472
978.236794
550.251603
312.537551
130.811930
59.000850
22.298694
17.009974
18.499494
21.135807
28.956532
38.057566
55.663586
70.533752
91.319680
105.734468
118.199587
121.059418
115.677714
105.862617
89.000463
75.595975
59.388876
51.191449
44.140816
40.358901
39.451718
38.853884
39.120913
40.032864
39.898753
40.156841
40.404797
40.729642
40.584803
40.478706
40.041804
39.740801
39.758682
38.970709
38.537979
38.648844
38.147569
##ZVALUE=325
0.788569
0.835657
0.912547
0.883937
0.781417
0.895858
0.913739
0.817776
0.977516
0.969768
0.969768
0.950694
0.978708
0.898838
0.886917
0.958443
1.018643
1.065731
1.044869
1.184940
1.122952
1.215935
1.207590
1.285672
1.152754
1.333952
1.490712
1.470447
1.247525
1.471639
1.451969
1.614690
1.499653
1.582503
1.659989
1.674891
1.745820
1.839995
1.942515
2.250671
2.513528
2.618432
2.912879
3.225803
8.168817
56.864619
151.721835
384.401083
660.575628
1015.681624
1015.681624
1015.681624
1015.681624
1015.681624
1015.681624
1015.681624
1015.681624
681.445599
407.874584
179.270506
85.897446
29.358864
17.441511
16.219616
16.979575
21.718740
27.694702
39.359927
53.570867
72.499514
88.525414
105.583668
113.885999
116.679668
112.056732
99.215508
87.978840
71.380734
60.653687
50.126910
44.697523
40.609837
40.000677
39.200783
39.348602
39.999485
39.984584
40.052533
40.505528
39.514899
39.105415
38.343668
38.343668
38.199425
37.730932
37.261844
##ZVALUE=330
0.823736
0.757575
0.831485
0.788569
0.653863
0.897646
0.822544
0.890493
0.890493
0.846982
0.679493
0.912547
0.744462
0.873804
0.834465
0.973940
0.908971
0.979900
0.965595
0.984669
1.063943
1.088977
1.144409
1.118779
1.015663
1.093745
1.184940
1.143813
1.128912
1.240969
1.370907
1.498461
1.415610
1.413822
1.513958
1.546741
1.449585
1.669526
1.873970
1.723766
1.831651
2.012849
2.245903
2.621412
2.695918
2.958775
4.236698
21.199584
68.756938
222.784877
423.572659
833.413005
1015.679836
1015.679836
1015.679836
1015.679836
1015.679836
1015.679836
1015.679836
844.410658
540.656447
248.336792
127.064586
46.833754
22.212863
15.878677
16.305447
18.731952
22.218823
29.833913
38.194656
53.968430
66.963434
88.670850
101.689696
110.739470
111.191869
107.150674
98.778605
83.657503
71.796775
58.239698
51.046610
44.763684
41.732788
40.188432
38.696527
38.753748
38.221478
38.375854
37.579536
36.658645
37.598610
36.478639
36.299825
36.530495
##ZVALUE=335
0.766516
0.816584
0.766516
0.802875
0.725985
0.746846
0.792742
0.637770
0.606775
0.800490
0.889897
0.763535
0.821948
0.814795
0.877976
0.881553
0.804663
1.003742
0.951886
0.977516
0.936985
1.023412
0.955462
0.989437
1.016855
1.124740
1.166463
1.041889
1.096725
1.228452
1.055598
1.306534
1.099706
1.174808
1.332760
1.346469
1.389980
1.422763
1.485944
1.579523
1.685619
1.846552
1.806617
1.859665
1.996756
2.237558
2.450943
2.822876
3.046989
8.570552
31.686425
136.133432
279.412866
595.043898
926.926732
1015.681624
1015.681624
1015.681624
1015.681624
1015.681624
1015.681624
974.463820
667.673945
343.881845
178.122520
63.453913
29.071569
16.839504
16.325712
17.954707
19.479990
24.002790
29.047728
40.252805
51.594973
68.752766
82.908869
97.111464
104.503632
105.989575
102.145672
92.014670
81.908703
69.993734
59.956908
50.398707
44.674873
39.716959
37.639737
36.784410
35.935640
35.574436
35.141706
34.849644
34.985542
34.893751
##ZVALUE=340
0.676513
0.725985
0.646710
0.679493
0.751615
0.648499
0.760555
0.787973
0.721812
0.790954
0.801682
0.944734
0.748634
0.884533
1.006722
0.870824
0.850558
0.837445
0.760555
0.890493
0.850558
0.826716
0.981688
1.029968
0.777841
1.133680
1.001954
0.964999
0.879765
1.030564
1.015663
1.121759
1.136661
1.235604
1.259446
1.134872
1.230836
1.414418
1.321435
1.314878
1.299977
1.416802
1.578927
1.700521
1.687407
1.961589
2.080798
2.051592
2.366900
2.427697
2.915859
4.787445
18.664002
91.187954
217.192769
510.411859
822.110772
1015.684605
1015.684605
1015.684605
1015.684605
1015.684605
1015.684605
1015.684605
828.348398
425.014496
233.043432
95.905662
40.889978
18.310547
16.762614
17.384887
18.786788
20.746589
23.867488
30.650496
38.603544
51.421523
64.686537
80.956817
92.359781
100.079775
101.250410
96.695423
90.912580
78.216791
67.695975
55.625439
47.871470
41.311979
38.064718
34.756660
33.437610
32.916665
32.897592
32.149553
##ZVALUE=345
0.707507
0.850558
0.616908
0.604987
0.870824
0.698566
0.834465
0.863671
0.615716
0.764728
0.766516
0.822544
0.853539
0.780821
0.879765
0.862479
0.836849
0.870824
0.830889
0.893474
0.865459
0.900626
0.949502
0.928640
0.856519
0.859499
1.042485
0.930429
0.926852
0.933409
1.077652
1.083612
1.010895
1.096725
1.144409
1.155734
1.286864
1.106858
1.251698
1.429915
1.539588
1.397729
1.436472
1.436472
1.570582
1.799464
1.608729
1.695752
1.786947
2.034903
2.181530
2.260804
2.695918
2.971888
6.300807
38.570762
109.461546
292.222500
517.851710
945.096612
1015.743613
1015.743613
1015.743613
1015.743613
1015.743613
1015.743613
980.848670
586.931705
330.439806
130.159855
60.682893
23.414493
17.079711
16.727448
17.196536
18.304586
19.972920
23.059845
27.672648
37.047863
47.249794
62.645674
72.535872
84.239841
90.789795
93.139410
91.792941
83.402991
75.397491
63.650608
54.134727
44.075847
38.957000
34.400821
31.972528
31.283498
##ZVALUE=350
0.799894
0.804663
0.878572
0.950694
0.814795
0.830889
0.852942
0.966787
0.861883
0.928640
0.809431
0.877976
0.882745
0.833869
0.963807
0.756979
0.899434
0.871420
0.752807
1.150966
1.014471
0.900626
1.056790
0.999570
0.881553
0.984669
1.072884
1.083612
0.900626
0.936985
0.976920
0.808835
1.158714
1.082420
1.081824
1.202822
1.223683
1.199841
1.344681
1.254678
1.310706
1.413822
1.568794
1.423955
1.436472
1.388788
1.616478
1.726747
1.842976
1.725554
1.808405
1.898408
2.136827
2.216697
2.446771
2.765656
4.408956
15.085936
71.016550
162.530541
394.130945
661.987662
1015.812755
1015.812755
1015.812755
1015.812755
1015.812755
1015.812755
1009.256840
711.598992
353.673697
193.833709
75.893998
32.795668
16.312599
15.008450
15.754700
16.335845
17.456412
18.973947
22.465587
26.899576
34.282804
42.311549
54.323673
64.958930
75.842738
82.580447
86.076856
84.464550
77.308416
70.323944
58.371425
49.682856
41.812658
36.638975
##ZVALUE=355
0.726581
0.538826
0.634789
0.611544
0.626445
0.736713
0.677705
0.790954
0.657439
0.581741
0.740886
0.806451
0.685453
0.770688
0.786781
0.756979
0.692606
0.769496
0.743866
0.805855
0.838637
0.719428
0.835657
0.804663
0.729561
0.707507
1.010895
0.822544
0.915527
1.004934
0.784993
1.043677
0.991821
0.910759
0.877976
0.956655
0.939965
1.010895
1.076460
1.124740
1.137853
1.111627
1.214743
1.164675
1.242757
1.189709
1.314878
1.339912
1.457930
1.620650
1.577735
1.494884
1.710653
1.743436
1.951456
2.064705
2.278686
2.465844
2.964735
6.581545
39.532781
107.209682
282.976627
500.998497
913.929939
1015.681624
1015.681624
1015.681624
1015.681624
1015.681624
1015.681624
860.959888
480.351448
262.167454
98.505616
44.354796
17.970800
14.096498
14.136434
14.932752
15.579462
16.316772
18.036962
19.902587
24.502873
29.598475
38.807988
46.647787
58.640838
66.495538
74.017644
77.095628
76.189637
72.190762
63.503981
56.321621
##ZVALUE=360
0.599623
0.788569
0.854731
0.883937
0.735521
0.871420
0.788569
0.707507
0.799894
0.739694
0.790954
0.615716
0.620484
0.891685
0.787973
0.888705
0.778437
0.891685
0.781417
0.766516
0.805855
0.657439
0.848770
0.828505
0.717640
0.896454
0.868440
0.783801
0.986457
0.916719
0.994802
0.841618
1.131892
1.011491
1.071692
1.083612
1.011491
1.059771
1.091957
1.019835
1.061559
1.210570
1.102686
1.296997
1.159906
1.177788
1.239777
1.200438
1.359582
1.295805
1.452565
1.572967
1.556873
1.545548
1.766682
1.769662
1.926422
2.123713
2.264977
2.691746
2.892613
4.807711
14.956594
67.505836
163.698792
402.535796
664.392710
1015.681624
1015.681624
1015.681624
1015.681624
1015.681624
1015.681624
970.583558
653.776526
313.659906
163.897872
61.083436
26.525855
13.959408
13.383627
13.763905
14.420748
14.894605
15.146732
16.428828
18.054843
21.376610
25.282502
32.035708
39.488673
50.717592
58.349967
65.869689
69.342852
70.275664
##ZVALUE=365
0.714660
0.744462
0.664592
0.703931
0.725985
0.618696
0.792742
0.753999
0.611544
0.731945
0.612736
0.643730
0.818968
0.800490
0.825524
0.859499
0.806451
0.713468
0.760555
0.701547
0.687838
0.795722
0.838637
0.888705
0.914931
0.836849
0.882745
0.853539
0.991821
0.877976
0.861883
0.941753
1.024604
1.103878
0.930429
1.002550
1.153946
1.043677
1.094937
0.970960
1.080632
1.082420
1.196861
1.179576
1.195669
1.226664
1.024604
1.260638
1.286864
1.281500
1.399517
1.463890
1.421571
1.594424
1.658797
1.639724
1.668930
1.744628
2.098680
2.062917
2.350807
2.484918
2.724528
3.190637
6.529689
37.412643
101.854801
266.942978
487.047434
904.919505
1015.682817
1015.682817
1015.682817
1015.682817
1015.682817
1015.682817
795.353651
433.380008
234.683752
86.375475
36.451817
14.968514
12.679696
13.059974
12.996793
13.173819
13.706684
14.453530
14.652610
16.152859
18.316507
22.785664
27.653575
36.283731
43.304563
52.293539
##ZVALUE=370
0.601411
0.569820
0.618696
0.775456
0.684857
0.561476
0.682473
0.598431
0.615716
0.716448
0.797510
0.617504
0.804663
0.784993
0.861883
0.732541
0.678897
0.738502
0.800490
0.855923
0.888705
0.705719
0.786781
0.759959
0.781417
0.780821
0.915527
0.723600
0.917912
0.716448
0.898838
0.884533
0.965595
0.816584
0.735521
0.895858
0.890493
1.062751
1.068711
1.075864
0.953674
1.043677
1.088977
0.993609
1.071692
1.252890
1.182556
1.190901
1.283884
1.288652
1.207590
1.239777
1.494884
1.386404
1.506805
1.481771
1.608729
1.723766
1.777411
1.692772
1.875758
1.947880
1.944900
2.141595
2.594590
2.992749
4.038811
19.089580
63.551664
203.756690
379.718542
720.415711
1004.816890
1015.681624
1015.681624
1015.681624
1015.681624
1015.681624
933.432579
525.255799
297.563672
118.907690
54.860711
19.256473
12.517571
11.511445
11.958480
11.949539
12.178421
12.704730
12.843609
13.756752
14.635921
17.019510
19.280910
24.915934
##ZVALUE=375
0.819564
0.681877
0.743866
0.640750
0.618696
0.608563
0.559688
0.633597
0.764728
0.750422
0.672936
0.760555
0.781417
0.900626
0.868440
0.792742
0.691414
0.719428
0.699759
0.801682
0.638962
0.667572
0.804663
0.655651
0.824928
0.822544
0.728965
0.889897
0.949502
0.915527
0.863671
0.802875
0.898838
1.023412
0.899434
0.978708
0.911951
1.012683
0.949502
0.978708
1.013875
0.830889
1.003742
1.012683
1.049638
1.065731
1.026988
1.086593
0.947714
1.159906
1.082420
1.047850
1.125932
1.218915
1.104474
1.215935
1.210570
1.345873
1.386404
1.585484
1.492500
1.644492
1.532435
1.691580
1.899600
2.155900
2.184510
2.731681
3.140569
9.486675
34.109950
126.179457
266.221762
585.352778
906.310678
1015.682817
1015.682817
1015.682817
1015.682817
1015.682817
1015.682817
669.761896
413.314700
190.583467
95.430613
32.314658
15.119910
10.772943
10.381937
10.723472
11.011958
11.417866
11.478662
11.746883
12.468696
13.533831
##ZVALUE=380
0.741482
0.637770
0.548959
0.456572
0.627637
0.683665
0.660419
0.632405
0.694990
0.726581
0.642538
0.685453
0.806451
0.769496
0.681877
0.686646
0.709891
0.441670
0.515580
0.558496
0.643730
0.703931
0.701547
0.714660
0.817776
0.965595
0.759959
0.742674
0.760555
0.816584
0.744462
0.653863
0.779629
0.710487
0.867844
0.811815
0.856519
0.946522
0.777841
0.843406
0.809431
0.878572
0.859499
0.845790
1.000762
0.943542
1.018643
1.120567
1.022816
0.911951
1.036525
0.946522
1.118779
1.023412
1.152754
1.092553
1.154542
1.304746
1.166463
1.185536
1.380444
1.322627
1.545548
1.385808
1.481771
1.715422
1.926422
1.958609
2.122521
2.589822
2.799630
4.987717
18.161535
89.228749
204.443932
475.954413
763.618946
1015.682817
1015.682817
1015.682817
1015.682817
1015.682817
1015.682817
859.869719
569.058657
274.601579
140.520930
50.242543
22.093654
10.647774
9.522438
9.674430
9.987950
10.248423
10.667443
10.915995
##ZVALUE=385
0.595450
0.531673
0.658631
0.701547
0.687838
0.536442
0.772476
0.546575
0.693798
0.587702
0.525713
0.678897
0.759959
0.869632
0.725985
0.595450
0.616908
0.645518
0.739694
0.674725
0.681877
0.667572
0.593662
0.743866
0.663996
0.665784
0.863671
0.570416
0.730753
0.834465
0.560880
0.797510
0.805855
0.820756
0.760555
0.745654
0.669956
0.730753
0.847578
0.820756
0.844598
0.719428
0.860691
0.777841
0.786781
0.953674
0.880957
1.011491
0.953674
0.961423
0.804663
0.993609
1.053810
0.907779
0.985861
1.112819
1.143813
0.892878
1.132488
1.073480
1.121759
1.177788
1.139641
1.090765
1.185536
1.269579
1.515746
1.588464
1.769662
2.203584
2.227426
2.429485
2.678633
3.205538
8.766651
51.566958
132.930875
333.254933
579.083562
989.882946
1015.681624
1015.681624
1015.681624
1015.681624
1015.681624
1015.681624
747.248530
397.184491
222.405791
90.056658
37.138462
12.352467
8.898973
8.798838
8.999705
9.095669
##ZVALUE=390
0.578761
0.559688
0.654459
0.647902
0.499487
0.562668
0.582933
0.525713
0.470877
0.594854
0.604987
0.738502
0.630617
0.611544
0.577569
0.679493
0.593662
0.606775
0.627637
0.764728
0.578761
0.588894
0.623465
0.601411
0.702739
0.730753
0.679493
0.671744
0.732541
0.693798
0.706911
0.604987
0.809431
0.727773
0.630617
0.765920
0.718832
0.751615
0.747442
0.787973
0.653863
0.897646
0.679493
0.825524
0.911951
0.885725
0.890493
0.908971
0.917912
0.874996
0.750422
1.046658
0.871420
0.910759
0.871420
1.047850
0.882745
1.054406
1.005530
1.198649
1.199841
1.058578
1.117587
1.187921
1.166463
1.375675
1.628995
1.639724
1.666546
1.930594
2.175570
2.255440
2.345443
2.190471
2.495646
2.653599
4.194975
28.490424
88.550448
260.919929
482.513905
884.943008
1015.681624
1015.681624
1015.681624
1015.681624
1015.681624
1015.681624
942.274928
560.187697
320.532918
129.545927
58.934689
18.040538
9.640455
8.473992
##ZVALUE=395
0.589490
0.507832
0.532866
0.561476
0.538826
0.640750
0.720620
0.514984
0.620484
0.652671
0.558496
0.732541
0.621676
0.600815
0.747442
0.605583
0.651479
0.457764
0.681877
0.624657
0.540614
0.594854
0.541806
0.613928
0.651479
0.668764
0.658631
0.630617
0.622869
0.681877
0.760555
0.754595
0.694990
0.747442
0.716448
0.738502
0.726581
0.658631
0.765920
0.795722
0.660419
0.751615
0.790954
0.784993
0.848770
0.752807
0.690818
0.970960
0.938773
0.890493
0.867844
0.789762
0.724792
0.752807
0.825524
0.876784
0.815988
1.017451
1.057982
1.102686
1.074672
1.109838
1.078844
1.218915
1.330972
1.192689
1.317859
1.617670
1.664758
1.588464
1.878738
2.113581
1.880527
2.030730
2.008677
2.018809
2.209544
2.362728
3.010631
14.209747
52.570701
183.819532
355.124474
689.033866
980.630517
1015.688777
1015.688777
1015.688777
1015.688777
1015.688777
1015.688777
683.489442
426.848531
196.943879
93.533993
31.562448
##ZVALUE=400
0.497699
0.359416
0.597835
0.583529
0.582933
0.649691
0.625849
0.497699
0.686646
0.607967
0.463724
0.444651
0.614524
0.597835
0.511408
0.472665
0.525713
0.523925
0.351667
0.620484
0.698566
0.597835
0.567436
0.620484
0.654459
0.625849
0.734925
0.546575
0.653863
0.716448
0.717640
0.884533
0.665784
0.705719
0.644922
0.756979
0.593662
0.696778
0.737906
0.802875
0.679493
0.863671
0.702739
0.720620
0.762939
0.732541
0.810623
0.810623
1.013875
0.819564
0.963807
0.787973
0.954866
0.977516
0.945926
0.946522
0.734925
1.145601
0.951886
0.857711
0.973940
0.924468
1.128912
1.109838
1.375675
1.307726
1.407862
1.576543
1.494884
1.623631
1.735687
1.843572
1.909733
1.953840
1.817942
1.664758
1.836419
1.927614
2.038479
2.438426
2.797842
7.568598
29.968619
119.013786
247.518420
530.919433
814.197659
1015.684009
1015.684009
1015.684009
1015.684009
1015.684009
1015.684009
828.199983
535.489917
261.851549
##END
