##TITLE=FQP00352
##FORMAT=SPECTACLE-ASCII V-1.2
##DATA TYPE=ULTRAVIOLET SPECTRUM
##SECOND TYPE=ULTRAVIOLET SPECTRUM
##DATE=02/01/18
##TIME=15:26:24
##SPECTROMETER/DATA SYSTEM=SPECTACLE
##XUNITS=NM EM
##YUNITS=ENERGY
##YFACTOR=1
##FIRSTX=220
##LASTX=410
##NPOINTS=96
##3DDATA=Equidistant
##ZUNITS=NM EX
##FIRSTZ=210
##LASTZ=400
##ZPOINTS=39
##XYDATA=(Y..Y)
##ZVALUE=210
2.722740
2.770424
2.573729
2.501607
2.813935
2.781749
2.990961
3.397465
3.717542
4.412532
4.614592
4.674792
4.855990
4.737973
5.151629
6.220937
6.560683
6.892681
5.990863
7.191896
7.645488
9.748936
9.902716
10.735989
11.418462
11.920929
12.746453
12.701750
13.135672
14.131665
13.879538
16.594529
14.477968
15.287995
16.618967
15.221834
15.286803
17.472506
19.438863
17.752647
18.629432
18.700957
18.005967
19.243956
19.436479
20.787716
19.996762
19.386411
21.003485
21.612644
22.880435
22.913814
21.613836
22.867918
24.299622
22.184849
22.124648
23.950934
23.675561
25.151968
24.682879
23.749471
25.934577
24.720430
24.485588
25.532842
29.613972
35.052896
38.080812
46.892762
54.354668
65.746903
77.525973
91.585517
100.966692
106.495619
110.434890
111.968517
111.325979
109.607577
102.966428
88.963509
80.433488
61.046481
51.265955
41.717887
33.902526
30.015707
27.190447
25.128722
22.107959
23.454428
22.536516
23.788810
23.200512
24.015903
##ZVALUE=215
16.288757
15.331507
13.810992
9.388924
7.878542
5.871654
5.858541
5.914569
5.855560
5.937815
7.332563
6.342530
6.743670
5.909801
6.001592
6.219745
7.218719
6.490946
7.727742
9.056926
7.489920
9.321570
9.319782
10.634661
11.229515
11.934638
12.557507
12.909770
15.575886
14.463663
15.807748
16.596913
18.530488
17.255545
19.480586
20.450950
18.651485
18.681884
17.849803
19.096732
18.654466
18.354654
18.701553
19.534826
18.500686
19.569993
20.427704
18.171668
20.902753
20.748973
19.530654
19.639730
19.694567
19.917488
20.743608
20.246506
21.192431
21.120906
20.270944
22.358894
22.033453
22.441745
22.736788
21.604896
23.018718
24.027824
24.408698
28.281808
32.424927
37.026405
44.847727
54.368973
63.303709
70.176721
77.827573
83.176494
83.265901
86.170435
82.776546
80.564618
75.524449
67.320466
58.049560
48.390627
41.888952
31.985641
25.942922
25.313497
21.793842
21.273494
20.274520
19.366741
19.896626
20.170808
18.000603
18.921494
##ZVALUE=220
63.844919
60.766935
65.751672
63.748956
53.184628
38.018823
26.827455
16.419888
13.880730
11.252761
12.669563
13.258457
12.495518
13.188720
11.511445
11.242628
7.758737
8.033514
7.192492
7.961988
8.353591
7.288456
8.336902
8.882880
9.689927
10.834932
10.925531
13.044477
14.117956
16.119480
15.610456
19.086599
19.338727
20.208955
20.390749
21.431446
21.393895
19.819736
20.513535
21.006465
19.768476
19.938946
19.999743
20.141602
19.680858
19.620657
21.318793
19.652843
21.109581
20.444989
20.565987
21.230578
19.876957
20.051599
21.137595
21.822453
20.181537
21.350980
21.649599
21.647811
21.568537
22.297502
22.599697
22.572875
21.554828
23.111701
24.848580
27.677417
30.544996
35.218596
41.444898
49.502850
57.407618
67.523718
72.921515
76.465607
81.446767
79.969764
81.687570
75.814724
74.671507
65.748692
60.263872
51.128864
45.000911
33.464432
29.112697
26.066899
23.322701
22.069812
22.524595
20.522475
19.377470
21.017790
20.391941
19.847751
##ZVALUE=225
119.555593
121.831894
164.763927
205.929875
221.122503
207.141638
187.848806
132.707953
95.036626
67.558885
36.072731
30.425787
26.289821
28.559566
27.913451
27.025938
23.075938
20.575523
17.552972
13.493896
11.319518
10.250807
10.129809
10.420680
11.361837
13.119578
13.850927
16.637444
16.735792
19.312501
19.477606
21.892786
23.466945
24.434924
23.362637
26.028752
26.570559
28.041601
25.132895
25.239587
25.972724
26.294589
25.479794
23.157001
25.384426
24.810433
23.559928
24.620891
25.218725
23.798943
25.843978
24.556518
25.019646
24.992824
24.330616
26.081800
25.727749
25.183558
26.509762
24.586916
27.895570
27.339458
28.246641
27.301908
29.791594
27.661920
30.240417
33.968687
39.509535
42.222738
49.499869
52.697659
62.920451
66.710711
77.200532
81.106424
78.596473
78.365803
79.709888
77.494979
70.077777
65.647960
57.083964
50.634742
44.925809
38.760900
34.401417
30.058622
27.433634
26.944876
24.830699
23.676753
24.554729
24.005771
23.604631
24.270415
##ZVALUE=230
112.693906
129.520893
211.728811
348.213911
456.736684
562.651753
609.027743
589.533448
518.949628
429.379940
270.081758
178.924799
98.582506
65.692663
50.610900
52.150488
54.967999
54.551959
49.909949
42.854548
36.094785
24.806857
21.078587
16.806722
15.315413
16.226768
16.426444
16.823411
19.498467
21.828413
23.472905
23.831725
26.780963
25.622845
26.996732
28.107762
27.725697
30.334592
29.714704
29.954910
28.696656
27.537942
27.683973
26.609898
27.162433
27.728677
28.125644
28.875470
28.949976
30.567646
28.108954
32.561421
30.920506
31.595826
28.977990
33.606887
33.110976
32.792687
33.525825
34.021735
32.212734
34.710765
33.314824
36.144853
34.901500
34.924746
39.222836
40.217638
41.883588
49.889684
54.491758
63.324571
72.162747
79.617500
83.420873
90.315938
91.801882
91.183782
88.785887
80.806613
79.642534
69.133639
64.496994
52.828789
49.896836
42.076707
38.544536
35.365820
33.744574
32.999516
32.442808
30.445457
30.177832
30.911565
30.437708
29.218793
##ZVALUE=235
41.506886
51.640868
117.068887
286.581516
473.804474
751.751661
963.624716
1015.785933
1015.785933
1015.785933
1015.785933
856.150389
563.449860
391.239524
221.391916
136.488676
90.418458
83.682537
89.852810
91.707706
83.979964
74.173808
60.921907
46.353936
35.349727
25.157928
24.431944
20.640492
18.803477
22.019744
22.212863
23.762584
23.328662
22.169948
24.747849
24.400949
26.545525
25.395751
26.096702
27.452707
26.862621
27.228594
26.830435
26.607513
26.246905
27.349591
26.329756
26.645660
29.133558
31.462908
32.186508
31.107664
29.893517
31.591654
33.697486
34.249425
35.522580
35.373569
38.067698
35.777688
37.690997
36.988854
38.020611
38.154721
36.958456
39.367676
41.327477
42.464733
46.216846
52.520633
58.973432
65.370798
69.897771
80.280900
81.912875
90.306997
93.312860
89.494586
85.760951
82.988739
73.244572
66.491961
60.761571
54.686666
46.762824
43.060780
38.522482
36.164522
36.511421
34.077764
31.680465
33.921599
34.241676
32.601953
32.408834
32.373667
##ZVALUE=240
3.675818
4.484653
21.016598
63.649416
207.838416
398.205519
786.162019
1015.785933
1015.785933
1015.785933
1015.785933
1015.785933
1015.785933
1015.785933
890.392661
505.795479
318.599939
180.344582
132.082701
112.553835
118.075609
121.122003
120.872855
113.198757
90.076923
78.958869
59.278607
45.444965
33.915639
27.402639
24.855733
23.711920
21.348000
23.896694
25.738478
24.407506
23.995638
26.160479
25.983453
25.094748
25.582910
24.925470
23.146868
26.890635
26.983619
27.130842
25.900602
25.995970
29.080510
28.799772
30.794740
28.861761
31.660795
32.042861
33.018589
33.239722
35.002828
34.141541
37.557483
36.394000
36.338568
36.533475
36.481619
37.888885
40.771961
40.739775
40.675998
42.179823
46.993494
53.738952
56.215525
61.356425
68.274736
69.176555
79.499483
78.714490
78.693628
79.243779
76.013803
69.677830
68.951845
61.488748
55.687428
48.472881
44.933558
39.810538
38.511753
36.987662
37.574768
35.889745
33.857822
35.729408
33.125877
32.943487
33.979416
33.514500
##ZVALUE=245
2.434850
2.758503
2.368689
3.191829
12.995601
70.343614
179.857612
459.503531
800.985694
1015.785933
1015.785933
1015.785933
1015.785933
1015.785933
1015.785933
1015.785933
1009.897590
746.224523
496.985912
250.210762
158.031583
117.119551
121.085644
130.852461
135.857463
132.746696
124.531984
104.742646
88.774562
64.193606
51.033497
38.439631
31.003952
26.373863
23.064613
26.132464
25.257468
24.260879
24.174452
25.675893
24.678707
25.298595
24.674535
23.869872
24.992824
25.430918
24.375916
25.211573
26.095510
26.204586
27.265549
26.412606
28.064847
27.615428
29.521585
29.288530
29.289722
31.240582
29.763579
31.214952
31.451583
31.965971
33.085942
33.789873
33.475757
34.028888
35.183430
38.139820
39.951801
43.027997
46.612620
51.448941
55.325627
60.383677
62.978864
65.213442
63.468814
67.726970
63.662529
62.734485
58.341622
49.653649
46.296716
42.457581
39.761662
33.373833
34.943819
34.651756
33.045411
30.366778
32.718778
32.983422
31.139851
30.609965
30.407906
30.362606
##ZVALUE=250
1.925826
2.312660
1.861453
2.119541
2.845526
3.225803
8.760691
43.573976
183.795691
364.076495
769.904852
1015.732884
1015.732884
1015.732884
1015.732884
1015.732884
1015.732884
1015.732884
1015.732884
985.517502
678.756833
434.451699
224.276781
144.896507
117.600560
129.272938
144.895911
149.109960
143.152475
134.911537
114.917755
94.313622
73.812604
53.790808
40.675998
31.243563
26.595592
25.876760
25.161505
23.819804
24.362803
23.642778
24.172664
23.862720
23.619533
22.391677
23.519993
23.555756
22.370815
23.598671
22.910833
24.009943
23.806691
24.863482
24.676919
24.189949
25.103688
25.538802
26.237965
26.852489
26.319623
25.378466
26.196837
26.253462
26.702881
27.586818
27.355552
30.080676
29.894710
34.032464
35.970807
39.866567
42.103529
47.096610
49.193501
48.784614
50.594807
49.675703
50.143600
46.149492
43.105483
39.323568
35.746694
33.489466
32.640696
29.662848
29.506683
29.182434
27.779937
26.609898
27.294755
27.643442
26.281476
26.680827
26.765466
27.646422
##ZVALUE=255
1.767874
1.686811
1.800656
1.803637
1.860857
1.941919
2.528429
3.024936
4.466772
18.448830
113.957524
264.281631
494.185686
955.018997
1015.782952
1015.782952
1015.782952
1015.782952
1015.782952
1015.782952
1015.782952
1015.782952
643.625855
382.430553
189.544559
123.738647
102.990866
112.775564
137.840509
150.394440
158.604980
154.109597
140.975714
119.868517
98.603964
73.301792
57.477951
40.787458
32.543540
27.615428
25.717616
24.494529
23.486614
23.685694
22.542477
22.206903
23.266673
21.362901
21.133423
21.278858
21.215677
21.241903
21.775961
21.267533
20.976663
20.874739
20.301938
20.756721
20.890832
20.419955
21.101832
20.575523
21.569729
20.694733
21.313429
22.273660
21.264553
22.400618
23.674965
25.666952
28.660893
30.393600
31.944513
36.505461
34.969449
37.995577
37.021637
38.017631
35.871863
34.646988
32.102466
29.610991
29.731989
28.161407
26.007891
24.340749
24.893880
23.561716
23.173690
22.900701
24.424791
24.030805
23.756623
23.581982
23.776889
23.837686
##ZVALUE=260
1.631975
1.306534
1.540780
1.826882
1.732707
1.853704
1.815557
1.988411
2.913475
3.010631
3.118515
5.688667
27.623773
130.577087
285.002589
649.814010
983.598828
1015.785933
1015.785933
1015.785933
1015.785933
1015.785933
1015.785933
1015.785933
875.712633
566.821694
306.604505
182.021856
104.610920
98.504424
115.121007
142.584443
157.209635
167.132616
165.555477
148.151517
129.194856
101.663470
80.400705
55.173635
44.316649
32.989979
29.091835
25.422573
24.700761
24.063587
23.008585
22.530556
22.062659
21.609664
21.500587
20.250678
20.195842
20.613670
19.528866
19.979477
20.272732
19.778609
19.380450
19.531846
19.440651
19.599795
18.805861
19.802451
18.458962
18.842816
19.582510
21.173954
21.125674
22.367835
23.624897
26.556849
27.696490
29.300451
30.376911
29.976964
29.625893
30.205846
28.014779
27.766824
27.258992
26.384592
25.239587
23.666620
22.753477
21.583438
21.493435
21.428466
21.132827
21.629930
21.004677
20.981431
20.517707
22.033453
20.760894
20.978451
##ZVALUE=265
1.187921
1.389980
1.490712
1.221895
1.681447
1.317859
1.388788
1.733899
1.543760
1.836419
2.098680
2.487898
2.548695
3.990531
12.154579
69.846511
175.511837
426.324606
729.722977
1015.785933
1015.785933
1015.785933
1015.785933
1015.785933
1015.785933
1015.785933
1015.785933
767.369866
406.075716
238.050818
191.011429
95.376968
100.808740
131.111741
152.818561
167.710781
174.184442
166.584849
151.218772
125.003457
102.089643
76.503754
57.132840
40.647984
32.370687
25.810599
24.548769
23.423433
23.157597
21.945834
21.688938
21.377802
21.281838
20.637512
20.525455
19.931793
19.967556
19.622445
19.568801
19.393563
19.617677
19.210577
19.351840
18.654466
19.377470
19.062757
19.417405
19.436479
20.722747
22.628903
22.982955
24.104714
26.069880
27.526617
28.121471
28.004646
27.247667
26.949644
26.749969
25.428534
24.606586
22.341609
21.636486
21.140575
20.726919
20.620823
19.591451
19.698739
19.712448
20.552874
18.794537
19.090772
19.748807
19.957423
19.448996
19.654632
##ZVALUE=270
1.130700
1.160502
1.314878
1.371503
1.326799
1.486540
1.559854
1.717806
1.834631
1.720786
1.968741
2.048612
2.087951
2.342463
2.887845
2.980828
5.766749
40.058494
110.235810
315.648913
581.129789
940.919518
1015.785933
1015.785933
1015.785933
1015.785933
1015.785933
1015.785933
1015.785933
1015.785933
763.839483
372.932553
200.750828
99.039674
86.393952
105.720758
125.574470
152.706504
167.007446
172.437429
168.457627
150.297880
127.979517
98.350644
74.042678
50.755739
40.599704
30.076504
23.984909
21.730661
20.761490
21.259785
20.837784
20.647645
20.437837
19.824505
21.344423
20.737648
20.392537
20.408630
20.489693
21.049976
20.428896
20.297766
20.268559
19.839406
19.892454
20.756721
21.866560
22.283792
24.480820
24.132729
25.273561
27.097464
27.452707
27.235746
26.402473
26.158690
24.980903
23.306608
23.001432
21.655560
20.666718
20.412803
19.370914
18.576980
18.747449
18.811822
18.329620
17.823577
18.319488
17.235875
18.332601
18.119812
18.274784
17.658472
##ZVALUE=275
1.014471
1.238585
1.445413
1.222491
1.036525
1.298785
1.313686
1.285672
1.553893
1.290441
1.485944
1.679659
1.624823
1.961589
1.867414
2.084970
2.416968
2.870560
3.086925
13.103485
53.405762
154.698491
421.690941
739.849806
1015.785933
1015.785933
1015.785933
1015.785933
1015.785933
1015.785933
1015.785933
1015.785933
952.145457
483.343601
268.184543
117.381811
75.572729
74.666739
94.343424
120.560527
139.771700
158.183575
160.491467
156.288743
141.315460
114.820600
94.760656
67.712665
52.350760
35.191774
27.787685
22.645593
21.249652
19.813776
19.798875
19.808412
20.854473
20.693541
21.050572
21.767616
21.890998
21.369457
21.246672
21.481514
21.141768
21.306872
21.128654
21.701455
22.148490
22.930503
23.122430
24.512410
25.132895
25.751591
25.487542
26.288629
24.973750
24.837852
24.129748
22.619963
22.213459
20.353794
20.206571
18.371940
18.852949
17.814636
17.893910
17.497540
17.350912
17.166734
17.092824
17.401576
16.985536
16.812682
16.714931
16.435981
##ZVALUE=280
0.887513
0.949502
1.339912
1.229644
1.133680
1.112819
1.241565
1.097918
1.219511
1.430511
1.395941
1.367927
1.605749
1.671910
1.659989
1.806617
1.599789
2.275705
2.242923
2.258420
3.141761
3.526807
22.500753
79.349875
264.027715
487.989783
887.096524
1015.785933
1015.785933
1015.785933
1015.785933
1015.785933
1015.785933
1015.785933
998.235941
573.213696
331.192017
138.579607
72.201490
51.457882
61.344504
86.329579
107.614994
132.598877
145.031810
151.611567
147.788525
131.872892
114.627481
86.110830
66.883564
46.339631
35.665631
26.565790
21.777749
20.416975
20.736456
20.644665
20.881891
21.918416
22.346973
23.036599
22.533536
22.589564
23.018718
23.001432
23.981929
23.852587
23.925900
24.312735
23.851991
25.007725
24.711490
25.337934
24.660826
25.169849
25.059581
23.749471
22.914410
22.340417
21.869540
20.211935
19.001961
19.371510
18.549562
17.395616
17.572641
17.011762
17.029643
16.891956
16.939640
16.668439
16.723871
15.917420
16.761422
15.626550
##ZVALUE=285
1.123548
1.057982
0.956655
0.880957
0.973940
0.989437
0.920892
1.068711
0.990629
1.065731
1.354814
1.302958
1.456738
1.356602
1.402497
1.347661
1.683831
1.783967
1.841784
2.000928
2.117753
2.417564
2.523661
3.352761
9.797812
37.453771
141.954422
306.288004
665.262938
986.920595
1015.785933
1015.785933
1015.785933
1015.785933
1015.785933
1015.785933
1015.785933
880.676508
460.326672
252.871513
97.775459
49.269795
40.414929
52.428842
77.455640
96.673965
123.866796
137.388706
147.797465
145.886540
130.239725
115.986466
89.772940
72.746873
52.534938
40.233731
29.881597
26.593804
25.468469
24.661422
25.656819
25.802851
25.634766
25.675893
25.655627
26.062727
26.064515
26.678443
26.190877
27.169585
27.399659
27.246475
27.434826
26.727915
27.701855
26.276708
25.328994
25.305748
24.422407
23.080707
21.981597
21.043420
20.149946
19.508600
19.171834
19.171834
18.461943
18.028617
17.357469
17.363429
16.587973
16.552806
16.271472
15.454888
15.726686
15.348792
##ZVALUE=290
0.822544
0.944734
0.868440
0.929832
0.779629
0.735521
1.016855
1.083612
1.021624
1.025796
1.262426
1.187921
1.161695
1.283884
1.193881
1.382828
1.366735
1.301765
1.463890
1.448989
1.830459
1.659989
2.095699
2.303720
2.547503
2.687573
4.137754
13.305545
75.508952
191.981792
382.252932
772.218704
1015.785933
1015.785933
1015.785933
1015.785933
1015.785933
1015.785933
1015.785933
1010.176539
698.250532
336.700678
169.052482
57.646632
31.694770
37.543774
50.301552
72.647929
94.261765
120.387673
135.642886
148.083568
145.616531
134.835839
117.584467
92.891455
75.128675
55.063963
44.356585
36.318898
32.296777
29.994845
29.349923
28.270483
29.711723
29.519796
28.897524
29.274821
29.128790
29.552579
29.445887
29.887557
29.574633
28.713942
28.411746
27.752519
26.338696
26.021600
24.774671
23.324490
23.751855
22.103786
21.424890
20.725727
20.196438
19.224882
19.751787
18.216968
18.198490
17.633438
17.581582
15.984774
16.675591
16.111732
15.878677
16.136765
##ZVALUE=295
0.794530
1.025796
0.902414
0.910759
0.848770
0.841618
0.872612
1.073480
0.885725
1.020432
1.029968
1.040697
1.019835
1.197457
1.180768
1.184940
1.166463
1.314878
1.301765
1.355410
1.536608
1.327991
1.630783
1.856685
1.889467
1.932979
2.412796
2.595782
3.156662
6.147623
25.835633
122.633576
286.610723
654.721856
983.842015
1015.785933
1015.785933
1015.785933
1015.785933
1015.785933
1015.785933
1015.785933
831.804872
431.857705
231.568813
84.963441
37.906766
26.409626
33.761859
52.582622
71.403980
98.638535
116.895437
136.231780
145.137906
145.118833
135.941505
117.137432
99.858642
77.304840
62.528849
47.853589
40.084720
35.390854
32.356977
30.780435
31.567812
31.031966
32.254457
30.884743
31.187534
30.323863
30.259490
30.362606
29.468536
28.228760
27.110577
26.380420
25.757551
24.781823
23.568869
22.310615
22.001863
20.346642
20.729899
19.695759
19.411445
19.035935
18.427968
17.957687
17.701983
17.181635
16.812682
16.314983
15.247464
16.037822
##ZVALUE=300
0.769496
0.815988
0.735521
0.693798
0.907779
0.862479
0.848770
0.987649
0.889897
0.847578
1.031756
0.863671
0.985861
1.076460
0.933409
1.090765
1.299977
1.051426
1.065731
1.217723
1.228452
1.460910
1.429915
1.533628
1.677871
1.725554
1.879930
2.044439
2.274513
2.448559
2.805591
3.583431
12.887716
75.965524
184.488893
460.130572
768.062472
1015.785933
1015.785933
1015.785933
1015.785933
1015.785933
1015.785933
1015.785933
998.872519
584.363937
335.982442
141.757727
65.362453
29.730797
27.754903
38.807988
51.302910
73.127747
91.910958
117.483735
133.532882
143.915415
144.044757
136.049986
121.081471
98.796487
81.753731
63.486695
51.188469
41.266680
36.035776
33.495426
32.001734
31.957626
31.353831
31.289458
31.128526
30.132532
29.842854
28.690696
27.361512
27.060509
25.193691
24.710894
24.279952
22.847652
22.474527
20.924807
20.588636
21.286607
20.049810
19.095540
18.510818
18.575788
17.892718
17.237663
16.492605
16.260743
16.287565
15.658736
##ZVALUE=305
0.908971
0.977516
0.776649
1.058578
0.937581
0.910759
0.979900
0.883937
1.055598
1.032948
1.032948
0.977516
0.933409
1.099706
1.085997
1.100898
1.090765
1.113415
1.024604
1.160502
1.069903
1.298785
1.193881
1.432896
1.628995
1.512766
1.608729
1.860857
1.877546
1.955628
2.253652
2.346635
2.545714
3.262758
6.282926
49.892664
135.875940
365.556479
632.929802
1015.913486
1015.913486
1015.913486
1015.913486
1015.913486
1015.913486
1015.913486
1015.913486
774.583817
489.960909
221.435428
108.777881
41.182637
27.443767
30.134916
38.436651
54.820776
71.427822
95.515847
114.036798
132.708549
139.995813
139.077902
131.917000
112.714767
96.443892
74.859858
60.480833
47.658682
39.528608
33.291578
32.266974
29.647946
29.623508
28.290749
27.661920
26.994944
26.184916
24.793744
24.354458
24.013519
22.961497
22.289753
21.852851
21.255612
20.566583
20.322800
19.592643
18.961430
18.306971
18.116832
17.508864
16.846657
16.774535
16.207695
15.761852
15.091896
##ZVALUE=310
0.690818
0.834465
0.778437
0.784993
0.776649
0.730753
0.789762
0.750422
0.823736
0.836849
0.784993
0.867844
0.794530
0.857711
0.804663
0.953674
0.972748
1.003742
0.907779
1.084805
1.198649
1.191497
1.246929
1.406670
1.381636
1.360774
1.540780
1.355410
1.757741
1.721978
1.584888
2.048612
2.209544
2.386570
2.424717
3.167987
3.505945
18.780828
76.072812
271.380544
532.853007
989.466906
1015.785933
1015.785933
1015.785933
1015.785933
1015.785933
1015.785933
1015.785933
986.367464
684.141517
348.846912
187.541842
69.294572
34.069419
25.409460
29.149652
37.474632
47.556758
67.136884
83.378553
104.559660
118.458867
128.573775
128.989816
121.155977
109.305978
90.900660
73.866844
55.242777
44.696927
35.438538
30.654669
26.973486
25.296807
24.263859
23.372769
22.510886
22.196770
21.476746
21.076798
19.996762
20.023584
19.125938
18.719435
18.804669
18.124580
17.810464
17.882586
17.200708
16.553998
16.365647
15.933514
15.341640
15.237927
14.988780
##ZVALUE=315
0.739694
0.861883
0.762939
0.672936
0.644922
0.703931
0.809431
0.876784
0.845790
0.703931
0.765920
0.861883
0.861883
0.821948
0.880957
0.861883
0.884533
0.955462
0.857711
1.001954
1.098514
0.982881
1.212955
1.214743
1.113415
1.409650
1.376867
1.487732
1.389980
1.369715
1.434684
1.737475
1.765490
1.869798
2.104640
2.438426
2.528429
3.157854
3.114939
7.333755
31.996965
149.854422
339.921713
781.515837
1015.785933
1015.785933
1015.785933
1015.785933
1015.785933
1015.785933
1015.785933
1015.785933
965.558887
512.241721
274.352431
100.617409
44.305921
24.113655
23.791790
27.589798
33.046603
46.148896
58.548450
76.739788
92.522502
110.473633
117.060542
118.764639
113.424659
98.479986
83.619952
66.109896
52.430630
37.910938
30.994415
24.793744
22.556782
20.751953
19.813776
18.695593
18.414855
18.568635
17.958879
17.814636
17.654896
17.197728
16.871691
16.715527
16.467571
15.732646
15.655756
15.361905
15.055537
14.942884
14.580488
14.225841
##ZVALUE=320
0.643730
0.797510
0.677705
0.714660
0.774860
0.723600
0.748634
0.681877
0.673532
0.676513
0.835657
0.750422
0.837445
0.777841
0.834465
0.827909
0.825524
0.694990
0.899434
0.904799
0.958443
1.042485
1.034737
1.088977
1.082420
1.195669
1.223683
1.498461
1.367927
1.270771
1.440644
1.446605
1.593828
1.562834
1.739860
1.800656
1.943707
2.146959
2.357960
2.737641
2.945662
4.255772
12.262464
65.886974
170.769691
465.388894
795.053840
1015.764475
1015.764475
1015.764475
1015.764475
1015.764475
1015.764475
1015.764475
1015.765071
785.792470
439.958572
178.912878
77.428818
25.632977
18.663406
19.643903
21.459460
27.870536
35.927892
51.323771
64.750910
83.274841
96.791983
107.976794
109.778643
103.327632
93.044639
74.052811
60.071945
43.320656
33.780932
25.183558
20.573735
17.438531
16.596913
15.729666
15.681982
15.404820
15.271902
15.077591
15.152693
14.645457
14.946461
14.206767
14.587641
13.869405
13.906956
13.845563
13.555884
13.863444
##ZVALUE=325
0.681877
0.803471
0.723600
0.643730
0.789762
0.625849
0.695586
0.779629
0.784993
0.741482
0.671744
0.861883
0.829697
0.760555
0.777841
0.809431
0.734925
0.755787
1.007915
0.849962
0.873804
0.677705
0.891685
1.136661
1.035929
1.264811
1.090765
1.135468
1.147985
1.204610
1.231432
1.342893
1.356602
1.424551
1.358986
1.677871
1.617670
1.849532
1.849532
2.093911
2.333522
2.727509
2.947450
3.429651
6.683469
43.259859
118.227601
315.109491
560.921431
994.535685
1015.785933
1015.785933
1015.785933
1015.785933
1015.785933
1015.785933
1015.785933
971.270800
604.105592
257.165432
112.922788
31.878948
16.440749
13.610721
14.323592
17.444491
21.984577
32.904744
44.874549
61.428547
75.206757
92.083812
97.817779
100.179911
94.695687
81.587434
68.812966
51.175952
40.025711
28.393865
22.188425
16.629696
14.992952
14.253855
13.850927
13.723969
13.680458
13.861656
13.450980
13.631582
13.584495
13.488531
13.332963
13.317466
13.204813
13.145804
##ZVALUE=330
0.598431
0.847578
0.624657
0.619888
0.728965
0.776649
0.585914
0.716448
0.694990
0.731945
0.671744
0.762939
0.889897
0.752807
0.751615
0.941753
0.911951
0.871420
0.908971
0.858903
0.883937
1.037717
0.909567
1.014471
1.030564
0.966787
1.072884
1.192689
1.053810
1.165867
1.252890
1.267791
1.270771
1.382828
1.523495
1.497865
1.568794
1.682639
1.749992
1.765490
1.984835
2.008677
2.134442
2.493858
2.725720
3.180504
4.051924
20.562410
69.116950
217.483640
411.788821
828.644633
1015.785933
1015.785933
1015.785933
1015.785933
1015.785933
1015.785933
1015.785933
1015.785933
916.950703
416.725874
215.600729
73.716640
24.175644
11.931658
11.940598
12.842417
15.000701
21.443963
29.221773
42.319894
55.408478
72.792768
83.750486
91.775656
92.390776
86.080432
78.122616
61.510801
49.030781
35.420656
27.085543
20.758510
17.377734
14.624596
13.603568
13.610721
13.136864
13.046861
13.275743
12.721419
12.377501
12.578964
12.530684
12.403727
##ZVALUE=335
0.706911
0.671744
0.581741
0.654459
0.541806
0.599623
0.546575
0.646710
0.727773
0.550747
0.721812
0.724792
0.812411
0.744462
0.732541
0.816584
0.823736
0.725985
0.877976
0.678897
0.918508
0.801682
0.926852
0.855923
0.953674
0.793934
0.945926
1.033545
0.834465
1.021624
1.121759
1.063943
1.135468
0.951886
1.061559
1.140833
1.140833
1.407862
1.480579
1.676679
1.669526
1.687407
1.916885
1.864433
2.321601
2.386570
2.345443
2.816916
3.151894
8.184910
33.261776
140.766501
292.516947
641.354918
995.817780
1015.785933
1015.785933
1015.785933
1015.785933
1015.785933
1015.785933
1015.785933
991.184711
486.320853
234.450698
74.162483
28.632879
12.623668
11.183619
11.698604
12.637973
15.455484
19.692779
29.085875
38.843751
54.726601
66.220760
78.699589
85.025430
86.028576
82.606673
69.965720
60.588717
46.106577
36.880970
26.802421
21.260977
16.265512
14.511943
12.814999
12.528896
12.552738
12.047887
12.089610
12.324452
12.255907
##ZVALUE=340
0.546575
0.656843
0.533462
0.640750
0.737906
0.704527
0.493526
0.586510
0.677705
0.537634
0.739694
0.632405
0.801682
0.626445
0.761747
0.700951
0.660419
0.634789
0.810623
0.745654
0.781417
0.721812
0.868440
0.772476
0.769496
0.760555
0.806451
0.897646
0.887513
0.958443
0.947714
1.024604
0.940561
1.002550
1.057982
1.004934
1.134872
1.098514
1.257658
1.274943
1.295805
1.455545
1.495481
1.435876
1.683831
1.819730
1.934767
2.236962
2.291799
2.616644
3.009439
3.638864
17.808676
61.918497
207.515955
416.345596
887.888670
1015.785933
1015.785933
1015.785933
1015.785933
1015.785933
1015.785933
1015.785933
1015.785933
660.263896
273.499489
121.201873
31.843781
14.958978
11.778474
11.359453
11.810660
12.199879
15.326738
18.450618
27.014613
36.116838
51.137805
62.293410
74.786544
79.775453
80.603957
77.408552
67.893863
57.979822
44.806600
36.927462
25.968552
20.620823
15.930533
13.984442
12.445450
12.165904
12.036562
11.885762
##ZVALUE=345
0.608563
0.713468
0.543594
0.630617
0.563860
0.643730
0.707507
0.765920
0.721812
0.734925
0.623465
0.733733
0.650883
0.631809
0.625849
0.530481
0.648499
0.663996
0.743866
0.688434
0.652671
0.732541
0.897646
0.671744
0.912547
0.799894
0.952482
0.877976
0.934601
1.005530
0.883937
0.731945
1.073480
0.963807
1.050830
1.182556
1.236796
1.305938
0.994802
1.073480
1.233816
1.139641
1.228452
1.460910
1.390576
1.584888
1.559854
1.614690
1.731515
2.042651
2.211928
2.316833
2.752542
2.985597
6.241798
36.391616
105.707645
288.790464
534.954667
994.610786
1015.785933
1015.785933
1015.785933
1015.785933
1015.785933
1015.785933
1015.785933
865.400434
466.043949
168.222785
70.034862
21.409988
12.967587
11.371970
11.038780
10.925531
11.480451
13.537407
16.808510
24.499893
32.814741
46.153665
55.784583
67.161918
72.427988
75.173974
72.543621
64.216852
56.340694
44.447780
35.021901
25.651455
20.346642
15.792847
13.956428
12.309551
##ZVALUE=350
0.419617
0.669956
0.662804
0.633597
0.709891
0.548959
0.825524
0.541806
0.722408
0.716448
0.696778
0.724792
0.675917
0.694990
0.669956
0.713468
0.804663
0.693798
0.720620
0.798702
0.790954
0.694990
0.726581
0.724792
0.794530
0.839829
0.769496
0.870824
0.798702
0.775456
0.859499
0.825524
0.874996
1.029968
0.946522
0.955462
0.984669
1.141429
1.104474
0.995994
1.122952
1.076460
1.118779
1.166463
1.313686
1.220703
1.364946
1.421571
1.684427
1.652837
1.894832
1.906753
1.915693
2.209544
2.271533
2.728701
3.517866
16.086698
51.172972
168.322325
330.213904
718.418956
1015.788913
1015.788913
1015.788913
1015.788913
1015.788913
1015.788913
1015.788913
1014.205813
649.691820
273.883939
111.322999
26.542544
12.885928
10.370612
10.249615
9.550452
9.920597
10.617971
12.424588
16.925931
21.784902
30.145645
39.064884
50.640702
59.508681
67.039728
68.597794
66.891909
61.815977
51.691532
43.009520
32.361746
25.233626
18.867850
##ZVALUE=355
0.721812
0.730753
0.736713
0.672936
0.753999
0.546575
0.691414
0.670552
0.697970
0.757575
0.775456
0.701547
0.708699
0.682473
0.589490
0.653863
0.784993
0.816584
0.765920
0.698566
0.573993
0.874996
0.794530
0.872612
0.710487
0.804663
0.895858
0.739694
0.907779
0.874996
0.881553
0.808835
0.808835
0.831485
0.883937
0.914931
1.082420
1.072884
1.092553
1.020432
1.129508
1.077652
1.070499
1.142621
1.172423
1.266599
1.257658
1.346469
1.385808
1.511574
1.472831
1.640916
1.662970
1.847744
1.983643
2.235770
2.494454
2.623796
3.097653
8.210540
27.983785
111.373663
232.539773
509.361625
848.224759
1015.785933
1015.785933
1015.785933
1015.785933
1015.785933
1015.785933
1015.785933
915.657878
384.375453
164.636970
40.512681
15.748739
10.218620
9.965897
9.242892
9.047985
9.556413
9.851456
11.619925
14.029741
19.694567
26.362538
36.171675
43.900609
52.719712
59.634447
62.972903
61.642528
55.941939
49.529672
40.318966
##ZVALUE=360
0.627637
0.707507
0.618696
0.660419
0.637770
0.571609
0.644922
0.624657
0.659823
0.591874
0.587702
0.784993
0.693798
0.558496
0.644922
0.568628
0.701547
0.691414
0.594854
0.698566
0.792742
0.667572
0.676513
0.836849
0.813603
0.829697
0.717640
0.843406
0.889897
0.915527
0.951886
0.766516
1.043677
0.816584
0.873804
0.890493
0.990629
0.894666
0.965595
1.014471
1.079440
1.096725
1.003742
1.164675
1.112819
1.112819
1.224875
1.260638
1.405478
1.364946
1.264811
1.508594
1.635551
1.564622
1.486540
1.840591
1.906753
2.078414
2.381802
2.612472
2.946854
4.334450
13.133883
59.399605
142.090917
351.364613
614.023805
1015.785933
1015.785933
1015.785933
1015.785933
1015.785933
1015.785933
1015.785933
960.718989
479.359627
238.629580
76.173544
26.592612
10.435581
9.109974
8.988976
8.538961
8.645654
8.388758
8.907914
9.812713
12.468696
15.489459
22.236705
28.858781
39.456487
45.579672
52.909851
56.569576
57.217479
##ZVALUE=365
0.538826
0.556707
0.669956
0.774860
0.664592
0.668764
0.672936
0.655651
0.589490
0.710487
0.694990
0.655651
0.805855
0.744462
0.757575
0.655651
0.720620
0.775456
0.677705
0.771880
0.771880
0.738502
0.711679
0.598431
0.712872
0.753999
0.807643
0.716448
0.884533
0.694990
0.589490
0.899434
0.846982
0.929832
0.926852
0.830889
0.799894
0.780821
0.911951
0.963807
0.954866
0.981688
1.015663
0.996590
1.098514
1.179576
1.080632
1.145601
1.241565
1.134872
1.133680
1.203418
1.291633
1.403689
1.513958
1.671910
1.733899
1.862645
1.971722
1.936555
2.345443
2.292991
2.588630
3.148913
6.221533
33.436418
91.642737
249.462724
466.035604
889.718533
1015.785933
1015.785933
1015.785933
1015.785933
1015.785933
1015.785933
1015.785933
669.767857
364.947915
120.973587
42.203665
11.488795
8.814931
8.331537
7.965565
7.712841
7.703900
7.531643
7.810593
8.506775
10.124445
14.114976
17.951727
25.939941
32.441616
40.872693
##ZVALUE=370
0.592470
0.583529
0.613928
0.561476
0.649691
0.505447
0.697970
0.675917
0.803471
0.723600
0.634789
0.698566
0.628829
0.667572
0.520945
0.616908
0.711679
0.621676
0.678897
0.703931
0.772476
0.670552
0.770688
0.749826
0.821948
0.781417
0.814795
0.797510
0.610948
0.806451
0.906587
0.730753
0.806451
0.869632
0.818968
0.733733
0.891685
0.960827
0.947714
0.887513
0.982881
0.895858
0.866652
1.022816
0.939965
0.952482
1.076460
1.110435
1.089573
1.080632
1.149774
1.176000
1.144409
1.265407
1.258850
1.420975
1.434684
1.491904
1.407862
1.693964
1.707673
1.835823
2.098680
2.360940
2.598763
2.738833
3.941655
17.879605
58.826804
196.271539
372.828841
721.734762
1014.731526
1015.785933
1015.785933
1015.785933
1015.785933
1015.785933
1015.785933
828.622580
475.477576
181.028843
71.289539
17.510653
8.986592
7.506609
7.443428
7.067919
6.939769
6.692410
6.546974
7.097721
7.569790
9.168983
11.599660
16.592741
##ZVALUE=375
0.651479
0.676513
0.613928
0.533462
0.713468
0.642538
0.536442
0.670552
0.597835
0.603795
0.510812
0.654459
0.604987
0.532866
0.576973
0.682473
0.637770
0.684857
0.536442
0.690818
0.775456
0.933409
0.534654
0.713468
0.699759
0.716448
0.787973
0.570416
0.697970
0.812411
0.787973
0.788569
0.930429
0.660419
0.792742
0.846982
0.835657
0.771880
0.844598
0.863671
0.918508
0.820756
0.812411
0.936985
0.867844
1.031756
1.030564
0.931621
1.079440
0.975728
0.949502
0.977516
1.200438
1.123548
1.162887
1.210570
1.027584
1.240969
1.205802
1.355410
1.419783
1.542568
1.550913
1.850724
1.751781
2.007484
2.331734
2.656579
2.955794
9.688735
35.158396
127.968788
277.584791
610.463619
935.559869
1015.790701
1015.790701
1015.790701
1015.790701
1015.790701
1015.790701
991.465449
671.018958
332.775712
159.711838
42.206645
13.669729
7.898808
6.901622
6.735921
6.718636
6.489754
6.438494
6.396770
6.559491
7.263422
##ZVALUE=380
0.491738
0.449419
0.532866
0.457764
0.665784
0.489950
0.661612
0.489950
0.732541
0.521541
0.536442
0.516772
0.675917
0.627637
0.654459
0.524521
0.583529
0.607967
0.679493
0.547767
0.603795
0.680685
0.623465
0.520945
0.651479
0.562668
0.647902
0.590682
0.703931
0.604987
0.726581
0.699759
0.693798
0.711679
0.714660
0.639558
0.751615
0.815988
0.677705
0.922680
0.946522
0.748634
0.860691
0.868440
0.822544
0.818968
0.900626
0.886917
0.941753
0.853539
0.824928
0.892878
0.884533
0.986457
0.967979
1.234412
1.165867
1.181960
1.278520
1.162887
1.321435
1.185536
1.306534
1.518726
1.508594
1.492500
1.891851
1.938939
2.036691
2.673864
2.936721
5.038977
18.531680
87.763667
205.933452
494.988561
806.872845
1015.788913
1015.788913
1015.788913
1015.788913
1015.788913
1015.788913
1015.788913
923.300385
461.637974
232.373476
71.823001
24.162531
8.317828
6.684661
6.324649
6.205440
6.037951
5.970597
5.902648
##ZVALUE=385
0.616908
0.582933
0.589490
0.558496
0.524521
0.674725
0.462532
0.616908
0.634789
0.611544
0.505447
0.353456
0.544786
0.527501
0.662804
0.495911
0.525713
0.551939
0.593662
0.614524
0.611544
0.612736
0.531673
0.543594
0.625849
0.465512
0.584722
0.576973
0.607967
0.611544
0.681877
0.715852
0.720620
0.682473
0.747442
0.723600
0.634789
0.630617
0.806451
0.676513
0.612736
0.760555
0.845790
0.831485
0.880957
0.872612
0.941753
0.749826
0.732541
0.881553
0.924468
0.820756
0.794530
0.856519
0.936985
0.955462
1.038909
1.174808
1.071692
1.201630
1.153946
1.118779
1.253486
1.238585
1.428723
1.596808
1.631975
1.710653
1.864433
2.130866
2.439618
2.867579
3.006458
3.480911
8.821487
52.150488
135.954618
352.738500
647.691488
1015.785933
1015.785933
1015.785933
1015.785933
1015.785933
1015.785933
1015.785933
1015.785933
681.362748
387.042761
152.188540
54.999590
11.666417
6.698966
6.167889
6.057620
5.794764
##ZVALUE=390
0.612736
0.384450
0.476837
0.446439
0.699759
0.641942
0.590682
0.405908
0.417829
0.550747
0.376701
0.368953
0.404716
0.505447
0.661612
0.532866
0.598431
0.574589
0.644922
0.507832
0.496507
0.428557
0.631809
0.573993
0.614524
0.584722
0.616908
0.515580
0.668764
0.666976
0.674725
0.659823
0.901818
0.743866
0.633597
0.604987
0.594854
0.737906
0.707507
0.741482
0.850558
0.740886
0.744462
0.702739
0.665784
0.616908
0.623465
0.564456
0.667572
0.659823
0.735521
0.661612
0.794530
0.734925
0.912547
0.845790
0.871420
0.989437
1.063943
0.939965
0.919700
1.134872
0.922680
1.139641
1.240969
1.298785
1.468658
1.717806
1.797676
2.097487
2.115965
2.292991
2.531409
2.581477
2.546906
2.996922
4.343987
26.013851
83.205700
263.636708
515.218973
978.245735
1015.780568
1015.780568
1015.780568
1015.780568
1015.780568
1015.780568
1015.780568
916.126966
541.645885
217.939615
93.549490
20.673871
8.091927
5.838871
##ZVALUE=395
0.494719
0.558496
0.464916
0.552535
0.562668
0.567436
0.655651
0.511408
0.567436
0.533462
0.472665
0.575781
0.660419
0.536442
0.572801
0.509620
0.468493
0.446439
0.618696
0.498891
0.540614
0.537634
0.652671
0.572801
0.541806
0.603795
0.578761
0.587702
0.692606
0.697970
0.591874
0.698566
0.659823
0.679493
0.616908
0.574589
0.732541
0.789762
0.698566
0.835657
0.772476
0.757575
0.761747
0.691414
0.741482
0.854731
0.826716
0.791550
0.816584
0.722408
0.750422
0.736713
0.807643
0.838637
0.840425
0.921488
0.826716
1.033545
1.096725
0.934601
0.941753
1.273751
1.220703
1.200438
1.218915
1.234412
1.386404
1.462698
1.727939
1.925826
2.067685
2.128482
2.369881
2.355576
2.332926
2.450943
2.384782
2.727509
3.632903
11.205673
67.376494
162.256360
393.064618
692.022443
1015.789509
1015.789509
1015.789509
1015.789509
1015.789509
1015.789509
1015.789509
1015.789509
689.734817
367.100835
128.354430
50.359964
##ZVALUE=400
0.462532
0.563860
0.502467
0.309944
0.453591
0.494719
0.416636
0.379682
0.530481
0.650883
0.431538
0.426769
0.561476
0.670552
0.605583
0.544786
0.498891
0.566840
0.601411
0.511408
0.572801
0.692606
0.466704
0.667572
0.628829
0.559688
0.572801
0.541806
0.583529
0.636578
0.737906
0.777841
0.748634
0.737906
0.586510
0.590682
0.690818
0.744462
0.670552
0.813603
0.891685
0.652671
0.624657
0.596642
0.701547
0.558496
0.621676
0.814795
0.894666
0.780821
0.770688
0.882745
0.854731
0.927448
0.811815
0.924468
0.982881
0.863671
1.013875
0.813603
0.875592
0.943542
1.043677
0.983477
1.077652
1.146793
1.122952
1.431704
1.631975
1.744628
1.875758
1.906753
2.039671
1.983643
1.972914
2.011657
2.070665
2.073646
2.275705
2.466440
2.945662
7.184744
27.657747
110.823512
235.065818
537.970662
892.577767
1015.785933
1015.785933
1015.785933
1015.785933
1015.785933
1015.785933
1015.785933
911.410451
468.425751
##END
