##TITLE=FDDW01
##FORMAT=SPECTACLE-ASCII V-1.2
##DATA TYPE=ULTRAVIOLET SPECTRUM
##SECOND TYPE=ULTRAVIOLET SPECTRUM
##DATE=05/24/18
##TIME=15:09:15
##SPECTROMETER/DATA SYSTEM=SPECTACLE
##XUNITS=NM EM
##YUNITS=ENERGY
##YFACTOR=1
##FIRSTX=220
##LASTX=410
##NPOINTS=96
##3DDATA=Equidistant
##ZUNITS=NM EX
##FIRSTZ=210
##LASTZ=400
##ZPOINTS=39
##XYDATA=(Y..Y)
##ZVALUE=210
29.845834
27.652979
26.110411
26.629567
24.459958
21.805763
17.579794
14.165640
10.886788
8.243918
5.921721
5.068779
3.456473
3.284812
3.112555
3.931522
3.266931
3.913641
4.523993
4.171729
3.876686
4.781485
5.242825
5.936623
8.337498
9.568930
11.635423
12.727976
15.255809
17.278790
21.847486
23.618937
26.804805
29.776692
34.873486
42.091608
45.564771
49.072504
56.054592
53.914785
61.129928
58.995485
61.616898
58.516860
56.075454
55.058599
54.186583
52.056909
47.662854
46.192408
43.923855
42.564869
40.687919
36.035776
32.974482
31.149983
29.442906
26.559830
25.439858
23.229718
20.297766
19.830465
18.332601
16.796589
16.984940
18.167496
16.904473
17.828941
17.874837
18.851757
21.881461
22.141933
22.511482
23.059845
23.176670
24.393797
21.675825
21.487474
18.364787
16.503930
14.686584
13.714433
11.719465
9.774566
8.413792
7.517934
7.090569
7.589459
9.857416
12.756586
17.486811
23.897886
34.635663
46.422482
61.807632
75.908899
##ZVALUE=215
73.404908
69.150925
58.766603
43.530464
39.096475
36.452413
33.999681
32.081604
27.553439
25.454760
19.009709
15.486479
10.286570
6.724596
5.546808
4.447699
4.407763
3.761649
3.466606
4.351735
3.834963
4.786849
5.463958
5.805492
8.597970
10.471940
11.783838
14.551878
18.325448
20.261407
24.204850
26.654601
29.725432
36.300421
39.877892
43.394566
47.498941
51.037669
53.017735
53.398609
56.628585
57.887435
58.649778
55.574775
55.380464
53.499937
50.522685
49.259663
46.078563
45.333505
41.998625
42.006969
39.898753
38.002729
33.004880
31.486750
29.932857
27.660728
25.105476
24.140477
21.481514
21.075606
18.843412
17.849803
18.097758
16.050935
15.992522
16.794801
17.532706
16.971827
18.733740
18.931627
20.126700
20.038486
19.349456
20.551682
18.553734
17.444491
15.543699
13.427734
11.919737
10.859966
10.289550
9.665489
9.329915
8.280873
7.135868
6.741881
6.401539
6.440878
6.597638
6.796718
8.683801
10.760427
14.251471
20.588636
##ZVALUE=220
157.182813
157.565475
141.850710
114.853978
99.119544
72.799921
59.429407
48.650503
44.964552
45.845509
42.280555
39.144754
32.707453
27.975440
19.131899
12.832880
8.509755
6.145835
4.298687
4.075766
4.638433
4.780889
4.540682
5.876422
6.782413
9.045601
11.925697
13.754964
16.092658
19.207597
22.451878
26.563406
28.390884
32.044649
37.735701
42.450428
43.206811
50.418973
51.140785
51.321983
52.780509
52.169561
52.925944
51.572919
51.247478
49.897432
47.503710
45.781732
45.613647
42.485595
40.255785
38.189888
36.893487
33.385754
34.185648
29.973984
28.359890
26.707649
24.390817
20.467639
18.930435
19.766688
18.463731
17.926693
16.806722
16.746521
15.653968
14.340878
15.317798
16.688704
16.627908
16.409755
18.213987
15.634894
16.746521
16.055703
15.547872
13.965964
13.600588
10.751486
10.896921
10.163784
8.764863
8.748770
7.432699
7.191896
7.230639
6.865859
5.907416
6.246567
6.413460
6.253719
5.803704
6.546974
5.400777
6.848574
##ZVALUE=225
189.649463
197.236538
218.806863
232.367516
220.453739
181.230903
153.569579
110.303760
84.854960
67.814589
58.548450
58.260560
59.186816
58.224797
51.233768
44.610500
32.203794
24.927855
15.950799
11.366606
6.828904
4.845858
4.665852
5.283952
5.833507
8.053780
8.145571
11.711717
13.867617
15.635490
18.872619
22.176504
25.451779
29.795766
35.730600
41.965842
46.678782
51.229000
54.456592
56.280494
59.506893
61.226487
61.800480
60.964823
62.067509
60.753822
58.420897
57.365894
52.928925
50.928593
47.313571
45.599937
41.915774
39.306879
37.298799
35.518408
32.752752
30.517578
27.980804
24.550557
23.866892
22.117496
20.735860
18.694997
18.649697
16.297698
17.819405
16.217828
15.321970
14.603734
16.829967
17.495751
16.852617
16.035438
15.435815
14.548898
13.027787
11.800528
11.611581
10.525584
9.707808
9.264946
8.456707
7.567406
7.366538
7.615685
6.404519
6.493926
6.051660
6.124973
5.667806
5.539656
5.821586
6.397963
5.880594
6.372929
##ZVALUE=230
115.251541
124.767423
178.206563
253.993869
295.328498
323.294997
317.378640
278.104544
235.222578
186.726451
122.461915
93.111992
76.221824
73.115826
76.618791
77.357888
76.086521
68.972707
58.273673
44.317842
31.401515
19.386411
12.204647
6.709695
6.181598
6.592870
6.476641
7.944703
9.836555
11.195540
12.801886
17.498732
21.856427
31.500459
38.059950
48.254728
58.839917
66.949725
73.991418
78.242421
81.544518
88.672638
90.169907
94.022751
90.316534
88.784695
83.554983
83.146691
79.738498
74.465871
72.461963
65.689683
63.797832
57.735443
53.523779
47.410727
43.574572
38.504601
36.828518
32.772422
31.333566
28.714538
26.168823
25.033951
20.755529
21.462440
19.237995
18.698573
18.012524
17.339587
17.816424
16.472936
16.186833
16.557574
14.787912
14.173985
14.281869
12.212992
10.924935
10.162592
10.318756
9.218454
8.230805
7.604957
7.358789
7.171631
7.205606
7.150769
5.991459
6.670952
5.755424
5.903840
5.622506
5.151629
5.887747
5.337000
##ZVALUE=235
24.935603
29.888749
60.585737
131.465793
196.291804
287.874937
358.394980
412.969589
424.871445
396.579504
326.193571
251.770616
167.647004
124.509931
94.307661
84.151626
88.427663
93.767643
95.080733
93.363523
82.180500
65.723658
50.010681
32.383800
20.974874
12.780428
9.683967
8.207560
6.868839
7.902980
9.850860
12.776852
20.349622
30.413866
48.216581
61.356425
80.290437
89.248419
104.485750
110.528469
121.458769
129.985809
132.911801
135.384798
134.512782
130.052567
127.208829
123.946667
117.069483
112.926960
105.419755
99.337697
88.407993
82.691908
76.986551
70.064664
61.443448
56.337714
50.547719
47.717690
40.093660
36.726594
32.918453
31.564832
27.476549
24.869442
24.216771
21.307468
19.633770
19.045472
18.114448
18.119812
17.057657
16.512871
15.957952
14.190674
13.336539
12.516975
10.794997
10.059476
9.759665
9.049773
8.578897
7.894635
7.837415
7.041693
6.706715
6.632805
7.025599
6.129742
6.409883
6.069541
6.473660
6.023645
6.023645
6.242990
##ZVALUE=240
1.733899
2.005696
6.888509
20.115972
57.578683
101.868510
196.733475
285.113454
398.316979
459.969640
495.354533
473.561883
424.256921
324.526429
243.411660
156.029463
113.145709
88.978410
86.214542
94.395876
104.757547
105.272532
100.392699
86.271763
66.664815
52.820444
34.779906
23.259521
14.417768
11.362433
9.818673
12.786984
21.447539
37.552714
55.174828
78.792572
97.275972
117.678642
134.110451
147.799850
157.301426
164.840817
172.332525
177.366734
178.815722
170.716643
163.812637
157.307982
152.760744
142.742991
133.939981
124.085546
117.433667
104.126930
96.336603
85.826516
79.228878
68.702698
64.555407
55.979490
49.685836
44.777989
42.107701
36.165714
32.643676
29.429793
26.818514
23.515821
23.009777
21.231771
19.946694
18.153787
17.066598
16.027689
14.998913
13.791919
13.160706
11.743903
11.032820
9.939671
9.601712
9.133816
8.577704
7.576942
7.075667
7.000566
6.495714
5.984902
6.514788
5.558729
5.613565
5.615950
5.308986
5.076528
4.661679
5.467534
##ZVALUE=245
1.110435
1.188517
1.483560
1.508594
3.950596
11.896491
38.858652
79.730749
174.031854
260.398984
392.176509
474.904776
530.115962
539.315939
497.938991
402.016640
317.798853
207.615495
146.859884
96.775889
81.707835
84.967613
97.144842
107.692480
110.392570
102.517605
91.553926
76.646805
54.852962
41.000843
30.905604
23.877621
28.574467
43.368936
61.722994
87.541938
108.594894
131.762624
145.024657
163.361430
171.983838
184.232593
191.389918
197.524428
193.504691
188.212991
184.866786
176.326632
170.282722
160.371661
149.616599
138.706565
129.079819
115.068555
107.303858
93.642473
86.395741
75.460672
69.332719
60.961843
54.826736
48.392415
44.394732
39.277673
34.288764
30.319691
27.707815
26.059747
22.767782
20.792484
19.104481
17.728806
17.415881
15.582442
14.347434
12.302995
11.878610
10.919571
9.402633
9.192824
8.049607
7.843971
7.139444
6.795526
6.614923
6.320477
5.736947
6.193519
5.611777
5.166531
5.402565
4.997849
4.860759
4.930496
4.435778
5.025864
##ZVALUE=250
1.203418
1.247525
1.146793
1.213551
1.317859
1.467466
1.847744
6.120801
27.145743
57.887435
138.010979
225.940943
329.853892
461.176634
537.900925
584.373474
574.787855
493.578911
404.974818
275.697708
186.344981
122.089982
80.863833
73.968768
85.865855
97.512603
109.436512
113.626719
105.294585
97.063780
80.044866
68.160892
59.489608
60.687661
71.115494
89.235902
105.461478
125.543475
139.834881
154.328942
165.160894
174.960494
181.385875
183.792710
185.501575
179.024935
174.136758
166.229606
161.595941
149.389505
142.102838
131.875873
122.904778
108.635426
99.903941
88.467002
81.295967
71.697831
65.568686
57.879686
51.703453
44.940710
40.797591
36.208630
31.591654
28.970838
25.998950
23.291707
20.867586
19.449592
16.919971
16.006827
15.047789
13.179779
12.787580
11.631846
10.042787
9.152889
8.693933
7.661581
7.143617
6.647706
6.239414
5.766749
5.649924
5.434752
5.256534
5.236864
4.856586
4.443526
3.958941
4.287958
4.181862
4.254580
4.399419
4.312992
##ZVALUE=255
1.042485
0.998974
0.963807
1.108646
1.055598
1.075864
1.152754
1.180768
1.325607
3.722906
12.953877
45.339465
91.758966
191.658735
290.758610
395.580530
536.111593
606.925488
632.723570
596.051812
487.346649
381.056666
229.624510
150.171518
87.143779
68.045855
67.681670
84.309578
97.002983
113.217831
118.007660
118.489861
113.584995
106.880665
105.429888
105.741620
109.139681
112.745762
119.388700
129.755735
136.208534
140.256882
147.529840
150.993466
150.016546
146.693587
140.755773
134.814978
129.612684
120.782852
116.283894
104.079843
98.558664
87.385774
81.502795
73.370934
66.059828
59.302449
53.683519
46.014786
42.275786
37.152767
33.714771
29.746890
26.724935
23.625493
20.798445
18.104911
16.877651
15.538931
14.316440
13.272762
12.690425
11.357665
10.238886
9.174943
8.709431
7.566810
7.311702
6.965995
6.061792
5.338788
5.148649
4.671812
4.554987
4.314780
4.275441
4.091859
4.078746
4.116893
3.875494
3.717542
3.558993
3.440976
3.607869
3.834963
##ZVALUE=260
0.876784
0.961423
0.835657
0.822544
0.929832
0.954866
1.076460
0.954866
1.126528
1.196861
1.280904
1.611710
5.103946
23.811460
55.768490
134.821534
223.974586
372.616649
489.170551
626.026988
682.665706
681.870580
592.084527
483.270884
319.342017
216.504931
121.499896
80.264807
60.210824
64.197779
79.261661
103.824735
121.235847
138.757825
143.444538
144.849420
138.330460
126.513839
118.402839
108.947754
102.632642
100.055933
100.370646
100.478530
100.494623
95.848441
93.392730
89.631677
85.687637
79.170465
76.192617
70.413947
65.658689
59.351921
54.335594
48.494935
44.010878
40.270686
36.598444
32.408834
28.873682
25.474429
23.043752
20.519495
18.752813
15.776753
15.186667
13.036728
12.482405
11.436939
10.760427
9.844899
9.062886
8.790493
8.053780
7.400513
6.802678
5.895495
5.665421
5.141497
5.035996
4.229546
4.148483
3.960729
3.762841
3.618598
3.727674
3.760457
3.390908
3.101826
3.551841
3.246665
3.238916
3.281832
3.096461
3.259778
##ZVALUE=265
0.739694
0.742674
0.611544
0.737906
0.839829
0.805855
0.834465
0.960827
0.986457
0.843406
0.999570
1.261830
1.148582
1.374483
2.593994
14.464855
37.008524
98.265409
175.880790
331.898928
466.128588
592.613816
714.614987
737.601519
668.487549
572.360754
421.440005
295.535922
164.831877
102.698803
127.013922
56.078434
67.679882
94.841719
115.449429
137.164593
149.280429
148.077607
142.723918
125.075579
111.232996
91.589689
79.450607
66.843629
61.772466
56.025982
52.757859
50.870776
48.096776
45.904517
43.417811
40.524602
38.073659
34.781694
31.429529
28.340816
26.140809
24.140477
21.766424
19.927621
17.824769
15.760660
14.248490
12.937784
11.792779
11.026859
9.665489
9.412766
8.884668
8.154511
8.080602
7.680655
7.592440
6.914735
6.056428
5.665421
5.406737
5.066991
4.641414
4.376769
3.942847
3.646612
3.559589
3.666878
3.436804
3.310442
3.096461
3.302693
3.071427
2.922416
2.988577
2.985597
2.812743
2.835989
3.069639
3.058910
##ZVALUE=270
0.697970
0.702739
0.675917
0.721812
0.609756
0.831485
0.581741
0.735521
0.728965
0.794530
0.958443
0.966787
1.108646
0.962615
1.190901
1.139641
1.625419
4.944801
17.166734
61.118603
125.432611
266.569853
401.023626
579.041839
699.527860
774.278641
763.624907
661.999583
553.826690
380.355716
262.574553
139.591694
84.743500
54.046512
55.944920
75.062513
95.328689
120.838881
134.537816
142.861605
142.402649
129.021406
115.886927
93.778968
76.407790
56.177974
46.082735
38.630962
33.246875
30.093789
27.865767
25.565624
24.402738
22.169948
21.020770
19.203424
17.797947
16.298890
15.265942
14.026761
13.058782
11.460781
10.571480
9.640455
9.058714
8.441806
7.719994
7.181764
7.398725
6.759763
6.312728
6.180406
6.017685
5.896688
5.359650
5.048513
4.828572
4.382730
4.258752
3.878474
3.578663
3.652573
3.286600
3.152490
3.171563
2.999902
3.008842
2.833605
2.952814
2.643466
2.775788
2.684593
2.953410
2.697706
2.800822
2.910495
##ZVALUE=275
0.780821
0.569820
0.592470
0.698566
0.794530
0.530481
0.770688
0.660419
0.799894
0.712872
0.789762
0.804663
0.822544
0.815988
0.890493
0.945926
1.097918
1.247525
1.258850
2.807975
10.908842
33.419728
99.598765
189.175606
360.628963
495.776534
655.227900
749.768019
794.641972
759.216547
673.146844
503.801703
363.217592
198.706985
120.877624
63.693523
50.351620
57.324767
72.776675
96.258521
114.109516
132.028461
138.074756
134.493709
125.794411
105.546713
88.972449
67.706704
53.132772
38.489699
31.256676
25.100708
22.483468
20.052791
18.652678
16.694665
16.153455
14.773607
13.492703
12.691617
11.439919
10.237694
9.845495
9.181499
8.269548
7.746816
7.336736
7.002950
6.759763
6.419420
6.329417
5.850792
5.621910
5.540848
5.399585
4.994869
4.481673
3.974438
4.005432
3.570914
3.536940
3.201962
3.187656
3.152490
2.998710
2.938509
2.695918
2.843738
2.563596
2.670884
2.366900
2.613664
2.525449
2.757907
2.480745
2.605915
##ZVALUE=280
0.633597
0.580549
0.683665
0.693798
0.724792
0.810623
0.620484
0.749826
0.814795
0.813603
0.836849
0.767708
0.930429
0.921488
0.811815
0.900626
0.864863
1.037717
1.058578
1.010895
1.288652
1.610518
6.623864
22.887588
75.693727
143.254399
276.156664
408.046842
591.110587
712.738633
792.993903
804.833770
737.570524
575.214624
431.045890
255.979896
159.025788
78.354478
51.693916
44.244528
53.243637
73.483586
90.197921
111.912489
123.556852
130.892992
128.572583
116.258860
102.093816
79.862475
63.142776
44.264793
34.183860
24.312735
19.110441
15.486479
14.129877
12.983680
11.963844
11.020899
10.533929
9.494424
8.895993
8.422732
7.836819
7.363558
6.735921
6.414652
6.215572
5.649924
5.621910
5.628467
5.341768
5.037785
4.803538
4.307628
4.160404
3.943443
3.561974
3.544688
3.227592
3.098845
2.899766
2.773404
2.912879
2.803802
2.663732
2.837777
2.720952
2.609491
2.415776
2.353787
2.525449
2.496839
2.418756
2.409816
##ZVALUE=285
0.592470
0.601411
0.621676
0.636578
0.784993
0.798702
0.593662
0.658631
0.599623
0.583529
0.437498
0.743866
0.601411
0.578761
0.813603
0.749826
0.805855
0.868440
1.016855
0.907779
0.952482
1.054406
1.170635
1.205802
3.133416
10.809898
39.565563
87.897778
198.430419
311.777592
496.332645
634.108782
781.058669
830.316544
787.224770
693.067908
514.890552
367.001891
203.952789
121.004581
58.706999
37.985444
35.878420
44.977665
63.006878
78.706741
98.951459
111.246705
119.485855
118.678808
108.264685
95.531940
74.507594
58.515668
38.889647
28.276443
18.077493
13.408661
10.584593
9.241700
8.233786
7.687807
6.959438
6.554723
6.316900
6.175637
5.418658
5.469918
5.262494
4.964471
4.817843
4.805923
4.884601
4.505515
4.064441
4.116893
3.509521
3.411770
3.274679
2.955794
2.929568
2.993941
2.875924
2.817512
2.837777
2.662539
2.782941
2.622604
2.634525
2.773404
2.606511
2.643466
2.455711
2.353787
2.239943
2.348423
##ZVALUE=290
0.658631
0.655651
0.809431
0.816584
0.764728
0.798702
0.721812
0.745654
0.877976
0.800490
0.928640
0.944734
0.964999
0.876784
0.850558
0.820756
0.869632
0.875592
0.834465
0.923872
0.962615
1.137853
1.242757
1.172423
1.162887
1.460910
1.787543
4.434586
21.469593
51.969886
105.215907
232.381821
368.352532
579.085946
715.662837
831.956863
840.974450
750.101805
628.198981
435.849428
298.283696
154.152513
84.528923
35.524964
24.578571
28.157830
36.452413
52.757859
67.099929
87.753534
99.542737
109.078884
108.802915
100.718737
88.107586
66.629648
50.985813
33.859611
23.073554
14.048815
9.656549
6.984472
5.810857
5.232692
4.771948
4.685521
4.382730
4.435778
4.375577
4.279613
4.136562
4.201531
4.177690
3.957748
3.622770
3.570914
3.486872
3.209710
3.065467
2.793670
2.696514
2.823472
2.754927
2.812743
2.781749
2.903938
2.676845
2.505779
2.761483
2.515912
2.580881
2.750754
2.585649
2.614856
2.703667
2.563000
##ZVALUE=295
0.500679
0.560880
0.483990
0.559688
0.513792
0.426769
0.596642
0.525713
0.694990
0.551939
0.622869
0.684857
0.769496
0.693798
0.564456
0.588894
0.710487
0.802875
0.858903
0.731945
0.738502
0.787973
0.914931
0.848770
0.800490
0.979900
1.032948
1.166463
1.183748
2.014637
10.024905
29.750466
72.177649
179.943442
301.264524
497.921705
644.119978
796.642900
845.574737
803.850889
705.964565
522.359014
368.349552
198.173523
111.841559
43.744445
22.079945
15.769601
19.550920
30.721426
42.483807
60.742497
74.644685
90.666413
98.315477
99.944472
93.919635
78.324676
64.716935
45.873523
32.786727
19.563437
12.279749
7.441640
5.206466
3.622770
3.381968
3.365874
3.233552
3.247857
3.345609
3.163815
3.160834
3.143549
3.263950
2.957582
2.700686
2.605915
2.599955
2.619624
2.451539
2.464652
2.238750
2.352595
2.456903
2.401471
2.254844
2.426505
2.407432
2.278686
2.283454
2.164841
2.282858
2.477765
2.256632
2.136827
##ZVALUE=300
0.404716
0.584722
0.531673
0.430942
0.533462
0.593662
0.555515
0.521541
0.457764
0.492930
0.472665
0.640750
0.549555
0.523925
0.731945
0.747442
0.558496
0.552535
0.667572
0.612736
0.752807
0.698566
0.768900
0.870824
0.879765
0.768900
0.845790
0.916719
0.907779
1.156926
1.222491
1.383424
4.068613
14.520884
53.770542
112.113953
241.362453
378.915668
581.544638
715.152025
831.086636
847.845674
761.666894
641.523004
439.917445
293.827653
151.551962
82.480907
30.832887
14.314651
11.466742
15.557408
24.979711
35.340786
53.234696
67.567825
84.198713
91.611743
93.776584
90.114474
76.776743
63.188672
45.689940
33.093691
19.581914
12.298822
6.765723
4.651546
3.210902
3.037453
2.762675
2.951622
2.732873
2.684593
2.764463
2.731681
2.623796
2.502799
2.418756
2.294779
2.318621
2.427697
2.319813
2.277493
2.117753
2.063513
2.137423
2.200603
2.203584
2.092719
2.303720
2.085567
2.186894
2.052784
2.011657
1.797676
##ZVALUE=305
0.477433
0.535846
0.488758
0.379682
0.583529
0.570416
0.580549
0.452995
0.494719
0.557899
0.518560
0.620484
0.736713
0.664592
0.531673
0.369549
0.643730
0.399947
0.530481
0.561476
0.651479
0.749826
0.644922
0.670552
0.681877
0.763535
0.807643
0.783801
0.968575
0.938773
0.823736
1.041889
1.066923
1.209974
1.734495
9.280443
27.829409
87.583661
165.052414
320.961475
468.785763
666.293502
783.389807
852.299929
819.766521
677.545667
540.847778
351.972580
224.161744
104.451776
51.112771
17.023683
9.427667
9.847879
13.833642
23.595691
34.104586
50.294995
63.791871
79.396963
86.981654
89.057684
84.752440
73.578954
61.282516
43.618679
31.060576
17.893910
11.318922
6.480813
4.451871
3.274679
2.877712
2.715588
2.497435
2.179742
2.278686
2.075434
2.138615
2.115965
2.027750
2.132654
2.252460
2.136827
2.233982
2.077818
2.164841
2.040863
2.160668
1.933575
2.061725
1.906753
1.861453
1.804829
1.901984
1.919866
##ZVALUE=310
0.444651
0.568628
0.404716
0.484586
0.411868
0.393987
0.483990
0.544786
0.600815
0.478625
0.518560
0.576973
0.493526
0.629425
0.486970
0.367761
0.540614
0.503659
0.647902
0.582933
0.530481
0.604987
0.514984
0.580549
0.622869
0.794530
0.828505
0.867844
0.759959
0.725985
0.744462
0.952482
0.933409
1.011491
1.051426
1.153946
1.537800
3.989935
12.831688
48.918724
102.875829
227.880478
366.674662
575.159788
714.930892
839.440823
854.461789
776.099563
658.790469
459.416509
314.850807
161.481500
86.666942
30.883551
12.552738
7.393956
8.468628
12.961626
18.751621
30.066967
41.588545
58.534741
69.358945
80.786943
83.923936
80.961585
72.696805
58.226585
45.332909
29.040575
20.464659
11.704564
7.330775
4.231930
2.969503
2.475977
2.286434
1.980662
1.877546
1.981854
1.878738
1.853704
1.918674
1.957417
1.907945
2.127886
1.951456
1.944900
1.933575
1.775622
1.886487
1.855493
1.878738
1.845956
1.725554
1.890659
##ZVALUE=315
0.472665
0.471473
0.404716
0.542998
0.540614
0.520945
0.339746
0.554919
0.385642
0.456572
0.533462
0.499487
0.586510
0.490546
0.547767
0.548959
0.400543
0.410676
0.550747
0.340939
0.477433
0.380874
0.617504
0.566840
0.488758
0.716448
0.683665
0.591874
0.604987
0.578761
0.703931
0.683665
0.825524
0.667572
0.821948
0.997782
0.934601
1.183748
1.116991
1.900792
6.241798
29.023886
68.946481
168.880820
288.692713
496.453643
639.926791
790.022016
851.996541
824.026465
731.362700
548.663735
399.151444
219.371915
121.252537
44.527650
18.441677
7.064939
6.187558
7.786751
10.357499
17.984509
25.695562
39.086938
51.159859
65.367818
74.117780
78.386664
76.853633
67.607760
57.318807
42.063594
30.617714
18.065572
11.348724
5.975962
3.813505
2.892613
2.117753
1.917481
1.765490
1.789927
1.782775
1.794696
1.641512
1.752973
1.724958
1.785755
1.812577
1.705885
1.675487
1.686811
1.762509
1.719594
1.730919
1.675487
##ZVALUE=320
0.430942
0.490546
0.576973
0.466704
0.480413
0.414848
0.365973
0.390410
0.376701
0.480413
0.437498
0.397563
0.666976
0.496507
0.406504
0.619888
0.627637
0.593662
0.616908
0.632405
0.669956
0.641942
0.481606
0.632405
0.749826
0.543594
0.580549
0.759959
0.590682
0.691414
0.621676
0.685453
0.723600
0.789762
0.741482
0.819564
0.888705
0.916719
0.897646
0.984669
1.363754
1.369715
2.827644
15.136600
42.656660
122.924447
214.474797
382.012725
531.005859
720.475912
817.507505
851.689577
796.294808
636.947751
484.790802
281.301737
165.786743
70.974827
31.248927
9.429455
5.940795
5.813837
6.400943
9.854436
14.210939
24.161935
34.423470
49.241781
59.815645
70.690513
73.933601
72.762966
66.165924
52.844882
40.821433
26.850700
18.488765
10.554790
6.429553
3.624558
2.514720
2.020597
1.817942
1.885891
1.748800
1.646876
1.537800
1.638532
1.506805
1.421571
1.543760
1.578927
1.452565
1.554489
1.472831
1.608729
##ZVALUE=325
0.424981
0.453591
0.415444
0.441670
0.390410
0.465512
0.450611
0.332594
0.455976
0.409484
0.319481
0.637770
0.517964
0.598431
0.305772
0.516772
0.371933
0.477433
0.482798
0.439882
0.477433
0.392795
0.558496
0.470877
0.471473
0.413656
0.557899
0.528693
0.590682
0.586510
0.667572
0.548959
0.552535
0.672936
0.535846
0.582933
0.770688
0.829697
0.709891
0.883937
0.935793
1.062751
0.972748
1.148582
1.809597
9.249449
26.574731
80.824494
153.923631
309.607983
454.691648
650.931001
769.719481
847.803950
820.804834
686.993003
538.913012
343.502760
215.828419
97.532868
46.939850
14.135838
6.528497
4.762411
4.894733
6.478429
8.796453
14.820695
21.933913
34.684539
45.012832
57.449937
65.523982
69.851875
68.537593
58.892965
49.962997
36.735535
27.105808
15.816689
9.973645
5.288720
3.678799
2.615452
2.090931
1.865625
1.618862
1.595616
1.610518
1.457930
1.428723
1.551509
1.514554
1.498461
1.350641
1.431704
##ZVALUE=330
0.320673
0.426769
0.358820
0.326633
0.459552
0.373721
0.355840
0.383854
0.469685
0.331998
0.339746
0.500679
0.458956
0.304580
0.337958
0.345707
0.348687
0.401735
0.408888
0.450611
0.588894
0.437498
0.509620
0.575781
0.696778
0.488758
0.516772
0.451803
0.616908
0.512600
0.488758
0.612736
0.557899
0.600815
0.675917
0.631809
0.750422
0.863671
0.783801
0.768900
0.699759
0.760555
0.817776
0.973940
0.963807
1.120567
1.255870
3.828406
13.026595
50.512552
105.905533
233.431458
362.991691
564.934611
708.798766
827.177763
838.579535
745.806694
617.315769
420.247912
280.206800
136.084557
69.633722
23.850799
9.210706
4.857779
4.364848
4.696846
5.624890
8.914471
12.994409
20.807981
29.863715
43.179989
52.350760
61.877966
64.901710
62.944889
57.550669
45.673847
35.679936
23.661852
16.699433
10.095835
6.486773
3.657937
2.645850
1.984835
1.791716
1.610518
1.396537
1.479983
1.487732
1.552701
1.333952
1.289845
##ZVALUE=335
0.290871
0.267625
0.240803
0.377893
0.288486
0.357628
0.442863
0.402927
0.162721
0.388622
0.410676
0.382662
0.267625
0.146627
0.233650
0.211596
0.266433
0.327826
0.304580
0.336766
0.543594
0.269413
0.260472
0.291467
0.505447
0.402927
0.359416
0.379682
0.446439
0.406504
0.466704
0.467896
0.626445
0.487566
0.418425
0.463724
0.570416
0.579953
0.604987
0.705719
0.647902
0.609756
0.647902
0.622869
0.813603
0.798702
0.819564
0.916719
0.956655
1.775622
6.214976
28.921962
68.596601
169.683695
291.090608
493.493676
649.873018
797.650814
841.136575
791.547894
687.748790
493.015647
346.674919
189.178586
100.855827
34.807920
13.635755
5.378723
4.274845
4.182458
4.402995
5.140901
7.557869
12.702942
18.913746
29.317737
38.651824
49.482584
56.421757
60.605407
59.099793
51.862001
44.931769
34.212470
26.318431
16.517639
10.761619
6.154776
4.030466
2.493858
1.868606
1.685619
1.455545
1.432896
1.464486
1.657605
##ZVALUE=340
0.412464
0.454783
0.390410
0.411868
0.454783
0.487566
0.469685
0.328422
0.278950
0.382662
0.415444
0.460744
0.561476
0.415444
0.498891
0.498891
0.466704
0.388622
0.513792
0.529885
0.390410
0.412464
0.396967
0.385642
0.402927
0.352859
0.425577
0.306964
0.389814
0.428557
0.411868
0.516772
0.436902
0.514984
0.596642
0.553727
0.668764
0.536442
0.513792
0.618696
0.591874
0.586510
0.529885
0.653863
0.688434
0.784993
0.827909
0.896454
0.799894
0.952482
0.973940
1.328588
3.089905
16.971827
46.040416
129.819512
235.051513
418.057442
569.986701
747.226477
823.534727
820.728540
742.005706
569.350719
416.170955
228.553414
129.458904
51.805973
20.059943
6.292462
4.495978
4.177690
4.116893
4.199743
5.062819
7.660985
11.428595
18.542409
26.475787
38.259625
45.794845
53.927898
56.389570
55.213571
51.114559
42.324662
34.346581
23.971796
17.348528
10.629892
6.638765
3.790855
2.591610
1.960993
1.683831
1.596808
##ZVALUE=345
0.371933
0.280738
0.281930
0.232458
0.312924
0.380874
0.327826
0.397563
0.429749
0.418425
0.323653
0.355840
0.408888
0.272989
0.393987
0.506639
0.314713
0.450611
0.368953
0.468493
0.520945
0.528693
0.330806
0.473857
0.478625
0.578761
0.477433
0.445843
0.394583
0.514984
0.463724
0.576973
0.512600
0.632405
0.497699
0.564456
0.475645
0.534654
0.655651
0.629425
0.576973
0.533462
0.592470
0.551939
0.671744
0.785589
0.749826
0.844598
0.761747
0.869632
0.789762
0.880957
0.909567
1.163483
1.672506
9.029508
28.593540
88.797808
165.769458
322.221518
467.919707
663.411617
770.336986
823.272467
780.513883
631.518960
486.209989
295.552015
173.576474
69.519877
30.068755
8.810759
5.022883
4.361868
3.984571
3.625751
3.720522
4.643798
6.264448
10.872483
16.253591
25.447607
32.830834
41.225553
47.694445
51.870942
51.534772
47.016740
42.030811
32.793880
25.009513
16.100407
11.335611
6.504655
4.496574
3.158450
##ZVALUE=350
0.378489
0.315905
0.335574
0.333786
0.356436
0.412464
0.335574
0.337958
0.214577
0.419617
0.462532
0.297427
0.337958
0.257492
0.297427
0.398755
0.504851
0.567436
0.354648
0.448823
0.525713
0.298619
0.446439
0.320673
0.448823
0.418425
0.528693
0.509620
0.459552
0.465512
0.583529
0.478625
0.436902
0.577569
0.481606
0.576973
0.521541
0.487566
0.482798
0.535846
0.617504
0.435710
0.573993
0.556707
0.545979
0.731945
0.703931
0.674725
0.868440
0.816584
0.917912
0.803471
0.835657
1.016855
0.961423
1.049638
1.474619
4.363656
15.111566
55.512786
119.153857
273.543596
427.509546
644.436479
790.915489
887.898803
863.823891
726.584792
570.248961
349.342823
219.455957
103.098750
47.066808
13.038516
5.895495
4.124641
3.821850
3.591776
3.292561
3.448725
3.941655
6.415844
9.177923
14.424920
20.341873
29.566884
36.371946
44.385791
48.220754
50.148964
48.201680
43.776631
38.906932
32.950640
28.885603
25.152564
##ZVALUE=355
0.480413
0.306964
0.451803
0.451803
0.317693
0.378489
0.395775
0.338554
0.304580
0.440478
0.329614
0.341535
0.297427
0.239611
0.312924
0.570416
0.393987
0.492930
0.446439
0.450611
0.437498
0.356436
0.337958
0.352859
0.388622
0.447631
0.384450
0.458956
0.527501
0.476837
0.454783
0.557899
0.507832
0.534654
0.439882
0.474453
0.516772
0.556707
0.474453
0.529885
0.530481
0.618696
0.679493
0.631809
0.712872
0.766516
0.633597
0.717640
0.686646
0.808835
0.743866
0.639558
0.800490
0.939965
0.780821
0.960827
1.233816
1.207590
1.329780
2.466440
7.855892
34.647584
79.344511
201.189518
365.293622
657.761693
870.790482
1015.779972
1015.779972
939.950943
748.202801
481.156707
295.112729
128.910542
62.448978
19.107461
7.395744
4.304647
3.745556
3.506541
3.416538
3.164411
3.424883
4.402995
5.619526
9.008646
13.408661
21.350980
28.242469
38.789511
47.763586
57.699680
63.905716
68.630576
70.770979
70.283413
##ZVALUE=360
0.345707
0.419617
0.635982
0.488758
0.417829
0.304580
0.415444
0.464916
0.243783
0.313520
0.292659
0.226498
0.506639
0.445843
0.398755
0.467896
0.370741
0.594854
0.615716
0.465512
0.458956
0.362992
0.374913
0.337958
0.523925
0.561476
0.473857
0.497699
0.535846
0.521541
0.528693
0.450611
0.677705
0.498891
0.568628
0.466704
0.635982
0.481606
0.502467
0.526905
0.581741
0.713468
0.661612
0.702739
0.709891
0.746846
0.602603
0.704527
0.689626
0.702739
0.881553
0.736713
0.861883
0.971556
0.925660
0.910759
0.957847
1.129508
1.313686
1.339912
1.551509
1.743436
3.685951
16.379952
45.065880
133.131742
251.993537
497.734547
752.244592
1015.793681
1015.793681
1015.793681
1004.011035
684.576631
436.308980
194.797516
95.917583
34.328699
12.945533
4.848838
4.251599
3.695488
3.683567
3.513694
3.805757
4.384518
5.520582
8.100867
11.728406
19.029975
28.140545
42.908788
55.210590
72.822571
84.817410
96.877813
##ZVALUE=365
0.395775
0.619888
0.383854
0.460744
0.481606
0.537634
0.465512
0.495911
0.411868
0.411868
0.488758
0.460744
0.599623
0.594854
0.582933
0.476837
0.489950
0.567436
0.543594
0.547767
0.515580
0.531673
0.637770
0.531673
0.624657
0.571609
0.537634
0.558496
0.597835
0.561476
0.609756
0.599623
0.375509
0.512600
0.580549
0.603795
0.537634
0.536442
0.707507
0.651479
0.518560
0.687838
0.680685
0.758767
0.757575
0.656843
0.675917
0.764728
0.675917
0.616908
0.712872
0.900626
0.851750
0.868440
0.878572
0.934601
0.960827
0.859499
0.968575
1.017451
1.143813
1.315475
1.520514
1.622438
2.254844
9.143949
25.811791
82.456470
173.232555
387.156010
594.675541
892.926455
1015.829444
1015.829444
1015.829444
862.905979
615.226626
328.476429
165.980458
52.477717
20.042658
6.098747
4.520416
4.120469
4.192591
4.516840
5.159974
6.803870
8.801818
13.131499
18.498898
29.122829
38.727522
55.678487
69.449544
87.955594
##ZVALUE=370
0.506639
0.377893
0.487566
0.535846
0.454783
0.494719
0.520945
0.368953
0.370741
0.412464
0.421405
0.356436
0.405908
0.415444
0.437498
0.430942
0.461936
0.417829
0.429749
0.341535
0.388622
0.526905
0.476837
0.577569
0.603795
0.412464
0.524521
0.510812
0.343919
0.559688
0.637770
0.380874
0.435710
0.432730
0.572801
0.392795
0.702739
0.482798
0.598431
0.560880
0.580549
0.630617
0.603795
0.674725
0.670552
0.748634
0.587702
0.635982
0.728965
0.634789
0.658631
0.604987
0.743866
0.713468
0.696778
0.668764
0.695586
0.860691
0.800490
0.888705
0.997782
0.918508
1.111627
1.197457
1.226664
1.391768
1.743436
4.687905
15.606880
55.637956
116.014481
260.072947
435.706973
736.897588
963.440537
1015.794873
1015.794873
1012.292504
820.525885
484.744906
276.033878
100.433826
38.169622
9.695888
5.410910
4.827976
5.299449
6.591678
8.490682
12.557507
17.090440
24.776459
32.233596
44.073462
54.504871
68.952441
##ZVALUE=375
0.474453
0.353456
0.273585
0.348687
0.372529
0.503659
0.484586
0.389814
0.365973
0.445843
0.324845
0.542998
0.461936
0.468493
0.457764
0.409484
0.405908
0.423789
0.325441
0.428557
0.529885
0.508428
0.458956
0.426769
0.368953
0.361800
0.180602
0.460744
0.353456
0.453591
0.465512
0.522733
0.590682
0.724792
0.595450
0.602603
0.560880
0.524521
0.594854
0.608563
0.583529
0.489950
0.621676
0.543594
0.706911
0.558496
0.565648
0.510812
0.744462
0.597835
0.480413
0.597835
0.761747
0.638962
0.691414
0.722408
0.712872
0.832677
0.777841
0.788569
0.762939
0.760555
0.894666
0.860691
1.033545
0.986457
1.254678
1.240969
1.528859
2.739429
7.479787
30.200481
72.287917
178.413987
306.503773
537.436604
737.814903
987.906456
1015.823483
1015.823483
993.188620
709.422827
488.631725
254.470706
126.801729
33.914447
10.758638
6.868839
8.405447
11.272430
15.128851
22.222996
28.937459
39.510727
47.711730
58.708787
##ZVALUE=380
0.366569
0.317693
0.444651
0.592470
0.391603
0.459552
0.356436
0.373721
0.340939
0.370741
0.370741
0.375509
0.367761
0.322461
0.396967
0.322461
0.412464
0.236630
0.458956
0.348687
0.298619
0.251532
0.432730
0.279546
0.446439
0.424981
0.520945
0.438690
0.424981
0.432730
0.507832
0.500679
0.553727
0.401735
0.502467
0.475645
0.689626
0.600815
0.681877
0.766516
0.648499
0.590682
0.669956
0.501871
0.672936
0.729561
0.540614
0.529885
0.635982
0.621676
0.499487
0.581741
0.697970
0.489950
0.718832
0.588894
0.591874
0.572801
0.705719
0.570416
0.653863
0.701547
0.742674
0.754595
0.782609
0.991821
0.719428
1.152754
1.038909
1.335740
1.516938
1.704693
4.474521
21.530986
52.258968
130.631924
229.672790
413.973927
580.822825
805.690885
927.398801
967.219472
903.615952
732.079744
553.136468
319.285989
184.447765
74.454546
30.082464
10.603666
10.613799
14.622808
18.837452
25.308728
30.910969
37.362576
##ZVALUE=385
0.201464
0.398755
0.271797
0.176430
0.364780
0.345707
0.299811
0.450611
0.244975
0.365973
0.332594
0.262856
0.305772
0.300407
0.234842
0.290871
0.170469
0.326633
0.375509
0.295639
0.209808
0.390410
0.361800
0.366569
0.466704
0.469685
0.448823
0.590682
0.462532
0.547767
0.640750
0.622869
0.607967
0.600815
0.796914
0.581741
0.665784
0.774860
0.807643
0.734925
0.680685
0.645518
0.765920
0.603795
0.640750
0.543594
0.705719
0.677705
0.648499
0.628829
0.579953
0.695586
0.532866
0.618696
0.648499
0.613928
0.542998
0.606775
0.565648
0.726581
0.654459
0.731945
0.659823
0.650883
0.732541
0.815988
0.723600
0.882745
0.962615
1.027584
1.120567
1.003742
1.126528
1.379848
2.044439
10.300875
29.596686
86.218715
163.760781
312.193632
451.862812
645.086765
766.914487
859.264731
852.905512
730.544925
578.820705
364.594460
208.568573
73.793530
30.472875
12.747645
11.970997
14.801621
17.436743
21.814704
##ZVALUE=390
0.229478
0.345707
0.300407
0.192523
0.288486
0.235438
0.143647
0.246763
0.335574
0.217557
0.335574
0.278950
0.308752
0.242591
0.287890
0.335574
0.301600
0.427961
0.262856
0.414848
0.249743
0.300407
0.282526
0.349879
0.352859
0.396967
0.484586
0.510812
0.558496
0.682473
0.669956
0.735521
0.858903
0.873804
0.872612
0.974536
0.891685
0.913739
1.059771
0.851750
0.884533
0.977516
0.864863
0.702739
0.813603
1.003742
0.859499
1.014471
0.767708
0.829697
0.820756
0.633597
0.754595
0.770688
0.774860
0.635982
0.478625
0.666976
0.533462
0.489950
0.699759
0.564456
0.657439
0.638962
0.444651
0.609756
0.711679
0.856519
0.766516
0.886917
1.114607
0.925660
1.041889
0.887513
0.912547
0.994802
1.265407
4.925728
17.185807
60.982704
125.365853
259.392858
376.330614
530.827641
641.742945
744.367838
764.464736
710.322857
613.176823
433.749557
281.589627
124.576688
56.783557
19.604564
15.645623
17.304420
##ZVALUE=395
0.397563
0.389814
0.184774
0.226498
0.323653
0.241995
0.160933
0.385642
0.283718
0.407696
0.411868
0.391603
0.234842
0.325441
0.277758
0.249743
0.357628
0.382662
0.353456
0.250936
0.333786
0.369549
0.311732
0.360608
0.347495
0.315905
0.620484
0.492930
0.552535
0.660419
0.721812
0.687838
0.826716
0.973940
0.792742
0.924468
0.919700
0.912547
1.018643
1.135468
0.888705
1.066923
1.107454
1.118779
1.080632
1.106858
1.154542
1.170635
1.050830
0.905991
0.895858
0.856519
0.813603
0.709891
0.628829
0.755787
0.765920
0.763535
0.586510
0.746846
0.817776
0.731945
0.728965
0.637770
0.678897
0.714660
0.757575
0.738502
0.787973
0.797510
0.828505
0.953674
0.921488
0.800490
0.910759
0.869632
0.749826
0.902414
1.146793
2.708435
10.179877
41.864514
87.235570
184.207559
291.815996
460.667610
581.590533
689.784884
716.110468
672.968626
584.743619
431.580544
309.397578
167.850852
91.926455
34.524798
##ZVALUE=400
0.324845
0.305772
0.314713
0.160933
0.219941
0.319481
0.247955
0.400543
0.315905
0.332594
0.368953
0.321865
0.244975
0.314713
0.235438
0.210404
0.269413
0.346899
0.257492
0.297427
0.345707
0.155568
0.354648
0.319481
0.408888
0.377893
0.321865
0.395775
0.462532
0.491738
0.497699
0.668764
0.649691
0.567436
0.809431
0.910759
1.037717
1.199841
1.082420
1.133680
1.219511
1.205802
1.137853
1.202822
1.152754
1.172423
1.076460
1.115799
1.044869
0.993609
0.932813
1.122952
0.857711
0.738502
0.821948
0.779629
0.804663
0.668764
0.784993
0.576973
0.544786
0.619888
0.641942
0.744462
0.694990
0.616908
0.789762
0.882745
0.735521
0.907779
0.699759
0.768900
0.711679
0.678897
0.572801
0.634789
0.795722
0.749826
0.574589
0.868440
0.917912
1.596808
5.044937
21.180511
51.746964
130.743980
225.103498
378.471017
498.065948
623.601675
675.751567
648.174882
569.854975
422.277451
306.010842
176.955462
##END
