##TITLE=FQP00302
##FORMAT=SPECTACLE-ASCII V-1.2
##DATA TYPE=ULTRAVIOLET SPECTRUM
##SECOND TYPE=ULTRAVIOLET SPECTRUM
##DATE=03/27/18
##TIME=18:11:22
##SPECTROMETER/DATA SYSTEM=SPECTACLE
##XUNITS=NM EM
##YUNITS=ENERGY
##YFACTOR=1
##FIRSTX=220
##LASTX=410
##NPOINTS=96
##3DDATA=Equidistant
##ZUNITS=NM EX
##FIRSTZ=210
##LASTZ=400
##ZPOINTS=39
##XYDATA=(Y..Y)
##ZVALUE=210
3.760457
3.186464
2.900958
3.716946
3.343821
4.032850
3.945827
4.006624
4.028678
4.053712
4.107952
3.787875
3.713965
3.472567
3.860593
4.193783
4.542470
4.321933
4.798770
4.723668
4.427433
4.931688
5.868673
5.275607
5.933642
5.963445
6.865859
7.064939
7.189512
7.851720
8.010864
9.881854
10.383725
10.178685
10.389686
10.924935
10.016561
9.303689
9.621978
10.232925
10.214448
10.087490
10.496974
9.503961
10.553598
8.683801
9.905696
9.660721
9.066463
9.298921
9.740591
9.168983
9.616613
8.645654
8.738637
9.041429
8.203983
8.476973
8.096695
8.224845
8.826852
9.143949
8.544922
8.546710
7.506609
8.940697
9.325743
10.521412
12.158751
12.456775
14.826655
15.389919
16.844869
21.218657
23.253560
21.615624
22.095442
21.961927
21.593571
23.322701
18.419623
17.997622
16.866922
13.916492
13.674498
10.419488
8.547902
8.015633
8.426905
7.421970
8.185506
7.469654
7.623434
8.010864
7.400513
7.819533
##ZVALUE=215
10.154843
8.985996
8.840561
6.070733
5.711913
5.492568
6.042719
6.199479
6.019473
6.411672
6.284714
5.155802
5.479455
4.912615
4.807711
4.297495
3.880858
4.967451
4.117489
4.706979
5.171895
5.047917
5.013943
5.559921
6.022453
6.493926
7.718801
9.139776
9.381771
11.087656
11.990666
13.718605
14.969707
15.331507
16.722679
16.243458
15.306473
16.019940
14.703870
14.798641
14.378428
14.621615
13.739467
13.751984
12.744665
12.200475
11.164546
11.093616
11.802912
10.895729
11.128783
11.262894
10.521412
10.308623
10.635853
9.861588
9.633899
9.134412
10.038614
8.797646
9.438992
9.325743
8.884668
9.516478
8.792877
9.664893
9.306669
11.254549
10.707974
13.512969
14.840961
15.751719
17.508864
19.046664
19.675493
22.102594
21.555424
20.505786
20.842552
18.656850
18.518567
16.527772
15.046000
13.825893
11.785626
9.208918
8.610487
9.051561
7.835627
8.060932
7.800460
6.949902
7.652640
7.406473
7.575750
8.377433
##ZVALUE=220
30.692816
29.217601
32.413602
29.089451
23.683906
18.282533
15.676618
14.190674
12.393594
10.786653
14.136434
13.223886
14.380813
13.030767
10.148883
9.216666
7.640719
5.877614
5.583763
4.926920
5.046725
5.640984
5.752444
6.590486
6.728768
8.831620
9.284616
11.880994
14.278889
15.890598
17.053485
20.414591
20.674467
23.200512
22.741556
24.963617
24.419427
25.426745
23.254752
22.852421
22.610426
22.288561
19.762516
18.998981
19.404888
17.432570
18.263459
16.302466
14.690757
14.868975
14.448762
14.489889
13.361573
12.192726
12.912750
12.159944
11.406541
10.561943
10.878444
11.167526
11.173487
11.302829
11.021495
11.019707
11.076927
9.903908
11.348724
10.678768
11.613965
12.989640
14.801621
16.923547
18.127561
19.639730
21.816492
20.103455
21.327734
21.256804
22.071600
21.366477
18.791556
17.971992
18.033981
14.595985
12.953877
11.584759
11.491776
11.092424
9.178519
9.642839
10.466576
9.022951
9.432435
10.292530
8.380413
9.005666
##ZVALUE=225
52.246451
56.239963
66.795945
82.459450
85.156560
78.367591
73.461533
56.003928
43.602586
33.406615
26.785731
24.058819
26.081800
26.281476
27.440786
26.650429
20.998716
17.800927
12.024641
10.445714
9.104609
6.757975
6.460547
6.645918
7.528663
8.568764
10.829568
12.942553
15.013814
17.128587
18.607974
21.940470
24.784803
27.064681
27.931929
28.146505
28.041601
29.735565
27.600527
28.053522
26.622415
25.734901
25.711656
24.994612
22.537708
21.437407
20.991564
19.507408
18.903613
17.518997
17.913580
15.645623
16.793609
14.945865
14.878511
13.947487
13.223886
14.267564
14.301538
13.343692
12.781620
13.495684
14.017820
13.576746
13.251901
13.548732
13.128519
13.305545
14.421940
14.938712
16.731620
18.331409
19.209981
20.121932
21.917820
20.893812
21.532774
21.229982
20.644665
20.666718
21.281838
17.564893
17.103553
16.972423
16.148686
15.156865
13.881922
13.657808
14.688969
13.553500
12.749434
11.999607
12.865663
13.390779
12.513995
14.112592
##ZVALUE=230
47.432780
54.577589
80.125928
127.584934
159.481764
187.336802
200.594664
200.763941
177.746415
144.563913
99.561810
74.967742
49.623847
45.496821
44.824481
46.866536
51.863790
47.701597
45.489669
37.330985
28.143525
18.284917
13.174415
9.429455
8.436441
9.356737
10.479689
11.946559
15.353560
15.181899
17.763972
19.506812
22.711754
23.901463
24.220943
25.475621
24.796724
26.399493
26.203990
25.639534
23.200512
23.313761
23.291707
21.881461
22.565722
19.209981
20.127892
19.202828
19.419789
19.191504
17.614961
16.304851
17.590523
17.122626
16.448498
16.075969
16.515851
16.816854
14.997721
15.990734
17.281771
15.607476
16.265512
15.783906
16.140938
15.669465
16.413927
16.006827
17.845631
18.534660
19.757748
20.742416
23.039579
26.547909
26.020408
27.222633
26.297569
25.828481
26.024580
25.477409
24.216771
24.290681
21.293759
19.942522
20.586848
21.327734
20.353794
19.499660
20.577908
17.994642
19.164681
18.207431
17.949939
17.928481
17.712712
18.677711
##ZVALUE=235
17.907619
20.698905
49.950480
88.544488
161.770582
220.561624
311.443806
366.332531
406.592488
390.265584
332.451463
266.381502
205.977559
127.963424
99.654794
72.909594
70.073605
74.288845
79.143643
84.443688
77.148676
67.000985
52.172542
37.806630
26.761889
18.142462
13.571978
12.198687
12.442470
13.219714
13.263822
14.935732
15.416741
16.139746
17.366409
17.558932
19.587874
18.523932
17.833710
19.653440
19.173622
19.588470
18.960834
18.749833
19.561648
18.699765
19.049644
16.815662
18.113852
17.338991
17.654896
16.941428
16.914606
17.901659
16.037822
17.222762
16.793609
17.462969
17.172694
17.165542
16.935468
17.296672
18.264651
18.265843
19.750595
19.100904
20.874739
21.410584
22.680759
22.641420
25.974512
27.225614
27.759671
30.472875
30.009747
30.577779
32.717586
31.577945
33.114552
30.741692
32.241940
28.849840
29.526949
28.596520
28.362870
27.498603
28.474927
28.542876
26.317835
27.495623
28.095841
25.864840
26.929975
26.930571
25.779605
26.472807
##ZVALUE=240
3.371835
3.466606
8.252859
29.728413
59.005618
130.508542
208.844543
350.718498
454.164743
545.506477
625.006557
617.019534
534.983873
449.758768
325.238705
230.832696
137.698650
108.549595
93.230605
96.924901
104.783773
112.006664
109.854937
97.105503
81.923604
62.758923
48.969984
32.022595
25.394559
18.025637
15.080571
14.033914
13.282895
15.503764
14.917850
15.277863
15.516877
16.372800
16.802549
17.695427
17.694831
17.288923
17.425418
16.096830
17.483830
17.842650
17.806888
17.547607
17.247796
16.423464
17.054677
17.015934
16.765594
16.737580
16.590953
17.937422
17.973781
18.809438
17.900467
17.615557
20.099878
19.926429
20.116568
20.435452
21.282434
20.265579
21.890998
23.939610
24.751425
26.624799
27.662516
28.720498
33.806562
35.067797
35.527945
33.041835
35.576820
37.536621
36.889911
38.412809
35.062432
34.053922
34.961700
33.688545
36.248565
34.049749
35.575628
32.172799
34.351945
32.965541
32.874942
32.974482
33.053756
37.288666
32.658577
32.112598
##ZVALUE=245
2.642870
2.778769
2.975464
3.538728
6.535649
17.481446
56.784749
111.195445
241.644979
361.693501
550.850630
657.030940
742.734671
762.705803
717.252493
591.686964
469.690561
312.042832
219.922662
132.129788
105.156898
98.081827
111.275911
120.350718
130.174756
127.295852
111.507773
98.517537
73.607564
59.387684
44.248700
29.573441
22.952557
18.810630
17.238855
17.693639
19.421577
18.011928
18.583536
18.353462
18.304586
19.685626
18.814802
18.692613
18.878579
17.806888
18.971562
18.504858
18.375516
18.053651
17.064810
18.122792
18.552542
15.092492
16.782880
17.957687
17.259717
17.718673
17.212629
17.560720
17.609000
17.031431
17.508864
18.736720
18.616915
19.929409
19.786954
22.815466
23.246408
24.363995
26.665926
27.517676
29.472709
29.690862
33.989549
33.266544
35.162568
33.239722
32.715797
34.216642
35.285950
34.166574
32.629967
33.997893
35.308599
33.684969
34.330487
34.815669
33.577681
34.155846
33.513904
32.907724
32.660961
34.559965
34.513474
31.642914
##ZVALUE=250
2.455711
2.212524
2.381802
2.372861
2.751946
2.738833
3.839731
11.121631
47.325492
96.176863
223.205686
357.762575
509.956479
709.208846
815.366507
900.403857
873.923898
763.566494
633.275509
438.785553
297.242999
196.962953
115.354657
98.123550
106.205940
117.837787
134.659410
140.915513
138.666630
127.912760
113.248825
91.927648
70.699453
50.088763
36.508441
26.351810
24.112463
24.036765
24.139881
23.640990
22.562742
22.587776
23.368001
22.620559
22.216439
22.195578
22.247434
21.342635
20.652413
19.029975
20.247698
19.775629
18.909574
18.768907
18.811822
18.242598
18.369555
17.592907
18.054843
16.893744
17.578602
17.659664
18.087626
19.464493
18.634796
19.212961
21.007657
19.335747
22.018552
22.300482
23.289919
25.526881
26.104450
27.762651
29.799938
31.892657
29.681921
29.188991
31.269789
31.145811
31.771660
31.946898
30.521750
32.644868
31.965971
32.159686
32.109618
32.233596
33.151507
32.401681
30.433536
32.233596
32.843947
30.837655
33.275485
32.400489
##ZVALUE=255
2.281666
2.407432
2.168417
2.541542
2.556443
2.834797
2.638698
2.677441
3.346801
7.136464
31.583905
73.463917
150.679946
315.383673
475.370884
711.058974
861.489773
993.175507
1015.605927
937.013626
797.661543
620.470047
387.035608
249.782801
137.855411
102.166533
92.454553
106.565952
132.594705
146.810412
156.003833
161.745548
148.385763
122.425556
103.532672
75.149536
62.148571
46.583414
38.979650
35.163760
31.928420
31.200647
30.704737
29.738545
28.185844
27.636886
28.028488
26.724935
26.643872
23.581982
24.452806
22.277832
22.850633
22.002459
21.999478
21.233559
19.520521
20.366907
20.455718
19.952655
19.441843
20.178556
18.828511
19.030571
19.078851
19.405484
20.124912
20.464659
20.372868
21.862984
22.567511
23.993850
24.633408
27.583838
26.328564
28.234720
28.436780
27.909875
28.792620
28.701425
28.682947
29.921532
30.128956
29.657483
28.897524
30.999780
29.741526
30.020475
30.642748
29.983521
31.300783
30.636787
30.109882
31.269789
32.903552
30.811429
##ZVALUE=260
2.134442
2.108812
2.147555
2.381802
2.434850
2.323985
2.181530
2.470613
2.420545
2.564788
3.229976
3.975630
12.029409
49.231648
108.813643
253.470540
411.439538
651.749969
850.442648
1015.596986
1015.596986
1015.596986
973.712802
787.357688
516.461730
349.843502
203.143954
135.884881
95.019937
98.692775
126.500726
148.924589
169.506669
177.079439
178.968906
158.627629
142.264962
117.618442
93.150735
72.959661
58.897734
46.307445
41.419864
39.539933
36.967993
33.698678
33.705831
32.548904
32.141805
30.501485
29.322505
26.553869
26.065707
25.594831
25.938749
22.728443
22.870898
22.883415
22.802949
20.247698
21.432638
20.359755
19.683838
20.316839
19.995570
21.418929
20.854473
21.966696
20.294785
21.768808
23.104548
23.069978
24.158955
25.441647
25.976896
26.678443
26.550889
26.878715
25.988817
27.318597
27.953982
27.279854
27.578473
28.862953
28.699636
28.397441
28.784871
28.163791
29.452443
29.403567
28.577447
28.730631
29.136539
29.472709
29.558539
29.339790
##ZVALUE=265
1.987815
1.943707
1.946688
2.108812
2.137423
1.966953
2.420545
2.107620
2.283454
2.357960
2.557635
2.885461
2.782941
2.908707
8.678436
27.905703
97.938776
188.787580
326.181650
602.132678
833.014846
1015.605927
1015.605927
1015.605927
1015.605927
917.946696
720.405579
458.005667
303.126574
170.647502
119.784474
99.154711
115.820765
145.478845
169.660449
190.804601
194.700956
188.039541
174.521804
149.376988
127.512813
97.640753
78.311563
59.647560
52.779913
42.865872
39.016604
37.165880
36.550760
34.953952
32.702684
32.134652
30.393600
29.305816
27.878881
26.874542
25.063753
25.434494
24.107695
23.652911
22.133589
22.627711
21.874905
21.233559
20.698905
20.857453
20.752549
21.616817
22.881627
22.733808
23.175478
23.970604
23.658872
25.322437
25.752783
26.109815
25.129914
26.674867
26.065707
27.079582
27.499795
26.261806
26.805997
27.059913
26.255846
27.784705
26.442409
28.935671
29.061437
27.633905
27.758479
27.788877
29.438734
27.868748
28.072596
27.887821
##ZVALUE=270
2.168417
2.037883
1.946688
1.940727
1.988411
1.992583
2.101660
2.410412
2.031922
2.153516
2.053976
2.262592
2.350807
2.615452
2.688766
2.939701
3.922582
17.081499
48.466921
146.283507
280.822515
478.514433
805.774927
1015.619636
1015.619636
1015.619636
1015.619636
1015.619636
896.511674
666.581988
467.510819
260.617733
165.688992
105.717778
101.465583
126.384497
149.656534
176.156759
190.285444
199.416876
195.996761
178.449750
155.113935
122.518539
100.350976
72.785616
61.103702
47.974586
42.267442
37.909746
34.924746
32.700896
31.776428
31.302571
29.673576
27.090907
27.182698
26.090741
24.800897
24.632812
24.256706
23.340583
23.992658
23.465753
23.195744
23.013949
23.042560
22.729635
23.122430
24.049878
24.083853
24.740696
24.260879
25.668740
25.713444
26.338696
26.594996
27.380586
26.291609
26.838779
26.265979
26.437640
26.670694
27.444959
26.503801
27.164817
26.613474
26.299953
26.785731
26.953816
27.063489
27.461648
27.489662
27.996898
27.676821
28.148890
##ZVALUE=275
1.623631
1.838803
1.910925
1.876950
1.892447
1.944900
2.031922
2.272725
2.135634
2.125502
1.892447
2.187490
2.416968
2.061725
2.190471
2.338886
2.705455
2.729893
3.037453
6.685853
26.034713
101.727843
208.335519
450.028777
698.691010
1007.047892
1015.605927
1015.605927
1015.605927
1015.605927
1015.605927
809.904933
576.654673
325.624943
198.705792
112.952590
87.993741
95.721483
116.886497
145.793557
166.912675
185.221434
191.993713
182.432532
169.264674
138.169527
115.998983
87.506771
69.370866
50.816536
41.757822
34.348965
31.613708
29.049516
27.540922
26.926994
25.736690
25.326610
24.431944
24.635792
24.098754
23.940802
24.313927
23.658872
23.836493
23.785830
22.968650
23.904443
23.919940
24.562478
25.005937
24.829507
25.361776
27.445555
26.462674
27.535558
27.080774
26.572943
26.187897
26.108623
26.811957
27.118921
26.573539
26.912689
26.449561
26.749969
25.766492
26.436448
26.618838
26.787519
26.655793
25.515556
26.508570
27.108788
26.523471
27.301908
##ZVALUE=280
1.601577
1.670718
1.812577
1.820922
1.734495
1.719594
1.760721
1.873970
1.735687
1.970530
1.962781
1.984835
2.187490
2.049804
2.136827
2.311468
2.324581
2.376437
2.549887
2.634525
2.869964
4.021525
19.137859
61.103702
183.877945
335.512757
634.749532
912.147760
1015.605927
1015.605927
1015.605927
1015.605927
1015.605927
991.813540
727.216601
408.992767
246.133804
117.979646
75.426698
64.048767
77.645779
102.018714
124.676824
151.724815
164.226890
173.195601
165.890455
148.573518
128.604770
99.848509
78.123808
56.450963
43.646693
31.344891
27.548671
24.091601
22.070408
22.550821
22.523999
22.920966
22.597909
22.014976
22.720695
22.589564
22.865534
22.669435
23.166537
23.541451
23.500919
24.419427
24.253726
25.271773
25.775433
26.242733
26.773810
26.893616
26.915669
26.837587
27.226806
28.154850
26.799440
26.854873
26.225448
26.364923
26.428699
26.240945
27.277470
26.526451
26.336908
26.388764
26.252866
25.451779
25.757551
25.465488
24.816990
25.521517
##ZVALUE=285
1.463890
1.695752
1.743436
1.722574
1.603961
1.474619
2.072453
1.798868
1.807809
1.838803
1.794696
1.671910
1.924634
1.981854
1.981854
2.096891
2.078414
2.419949
1.922846
2.507567
2.364516
2.580881
2.818704
3.257990
9.479523
31.733513
103.890896
208.170414
441.589952
709.614754
990.645885
1015.605927
1015.605927
1015.605927
1015.605927
1015.605927
936.136842
557.451844
340.824723
159.541965
85.790753
47.149658
46.281815
64.858794
83.308816
114.010572
133.816004
151.450634
156.904459
152.934790
139.518976
117.805600
96.645951
70.718527
52.499771
36.177635
27.165413
22.373796
20.475984
19.227862
19.973516
20.037889
19.586682
20.487905
21.510720
21.074414
21.071434
22.322536
22.001863
22.453666
23.491979
24.879575
24.668574
25.643706
25.287867
26.469827
25.751591
26.835799
26.114583
26.441813
26.824474
26.611686
26.132464
26.802421
26.468635
25.912523
25.562644
25.755763
25.300980
25.691986
25.353432
25.258660
25.597811
25.433898
25.244951
25.030971
##ZVALUE=290
1.567602
1.519918
1.543760
1.672506
1.888871
1.542568
1.856685
1.622438
1.664758
1.710653
1.757741
1.787543
1.743436
1.698732
1.671910
1.994967
1.715422
1.821518
2.012849
2.179742
2.234578
2.301931
2.563000
2.930760
3.009439
3.183484
4.323721
12.513995
57.205558
131.876469
255.834460
520.888567
804.703832
1015.605927
1015.605927
1015.605927
1015.605927
1015.605927
1015.605927
784.747005
499.457717
236.805677
119.680762
48.702955
32.279491
40.526986
53.648949
76.706409
98.409653
123.625994
138.270855
148.971677
145.866871
132.362843
114.554763
87.599754
68.233609
47.292709
36.232471
24.954677
20.152926
18.520951
17.621517
17.996430
17.960668
18.737912
19.010901
19.876957
20.375848
21.314621
21.771789
21.985769
22.672415
23.994446
24.331808
24.753809
24.627447
24.840832
25.168657
25.360584
24.484992
25.834441
24.618506
25.068521
25.856495
25.925636
24.753809
25.341511
25.258660
25.159717
24.703741
24.696589
24.591684
23.844838
23.908615
23.700595
##ZVALUE=295
1.403689
1.343489
1.562834
1.517534
1.451969
1.407862
1.543760
1.469851
1.587868
1.628995
1.791716
1.763701
1.679659
1.480579
1.657605
1.792908
1.609921
1.831651
1.646876
1.850724
1.902580
2.223849
2.152920
2.358556
2.351999
2.658963
2.641678
2.858639
3.679991
6.284714
19.997954
82.316995
184.719563
419.185758
661.710501
1004.622579
1015.619636
1015.619636
1015.619636
1015.619636
1015.619636
981.698632
693.488717
361.390710
188.756585
65.349936
33.004880
25.733709
32.881498
51.585436
68.285465
94.171762
112.359524
133.342743
140.323639
137.325525
126.776695
105.899572
87.648630
62.684417
47.711730
32.819510
24.998784
19.549727
16.912818
16.752481
17.561913
16.849637
18.425584
18.963814
20.138621
20.703673
21.426678
22.581816
22.839904
23.036599
23.297668
23.311973
23.378730
23.583770
24.196506
23.929477
24.577975
24.242997
24.489760
24.664998
24.437904
25.102496
24.381876
25.045872
24.334788
23.849607
23.656487
23.872852
23.645759
23.786426
##ZVALUE=300
1.393557
1.336932
1.377463
1.359582
1.430511
1.402497
1.394749
1.417994
1.492500
1.583695
1.470447
1.520514
1.516938
1.553893
1.669526
1.793504
1.709461
1.680851
1.772642
1.737475
1.700521
1.591444
1.759529
1.945496
2.241731
2.203584
2.350807
2.280474
2.602935
2.859831
2.877712
3.510714
13.203621
43.215752
139.445662
270.196795
544.606447
812.793970
1015.605927
1015.605927
1015.605927
1015.605927
1015.605927
1015.605927
783.191919
520.626903
265.508890
143.810511
50.850511
23.727417
21.750927
28.266907
44.964552
61.159730
87.042451
105.092525
124.958754
131.513476
133.843422
123.328567
105.222464
87.691545
64.253807
48.942566
33.434629
25.553703
19.741654
18.713474
18.103719
18.207431
18.685460
19.858479
20.669699
21.271706
22.092462
22.268891
22.537708
22.804737
23.573637
23.745894
23.503900
24.199486
24.841428
24.791956
24.562478
24.348497
25.298595
24.630427
24.539828
24.156570
24.082661
23.967624
23.888946
23.629665
23.994446
23.879409
##ZVALUE=305
1.347661
1.253486
1.425743
1.422763
1.332760
1.435876
1.262426
1.343489
1.281500
1.229644
1.304746
1.534820
1.497865
1.425743
1.558661
1.479983
1.642704
1.495481
1.617670
1.605749
1.585484
1.559854
1.830459
1.753569
1.874566
1.770854
1.882911
2.078414
2.035499
2.146959
2.338886
2.475977
2.741814
3.167987
5.293489
29.270649
79.294443
220.913887
392.151475
707.354546
979.331732
1015.605927
1015.605927
1015.605927
1015.605927
1015.605927
829.916000
524.268746
325.478911
147.114992
71.833730
26.346445
16.864538
19.907951
26.827455
42.967796
58.855414
82.651973
100.655556
119.857788
125.853419
124.810934
117.483735
100.419521
83.464980
62.272549
46.748519
33.316612
26.567578
21.868944
19.984841
19.636750
20.069480
21.038651
20.935535
21.555424
22.302866
23.091435
22.723675
24.137497
24.359822
23.638606
24.728775
25.290847
25.457740
24.884939
25.156736
25.233626
24.985671
25.111437
24.949908
23.944974
23.929477
24.252534
23.356676
23.659468
##ZVALUE=310
1.389980
1.351833
1.219511
1.179576
1.279712
1.222491
1.331568
1.498461
1.458526
1.385808
1.311898
1.477599
1.362562
1.467466
1.277924
1.436472
1.304746
1.504421
1.415610
1.563430
1.713634
1.561642
1.776814
1.540780
1.808405
1.782775
1.634955
1.753569
1.912713
1.981854
1.925826
2.116561
2.130866
2.413988
2.488494
2.971888
3.234744
12.726784
40.862560
133.430958
259.437561
528.732538
793.395638
1015.605927
1015.605927
1015.605927
1015.605927
1015.605927
1005.317569
677.971840
443.847775
216.332674
113.383532
40.362477
18.953681
14.004707
17.671585
25.837421
36.407709
55.378675
71.625710
95.391870
109.495521
121.588707
122.525692
112.267733
102.009773
82.463622
65.334439
46.910644
37.055612
28.099418
24.811625
21.787882
21.788478
21.523833
22.345781
22.361875
22.786856
23.235679
23.966432
24.185777
24.460554
25.055408
24.843812
25.607944
25.344491
25.550723
25.582910
25.447607
25.637746
25.028586
24.591684
24.322867
24.589896
24.247766
##ZVALUE=315
1.215935
1.191497
1.287460
1.302958
1.161695
1.239777
1.141429
1.286864
1.126528
1.305938
1.216531
1.213551
1.392961
1.254678
1.248717
1.524687
1.331568
1.359582
1.421571
1.452565
1.523495
1.426935
1.489520
1.607537
1.521707
1.490712
1.505613
1.644492
1.756549
1.781583
1.795888
1.880527
2.039671
1.945496
2.252460
2.173781
2.634525
2.619624
3.099442
6.169677
21.687746
83.429813
178.922415
399.726629
638.260841
989.353657
1015.599966
1015.599966
1015.599966
1015.599966
1015.599966
810.084939
564.692616
294.631720
160.189867
59.258938
25.481582
13.285875
13.565421
17.288923
23.696423
36.926866
50.137639
71.429610
87.852478
104.860663
115.230680
116.998553
111.225843
95.734596
82.160830
63.780546
50.020814
36.585927
29.972792
25.366545
23.570657
22.954941
23.133755
23.572445
24.147630
24.435520
24.928451
25.493503
25.795698
26.217699
25.572777
25.926828
25.659800
25.136471
25.553703
25.537610
24.568439
24.380684
24.830699
24.498701
##ZVALUE=320
1.282692
1.178980
1.313686
1.314878
1.133680
1.155734
1.169443
1.239777
1.307726
1.293421
1.199841
1.271963
1.233816
1.294613
1.245737
1.355410
1.220703
1.301765
1.317859
1.459718
1.317859
1.349449
1.344681
1.522899
1.368523
1.441836
1.532435
1.583695
1.468658
1.534820
1.641512
1.881719
1.624823
1.787543
1.801848
2.101660
2.209544
2.186894
2.353787
2.353787
2.621412
3.447533
9.660721
46.333671
117.833614
299.342871
490.349531
808.376670
1015.611887
1015.611887
1015.611887
1015.611887
1015.611887
969.906449
700.326562
389.467478
218.687654
92.101693
41.218996
15.805960
12.069941
13.091564
16.339421
22.943616
32.158494
49.256682
64.963698
83.747506
98.579526
110.754967
113.096833
107.516646
96.584558
78.762770
65.020919
48.376918
38.972497
30.659437
26.909709
24.702549
24.839640
24.808645
24.951696
25.507808
25.672913
25.535822
25.735497
25.754571
26.038885
25.716424
25.583506
25.730729
25.749803
25.356412
25.895834
25.115609
##ZVALUE=325
1.151562
1.034737
1.138449
0.985861
1.105666
1.210570
1.127720
1.093745
1.070499
1.155734
1.205802
1.145601
1.122952
1.244545
1.195669
1.509786
1.162887
1.243949
1.186728
1.410842
1.451969
1.282692
1.350641
1.326799
1.338720
1.376867
1.254678
1.467466
1.419783
1.461506
1.593828
1.437664
1.578927
1.612902
1.661777
1.695752
1.687407
1.892447
1.850724
1.946688
2.120733
2.468824
2.574921
2.633929
5.116463
31.219721
79.278946
205.749869
368.163586
678.049922
933.264494
1015.537977
1015.537977
1015.537977
1015.537977
1012.815833
792.966485
475.663543
285.689831
123.023987
58.685541
21.316409
12.587905
12.239814
13.122559
16.775727
22.478700
33.857822
46.587586
66.760778
81.134439
96.923709
106.216669
108.552575
102.934837
89.311004
76.992512
60.373545
49.259663
37.204623
31.465888
26.791692
25.537610
24.566650
25.269985
25.579929
25.342703
25.832653
26.005507
25.532842
24.781823
25.436878
25.474429
25.173426
24.779439
24.897456
##ZVALUE=330
1.242757
1.249909
1.216531
1.092553
1.198649
1.243949
1.207590
1.149774
1.211762
1.195669
1.434684
1.449585
1.138449
1.240969
1.277924
1.371503
1.293421
1.328588
1.295805
1.365542
1.345873
1.223683
1.598597
1.462698
1.383424
1.575947
1.567602
1.611710
1.531839
1.635551
1.611710
1.649857
1.672506
1.707673
1.682639
1.735687
1.814961
1.843572
1.839995
2.090931
2.084970
2.134442
2.454519
2.320409
2.530813
2.738833
3.412962
13.141632
41.907430
136.718750
261.376500
520.911813
766.475797
1015.728712
1015.728712
1015.728712
1015.728712
1015.728712
919.956565
587.325692
375.321507
171.283484
86.500645
31.737685
15.659928
12.439489
12.597442
14.081597
16.993880
24.144650
32.517910
47.452450
60.781837
79.851747
92.412829
102.490783
103.667974
98.596811
89.040995
72.374940
60.289502
45.872927
38.951635
32.484531
29.563904
26.320815
25.650859
25.090575
25.039911
24.616718
25.041699
25.108457
24.530888
24.418831
24.734735
24.496913
##ZVALUE=335
1.097918
0.971556
1.178980
1.166463
1.224875
1.212955
1.202822
1.337528
1.210570
1.197457
1.140833
1.274943
1.267791
1.251698
1.184940
1.286864
1.104474
1.199841
1.263618
1.318455
1.158714
1.127720
1.287460
1.368523
1.454949
1.299977
1.363754
1.472831
1.557469
1.463890
1.377463
1.458526
1.506805
1.612902
1.588464
1.493692
1.435876
1.642704
1.642704
1.718998
1.593828
1.975894
1.865625
1.927614
2.041459
2.222657
2.493858
2.342463
2.749562
6.153584
21.961927
84.026456
176.059008
390.851498
620.568991
969.944000
1015.657783
1015.657783
1015.657783
1015.657783
1003.474593
692.947507
466.594696
242.427588
124.908686
43.609738
20.703673
12.517571
12.325644
13.534427
14.845729
18.119812
23.014545
33.746958
45.222640
61.970949
75.042844
88.813901
96.011758
97.915530
93.502998
82.753897
71.882606
58.759451
49.442649
39.022565
33.022761
28.053522
26.262999
24.691820
24.399757
24.822950
23.422837
23.728609
23.601651
23.598671
##ZVALUE=340
1.064539
1.162887
1.139641
1.137853
1.166463
1.137853
1.204610
1.073480
1.139641
1.116991
1.107454
1.004934
1.283884
1.143813
1.233816
1.013875
1.276731
1.282692
0.990629
1.252890
1.169443
1.181960
1.207590
1.219511
1.197457
1.282692
1.348853
1.411438
1.159906
1.245737
1.389980
1.268983
1.227856
1.355410
1.460910
1.366735
1.379848
1.537800
1.563430
1.354814
1.571774
1.680851
1.603961
1.653433
1.851916
1.787543
2.007484
2.073646
2.076626
2.357960
2.290606
3.671646
10.839701
51.385760
126.600862
310.430527
511.660576
827.837586
1015.606523
1015.606523
1015.606523
1015.606523
1015.606523
817.099810
575.546622
306.387544
164.998770
62.388778
27.807951
13.948679
12.551546
13.259649
13.615489
15.815496
18.176436
25.191903
32.388568
45.314431
57.222843
73.409677
84.660649
92.815757
93.365908
88.420510
81.350803
69.164634
58.867931
45.801997
39.073825
31.329989
27.541518
24.559498
23.582578
23.175478
22.752881
22.876859
##ZVALUE=345
1.061559
1.214743
1.124740
0.964999
1.031756
1.106858
0.832677
1.136661
1.037717
1.091957
0.958443
0.926852
1.069903
1.040697
1.145601
1.203418
1.119971
1.148582
1.098514
1.201630
1.173615
1.149774
1.146793
1.216531
1.159906
1.061559
1.268983
1.268983
1.158714
1.192689
1.287460
1.210570
1.336932
1.351833
1.183748
1.443624
1.508594
1.326799
1.416802
1.432896
1.515746
1.614690
1.482964
1.528859
1.719594
1.623631
1.761913
1.876950
1.824498
1.989603
1.986623
2.213717
2.309680
3.644824
5.602837
70.101619
83.253980
212.963820
374.963880
660.691857
1015.605927
1015.605927
1015.605927
1015.605927
1015.605927
684.770942
632.450581
426.957607
103.205442
93.088746
35.753846
18.025637
12.836456
12.881756
13.548732
13.900995
17.513633
18.003583
23.146868
30.406713
42.408705
52.873492
67.695975
77.185631
85.266829
86.730719
83.476901
78.382492
66.260695
56.983829
44.110417
36.948919
29.612780
26.022792
23.697615
22.488832
##ZVALUE=350
1.008511
1.077652
1.028776
1.014471
1.153946
0.973940
0.984669
1.099706
1.092553
0.972748
1.033545
1.207590
1.047850
1.056790
1.192689
0.988841
1.017451
0.960827
1.066923
1.138449
1.221895
1.100898
1.049638
1.332760
1.146793
1.253486
1.097918
1.232624
1.197457
1.166463
1.163483
1.391768
1.316667
1.404881
1.127720
1.284480
1.429915
1.431704
1.315475
1.555681
1.339912
1.310706
1.544952
1.433492
1.498461
1.579523
1.565814
1.664758
1.581907
1.582503
1.624823
1.869798
1.846552
2.180934
2.171993
2.360940
3.841519
11.943579
52.362680
119.310617
291.729569
486.589670
804.402828
1011.106968
1015.605927
1015.605927
1015.605927
1015.605927
721.291900
479.175448
241.111517
130.983591
51.213503
23.248792
13.073683
12.511611
13.094544
12.880564
13.781786
15.019774
17.967820
21.760464
29.171705
36.391616
48.879981
58.625937
70.807934
76.232553
78.996420
77.675581
71.254969
63.632727
52.314997
43.470860
34.405589
29.660463
##ZVALUE=355
0.939965
0.952482
1.105666
0.993609
1.080632
0.959635
0.994802
1.027584
1.109838
1.004934
1.146793
1.031756
0.969768
1.032948
1.015663
1.078844
1.056790
0.982881
0.932813
1.207590
1.122952
1.080632
1.231432
1.168847
0.997782
1.059771
1.257658
1.078844
1.288652
1.039505
1.311898
1.262426
1.293421
1.220703
1.305938
1.278520
1.305938
1.189709
1.188517
1.328588
1.200438
1.468658
1.442432
1.458526
1.467466
1.265407
1.437664
1.445413
1.603961
1.521707
1.757741
1.833439
1.797676
1.785755
1.850724
2.023578
2.180934
2.384782
2.620816
7.257462
24.575591
93.048811
189.365745
393.510461
615.606904
944.510698
1015.591025
1015.591025
1015.591025
1015.591025
858.584642
560.953617
350.408554
154.231787
73.787570
25.540590
14.149547
11.471510
11.699796
11.875629
12.590885
13.060570
14.064908
16.996861
19.476414
25.870800
32.754540
43.572783
52.001476
61.893463
68.622828
71.625710
71.056485
65.279603
59.178472
49.123764
##ZVALUE=360
0.974536
1.005530
0.955462
0.977516
1.092553
0.873804
0.914931
1.014471
0.927448
0.945926
0.930429
1.104474
1.067519
0.960827
1.053810
1.105666
1.043677
1.122952
1.054406
1.121759
1.077652
0.939965
0.989437
1.146793
0.992417
0.993609
1.149774
1.064539
1.118779
1.221895
1.239777
1.273751
1.288652
1.224875
1.237988
1.226664
1.140833
1.315475
1.053810
1.361966
1.415610
1.207590
1.251698
1.211762
1.368523
1.331568
1.545548
1.347661
1.447797
1.582503
1.540780
1.670718
1.499653
1.701713
1.737475
1.766682
1.748800
1.955628
1.902580
2.305508
2.473593
3.650784
11.020899
47.991872
118.081570
291.056633
479.717851
778.347850
993.545651
1015.551686
1015.551686
1015.551686
966.559649
655.070543
432.817936
210.598707
108.629465
40.902495
18.636584
11.275411
11.061430
11.283755
11.242628
11.633635
11.823773
13.033748
14.268756
17.421842
20.826459
27.771592
35.279989
46.244860
53.443909
61.396956
65.198541
64.786673
##ZVALUE=365
1.123548
1.042485
0.982881
1.113415
1.224875
1.055598
0.992417
1.037717
0.948906
0.978708
1.094937
1.030564
1.079440
1.004934
1.006722
1.118779
1.085997
1.230836
1.030564
1.073480
0.989437
1.093745
1.121759
1.080632
1.054406
0.837445
1.016855
1.131892
1.226664
1.109838
1.217723
1.363754
1.178980
1.311898
1.300573
1.155734
1.251698
1.271963
1.215935
1.260638
1.496673
1.365542
1.426935
1.465678
1.401901
1.331568
1.256466
1.557469
1.469851
1.307726
1.768470
1.556873
1.496673
1.580715
1.647472
1.710653
1.579523
1.732707
1.892447
2.059937
2.192855
2.202988
2.413988
2.725720
5.096793
26.296973
73.572397
203.296542
365.491509
641.774535
871.832967
1015.605927
1015.605927
1015.605927
1007.643938
744.846463
524.065495
282.203555
154.611468
58.090687
25.454760
11.474490
10.056496
10.301471
10.417700
10.509491
10.714531
11.188984
11.623502
12.995601
14.778972
19.040704
23.226738
31.003952
38.538575
47.463775
##ZVALUE=370
1.038909
1.166463
1.210570
1.100898
1.085997
1.102686
1.173615
1.106858
1.050830
1.206994
1.145601
1.089573
1.108646
1.092553
1.246929
1.206994
1.060963
1.121759
1.194477
1.091957
1.250505
1.178980
1.221895
1.156926
1.193881
1.226664
1.189709
1.249909
1.245737
1.258850
1.266599
1.200438
1.204610
1.290441
1.142621
1.249909
1.170635
1.184940
1.297593
1.355410
1.336932
1.223683
1.293421
1.296997
1.323819
1.369715
1.493692
1.378655
1.541972
1.609921
1.492500
1.548529
1.526475
1.505613
1.613498
1.584888
1.528859
1.610518
1.901984
1.737475
1.877546
1.808405
2.072453
2.263784
2.578497
2.565980
3.532767
14.621615
46.956539
149.420500
276.277661
514.189005
744.299889
1009.312868
1015.704870
1015.704870
1015.704870
845.601559
615.841746
340.417624
189.221501
75.469613
35.503507
14.599562
10.103583
9.605885
9.506941
9.609461
9.718537
9.922981
10.299683
10.854602
11.504889
13.478994
16.024709
21.279454
##ZVALUE=375
0.961423
1.100898
0.944734
0.924468
0.921488
1.036525
0.887513
1.014471
0.933409
0.982881
0.975728
0.961423
0.938773
1.132488
0.992417
0.940561
0.998974
0.980496
1.080632
1.053810
1.117587
0.979900
1.109838
1.005530
0.967979
0.995994
1.028776
1.187921
1.020432
1.021624
1.102686
1.029968
1.026988
1.168847
1.061559
1.056790
0.970960
1.063943
1.113415
1.194477
1.135468
1.156926
1.174808
1.357794
1.277924
1.140833
1.260638
1.292825
1.328588
1.249909
1.143813
1.322627
1.102686
1.221895
1.214743
1.422763
1.466870
1.440644
1.491904
1.470447
1.602769
1.566410
1.646876
1.684427
1.779795
1.790524
2.029538
2.235770
2.563596
7.233620
24.963617
90.459585
191.513896
417.692661
636.729598
931.185484
1015.605927
1015.605927
1015.605927
947.167873
730.919838
441.845655
272.794962
124.833584
62.147975
21.919608
11.348724
8.659959
8.433461
8.773804
8.847713
8.803606
9.159446
9.353757
9.432435
10.635853
##ZVALUE=380
0.933409
0.892878
0.975728
1.044869
1.041889
1.044869
0.843406
1.024604
1.021624
1.058578
1.007915
0.901818
0.993609
0.953674
1.059771
0.934601
1.024604
0.995994
0.970960
1.027584
0.910759
0.994802
1.076460
1.053810
0.926852
0.948906
1.042485
1.010895
1.137853
1.026988
1.056790
1.088977
1.069903
1.022816
1.090765
1.152754
1.026988
1.262426
1.155734
1.144409
1.157522
1.124740
1.152754
1.204610
1.242757
1.149774
1.221895
1.268983
1.291633
1.145601
1.212955
1.299977
1.137853
1.138449
1.206994
1.327991
1.224875
1.323819
1.348853
1.336932
1.441836
1.356602
1.448989
1.575947
1.609921
1.821518
1.907945
1.932979
2.083778
2.304912
2.513528
4.134774
14.173985
63.132644
143.853426
332.763791
527.737737
819.299817
1002.510786
1015.605927
1015.605927
999.742746
828.707814
565.091968
374.915004
180.881619
91.853738
32.824874
14.937520
8.494854
7.894635
7.702708
8.029938
8.326769
8.423924
8.572936
##ZVALUE=385
0.826716
0.942945
0.836849
0.765920
1.026988
1.096725
0.835657
0.715852
0.797510
0.812411
0.989437
1.002550
0.977516
0.842810
0.961423
0.875592
0.845790
0.857711
0.917912
0.857711
0.946522
0.897646
0.862479
0.807643
0.942945
0.878572
1.032948
0.875592
0.902414
1.036525
0.976920
0.959635
0.881553
0.864863
1.003742
1.095533
1.044869
1.178980
1.009703
1.195669
1.143813
0.986457
0.916719
1.020432
1.044869
0.973940
1.073480
1.101494
1.012683
0.991821
1.062751
1.153946
1.120567
1.173615
1.244545
1.110435
1.274943
1.066923
1.041889
1.138449
1.237988
1.266599
1.264811
1.398921
1.402497
1.382828
1.422763
1.703501
1.762509
1.789927
2.159476
2.292991
2.244711
2.766848
6.673932
36.158562
91.511011
229.271650
404.211879
701.289773
916.180015
1015.523672
1015.523672
1015.523672
958.963037
693.223476
484.241843
261.024833
146.648884
58.939457
25.066733
9.392500
7.258654
7.159710
7.125735
7.508993
##ZVALUE=390
0.916719
0.897646
1.103878
0.917912
0.935793
0.972748
0.826716
1.020432
0.901818
0.984669
0.981688
0.936985
0.965595
1.024604
0.922680
1.023412
1.008511
0.961423
1.080632
1.011491
0.951886
0.892878
0.986457
0.970960
0.893474
1.048446
1.076460
0.988841
1.065731
1.002550
1.048446
1.122952
1.140833
1.100898
0.975728
1.084805
1.173615
1.182556
1.169443
1.234412
1.259446
1.223683
1.115799
1.094937
1.161695
1.092553
1.163483
1.232624
1.145601
1.040697
1.214743
0.936985
1.116991
1.095533
1.030564
1.236796
1.210570
1.296997
1.258850
1.276731
1.275539
1.309514
1.206994
1.391768
1.341701
1.318455
1.470447
1.532435
1.711845
1.857877
2.018809
2.026558
2.151728
2.132654
2.291799
2.264977
3.672838
19.813776
58.073997
171.806812
319.859982
592.918992
806.863904
1015.605927
1015.605927
1015.605927
1015.605927
846.295953
639.073849
364.615917
207.246542
83.645582
39.455891
13.845563
7.900596
6.892681
##ZVALUE=395
0.911951
0.864863
0.982881
0.919700
0.809431
0.887513
0.909567
0.938773
0.881553
0.980496
0.939965
0.924468
0.920892
0.921488
1.019835
1.047850
0.914931
0.865459
1.018643
1.038909
0.860691
1.074672
0.865459
0.912547
1.036525
0.994802
0.991821
1.146793
1.126528
1.021624
1.114607
1.165867
1.189709
1.186728
0.993609
1.097918
1.158714
1.104474
1.077652
1.093745
1.179576
1.231432
1.059771
1.269579
1.112819
1.268983
1.295805
1.105666
1.067519
1.212955
1.106858
1.067519
1.221895
1.014471
1.041889
1.311898
1.177788
1.076460
1.119971
1.076460
1.251698
1.371503
1.389980
1.312494
1.371503
1.440644
1.421571
1.667738
1.651645
1.816750
1.803637
1.925826
2.016425
1.907945
2.041459
2.099872
1.993775
2.287626
2.606511
10.824800
38.305521
127.602816
239.783525
450.860858
656.512976
942.568779
1015.609503
1015.609503
1015.609503
966.184735
749.631524
456.420779
279.817581
119.650960
56.834817
19.225478
##ZVALUE=400
0.812411
0.942945
0.889897
0.990629
1.071692
1.017451
1.018643
0.884533
0.862479
0.897646
0.781417
0.946522
1.176596
1.040697
0.780821
1.016855
0.867844
0.953674
0.830889
0.823736
0.945926
0.883937
0.943542
1.165867
0.914931
1.069903
0.886917
1.038909
1.077652
0.986457
1.162887
1.167655
1.214743
1.104474
1.202822
1.128912
1.139641
1.241565
1.184940
1.211762
1.099706
1.174808
1.208782
1.131892
1.121759
1.104474
1.114607
1.035929
1.323819
1.158714
1.207590
1.334548
1.202822
1.226664
1.331568
1.209974
1.154542
1.152754
1.222491
1.214743
1.108646
1.254678
1.294613
1.258850
1.271963
1.420975
1.410842
1.488924
1.507998
1.636744
1.848936
1.883507
1.944900
1.802444
1.811981
1.774430
1.811981
1.769662
2.045631
1.973510
2.167821
5.496740
19.744635
75.522661
159.262419
348.943472
537.610650
800.908804
990.874767
1015.605927
1015.605927
996.501446
827.028751
559.798479
366.236567
180.496573
##END
