##TITLE=QP00351
##FORMAT=SPECTACLE-ASCII V-1.2
##DATA TYPE=ULTRAVIOLET SPECTRUM
##SECOND TYPE=ULTRAVIOLET SPECTRUM
##DATE=03/27/18
##TIME=18:15:36
##SPECTROMETER/DATA SYSTEM=SPECTACLE
##XUNITS=NM EM
##YUNITS=ENERGY
##YFACTOR=1
##FIRSTX=220
##LASTX=410
##NPOINTS=96
##3DDATA=Equidistant
##ZUNITS=NM EX
##FIRSTZ=210
##LASTZ=400
##ZPOINTS=39
##XYDATA=(Y..Y)
##ZVALUE=210
3.726482
3.579855
3.406405
4.019737
3.722906
3.328919
3.969669
4.130602
3.803968
4.368424
3.695488
4.206896
4.205704
4.236698
3.921986
4.442930
4.222989
5.124807
5.144477
5.444884
5.403757
6.101727
5.712509
6.649494
6.203651
5.635619
6.640553
6.695986
7.096529
7.311702
6.882548
8.191466
7.303953
8.212924
8.336902
8.773804
8.417964
8.898973
9.544492
9.125471
9.871721
9.424686
10.633469
10.643601
10.282993
10.126829
10.527968
10.702610
10.690689
10.387897
10.773540
10.270476
11.572838
11.838675
11.599660
11.553764
12.502670
11.365414
12.305975
12.538433
13.158917
13.123751
13.402700
13.179779
13.512969
13.980865
15.021563
16.268492
19.475818
22.731423
27.231574
28.943419
35.637617
39.938688
41.444898
45.910478
46.146512
44.735670
47.171712
43.043494
38.698912
34.990907
30.797720
26.254654
23.669600
19.625425
17.190576
15.793443
14.075637
13.017654
13.086796
12.648702
14.178753
13.100505
14.903545
14.582872
##ZVALUE=215
10.601878
9.277463
9.694695
6.439686
6.309748
6.122589
5.232692
6.687641
5.904436
6.236434
6.201863
6.528497
5.347729
5.165935
5.057454
4.820824
4.401803
4.795790
4.836917
5.645752
5.962849
5.594492
6.115437
6.912947
6.951690
6.239414
7.483959
7.847548
6.970763
8.109808
7.809997
8.200407
8.242726
8.368492
9.355545
8.765459
10.561943
9.026527
9.279847
9.178519
10.607839
11.370778
9.698868
10.307431
10.202527
11.558533
10.342598
11.085868
12.371540
11.750460
10.592937
11.812449
11.598468
11.684895
12.428761
11.605620
13.225675
12.748837
12.348890
14.307499
13.310909
13.160706
12.332797
13.467669
14.013648
14.624596
14.571548
15.258789
17.003417
21.546483
26.358962
28.736591
34.162998
36.247969
39.488673
39.932728
42.150617
42.759776
40.186644
36.997795
33.541918
31.323433
27.846694
25.150776
22.156835
18.430948
16.946793
15.078783
13.169646
12.914538
13.030767
13.027787
12.001991
12.849569
13.791919
13.670921
##ZVALUE=220
32.655001
31.147599
32.561421
30.126572
28.741956
24.077892
19.135475
15.507936
12.392998
12.316704
12.738705
13.285875
13.143420
12.098551
10.095835
8.966923
7.610917
6.678700
5.885959
5.417466
5.783439
6.640553
7.557869
5.960464
7.307529
7.611513
7.295609
8.178949
8.200407
7.207990
9.372830
9.152889
10.427833
9.773970
10.235906
10.343790
9.648800
11.439919
10.342598
11.160970
11.136532
10.324717
10.319948
11.370778
11.999607
12.182593
11.815429
12.237430
12.114644
11.897683
12.392998
12.400746
12.182593
12.914538
13.014674
13.763905
13.328791
14.703870
13.783574
14.733672
14.273524
15.654564
14.598966
13.912916
15.783906
16.121864
16.473532
16.361475
21.472573
23.045540
26.039481
27.157664
33.942461
36.419630
40.443540
42.429566
41.903853
40.345788
37.826896
36.101937
34.660697
30.627847
28.201938
26.478767
22.346973
19.896626
18.009543
16.878843
15.441775
15.444756
14.851689
12.791753
14.195442
14.617443
14.118552
14.713407
##ZVALUE=225
60.209632
63.543916
79.042912
99.139810
104.190707
100.282431
97.114444
77.746511
58.074594
46.269894
31.275749
25.353432
25.125742
27.653575
26.220679
25.681853
22.206903
19.358993
14.879704
11.547804
9.227991
7.545948
7.337928
7.780790
9.040833
8.461475
8.898973
8.679628
9.084940
9.990931
10.383725
9.953976
10.325909
11.022687
10.816455
11.103749
11.618733
11.552572
11.845827
11.853576
13.023615
12.379885
13.379455
13.356805
11.553764
13.337731
12.031794
12.637973
11.819601
14.542937
14.109612
14.185905
14.182925
14.136434
14.355779
13.871789
14.592409
15.192628
14.021993
15.269518
15.902519
14.474988
14.412999
16.400814
14.677644
15.618801
15.469790
17.598867
18.632412
22.307634
22.393465
27.923584
28.298497
34.036636
35.101771
34.884810
33.369660
33.219457
31.834841
28.119683
26.135445
24.041533
22.525787
19.046664
18.295646
18.017888
15.014410
15.139580
15.643835
15.074611
14.561415
14.326572
14.369488
14.527440
14.046431
13.605952
##ZVALUE=230
59.739947
67.270994
102.751851
161.073804
206.840634
245.362520
263.639688
257.982612
232.907534
192.940831
129.588842
94.412565
61.078668
49.850941
45.334697
49.179792
49.342513
49.441457
46.258569
37.588477
29.060841
21.471977
15.536547
11.946559
9.987950
9.013414
9.007454
7.705688
8.928776
9.394884
9.155869
10.702610
9.843707
10.465980
9.433627
10.432601
10.201931
11.607409
10.473728
10.782480
11.687875
11.936426
10.920763
10.693669
12.003779
12.474656
13.245940
12.332797
13.945699
12.100935
12.270808
12.999773
13.897419
13.724566
13.720989
13.216734
13.968945
13.791919
14.765859
13.779998
14.829636
14.581680
14.351606
15.809536
14.116764
16.826987
15.945435
16.847849
19.431710
23.494959
24.473667
26.143789
28.035641
31.711459
33.785701
35.278797
31.433702
28.739572
31.015873
27.137995
26.692748
25.101900
22.157431
22.522807
19.732714
16.625524
15.680790
18.231869
17.666817
16.822815
17.706752
15.352964
14.995933
14.735460
16.520619
13.835430
##ZVALUE=235
22.657514
25.653839
51.566958
118.166804
183.300972
287.054777
368.926525
458.228588
494.333506
473.291874
421.711802
325.242877
238.749981
148.050785
107.827783
78.314543
71.350932
75.221658
82.585812
82.008839
74.252486
65.643787
48.319697
40.087700
25.902987
18.262863
12.175441
11.569858
10.026693
10.997653
11.008978
10.523796
10.394454
10.221601
10.421872
10.278821
11.271834
11.167526
10.115504
10.940433
10.746717
10.193586
11.263490
10.893941
11.214614
11.766553
11.466742
12.247562
12.374520
12.346506
12.956858
13.630986
13.177991
13.925433
13.345480
13.727546
12.899637
14.778972
13.520718
16.158819
14.895797
14.016628
15.609860
15.136600
16.271472
17.434955
17.402768
19.937754
20.584464
22.885799
25.405884
26.920438
32.417774
33.798814
32.932758
34.196973
32.042861
32.742620
30.612946
30.790567
27.282834
24.905801
23.992658
22.746921
24.633408
21.281838
21.077991
20.187497
18.943548
20.442605
17.864704
20.605922
19.233823
18.333793
19.247532
18.768907
##ZVALUE=240
3.521442
4.155636
8.522868
31.353831
66.398978
149.534941
245.060921
409.893990
528.915524
640.242696
735.643506
736.590028
653.550029
549.367666
390.101671
279.294848
167.020559
123.942494
100.247860
100.090504
104.105473
115.446448
113.760829
95.625520
84.588528
60.580969
46.441555
32.043457
22.789836
16.121864
14.365911
11.001825
11.768937
10.651946
10.898709
11.239648
10.775924
12.237430
11.911988
11.262894
11.514425
11.272430
10.907650
12.195706
11.793971
10.769963
12.210608
12.920499
13.290644
12.273788
12.474656
13.277531
14.118552
12.865663
13.904572
13.485551
14.768839
14.379621
15.501976
15.906692
14.800429
16.160607
16.383529
17.892718
16.966462
19.680858
19.934773
21.332502
22.068620
25.494695
25.703907
30.154586
31.880736
35.491586
38.853884
37.229657
37.105680
36.200881
35.481453
31.431913
32.429695
30.769706
26.583672
26.923418
25.682449
24.791956
23.223758
22.301674
24.083853
24.090409
22.066832
23.508668
23.566484
22.001863
21.420717
21.885633
##ZVALUE=245
2.563000
2.895594
2.513528
3.047585
6.999969
21.524429
64.397454
135.570765
290.123820
433.656573
661.807656
824.250579
917.637944
967.368484
922.930837
761.440992
607.694983
396.756530
268.847942
158.767700
114.716887
104.099512
114.286542
123.092532
127.136707
121.768713
110.407472
97.796917
72.748661
55.506825
36.760569
25.093555
18.507838
11.480451
11.148453
10.803938
10.379553
10.608435
10.965466
10.232925
10.550618
9.549856
10.509491
10.278821
10.653734
10.309815
11.178851
11.330843
10.358691
11.370778
11.641979
11.465549
11.735559
11.249781
11.829734
11.704564
12.614727
12.719631
12.359619
12.813807
12.139678
13.719797
13.621449
15.596747
16.813874
15.476942
16.233921
18.093586
18.830895
21.978617
22.272468
26.418567
28.563738
31.039715
32.666922
33.400655
31.535625
31.861663
31.703711
29.551983
29.806495
28.201938
27.040839
25.002956
22.985935
23.581982
23.978949
23.627877
23.458600
22.144914
22.569895
22.848845
23.323894
23.490787
22.888780
20.985603
##ZVALUE=250
2.620816
2.671480
2.884865
3.017783
2.593994
2.679825
4.891753
13.971925
53.154826
117.636919
276.482701
438.043475
641.852021
901.717544
1015.605927
1015.605927
1015.605927
999.441743
841.066837
565.846562
380.771756
240.415931
136.572719
104.707479
106.429458
119.335651
136.073828
138.770938
134.352446
121.335983
101.274848
81.688762
59.297681
35.871863
26.271939
16.530752
13.243556
11.705756
10.626912
9.997487
9.087920
10.203719
9.459853
10.283589
9.658933
9.929538
10.671616
9.596944
9.170771
9.826422
9.916425
10.417700
9.934902
10.544658
10.211468
11.041760
11.127591
10.612607
11.526942
12.200475
12.158751
12.238622
12.217760
12.135506
13.100505
14.124513
16.165972
16.727448
16.566515
18.625855
20.481944
21.916628
24.952888
26.597977
25.708675
28.565526
27.312636
26.777983
25.875568
25.684834
26.151538
24.120808
24.419427
22.189617
22.661686
21.786690
21.991730
21.490455
22.206903
21.677613
22.703409
20.715594
21.435618
19.915700
19.774437
19.624829
##ZVALUE=255
2.412796
2.376437
2.280474
2.494454
2.860427
2.328753
3.092885
3.131628
3.330708
8.148551
38.260818
88.974833
187.076926
384.688973
590.369701
900.532007
1015.605927
1015.605927
1015.605927
1015.605927
1015.605927
833.775997
522.310734
326.839685
166.858435
110.333562
94.376802
107.004642
128.376484
138.712525
143.733621
143.780708
127.517581
106.640458
83.118677
55.553913
39.337873
23.987889
16.458631
11.050701
9.544492
8.892417
9.219646
8.864999
9.228587
9.531975
8.861423
8.808970
9.401441
9.780526
9.669662
8.816719
9.301901
8.478761
9.542704
9.621978
9.772778
9.902716
10.195971
10.272861
10.208488
10.890961
11.132956
11.038780
11.091828
11.976957
12.618899
13.711452
14.062524
15.597939
17.692447
19.843578
20.641685
22.563934
23.607612
24.081469
24.097562
23.377538
23.166537
22.412539
21.679997
20.322800
20.983815
19.758940
19.905567
18.854737
20.339489
20.073652
19.840598
20.530820
19.039512
18.298626
19.801855
20.510554
19.669533
19.397736
##ZVALUE=260
2.256632
2.180934
2.258420
2.413988
2.790689
2.198815
2.577901
2.875924
2.683997
3.065467
3.096461
5.184412
17.017722
66.271424
141.718984
323.413014
538.877845
875.219703
1015.605927
1015.605927
1015.605927
1015.605927
1015.605927
1015.605927
719.642639
482.444763
259.285569
158.102512
92.144608
87.797642
107.269883
125.843883
143.143535
148.420930
148.153901
131.117702
112.659931
80.331564
61.693788
38.661957
25.483966
14.936924
11.081696
9.082556
8.651614
8.503795
8.420944
8.791685
9.201765
8.589625
8.720756
8.580685
8.935928
8.461475
7.863641
8.382797
8.475780
9.005666
9.139776
9.360909
9.974837
10.081530
10.227561
9.613633
10.937452
10.144711
11.281967
12.021661
13.163686
14.671683
15.383959
16.280413
18.437505
19.964576
20.026565
21.418929
20.094514
19.460917
20.385981
19.473433
19.380450
18.374920
18.722415
17.434955
18.089414
17.755628
17.895699
17.268658
18.130541
18.071532
18.103719
18.539429
18.089414
17.732978
17.432570
18.576980
##ZVALUE=265
2.190471
2.339482
2.084970
2.097487
2.336502
2.423525
2.371669
2.361536
2.470613
2.660751
2.353787
2.916455
3.362894
4.171729
9.231567
45.148730
109.575987
265.678763
461.009741
831.185579
1015.637517
1015.637517
1015.637517
1015.637517
1015.637517
1015.637517
942.294598
649.004579
349.802971
206.175447
106.675625
80.425739
86.351633
109.861493
136.178732
152.756572
151.916742
148.731470
130.310655
110.934973
82.005858
59.823990
37.534833
25.445819
15.372634
11.527538
8.697510
8.102655
8.557439
8.382797
8.430481
8.772612
8.263588
7.870793
8.549690
8.809566
8.350611
8.403659
8.860826
9.134412
9.071827
9.537935
8.886456
9.254813
9.493828
9.837747
10.050535
10.994673
12.444854
12.451410
14.801621
15.636683
16.970634
17.744899
18.207431
17.907619
19.106865
17.697811
17.683506
16.181469
17.400980
16.098619
16.256571
16.795993
15.952587
15.199780
15.551448
16.343594
16.585588
16.379952
17.100573
16.167760
16.474724
16.481876
15.802979
16.836524
##ZVALUE=270
1.983643
2.217889
2.088547
1.895428
2.039671
2.099872
2.347827
2.208948
2.262592
2.458692
2.450943
2.638698
2.495646
3.107786
3.012419
3.451705
4.501939
21.268725
61.245561
191.155672
376.155972
642.973781
1015.605927
1015.605927
1015.605927
1015.605927
1015.605927
1015.605927
1015.605927
911.231637
612.075925
311.469436
167.324543
79.571605
67.030787
88.618994
109.644532
136.945844
149.936676
156.647563
151.836872
133.258700
110.505819
79.604983
59.709549
34.713745
25.027990
15.606880
11.055470
9.047985
8.000731
7.704496
8.085966
7.919669
8.366704
7.781982
8.404851
7.947683
8.576512
8.799434
8.584857
8.918643
9.033680
8.867979
8.989573
9.813905
9.982586
10.448694
11.038780
12.722611
13.454556
15.345812
15.211701
16.997457
16.418695
17.909408
16.826987
16.647577
16.273856
15.677810
15.776753
14.930964
14.613867
14.753938
14.841557
14.938712
15.217662
15.236735
14.620423
15.391707
15.629530
14.930964
15.049577
14.826655
15.607476
15.499592
##ZVALUE=275
1.985431
2.120733
1.791716
1.993775
1.821518
2.093911
2.055764
2.021790
2.167821
2.498627
2.225637
2.340674
2.621412
2.607703
2.821684
2.826452
2.958775
3.256798
3.972650
9.430647
33.727884
134.291649
290.818810
617.818832
954.149961
1015.605927
1015.605927
1015.605927
1015.605927
1015.605927
1015.605927
1015.605927
777.621865
478.550792
217.665434
113.608837
59.970617
60.224533
86.975694
106.819868
131.684542
148.799419
151.325464
148.429871
132.132769
112.312436
82.289577
61.055422
39.040446
26.553869
16.157627
11.743903
8.930564
8.042455
7.906556
8.285642
8.120537
8.699894
8.341670
8.319616
8.615851
8.277893
8.888841
8.553863
9.055734
9.470582
10.365844
10.541677
11.495948
11.433959
12.968779
14.279485
14.796853
15.984774
16.005635
16.503930
15.988946
15.669465
15.353560
15.250444
14.345646
13.990998
14.209747
13.896823
14.038682
13.663769
13.911724
14.118552
13.813972
14.066696
14.041662
14.048815
14.657974
13.579726
14.286637
14.597774
##ZVALUE=280
1.955628
1.814961
1.890659
1.889467
1.921654
1.990795
2.052784
1.867414
1.794696
2.001524
1.993775
2.190471
2.264977
2.190471
2.356768
2.766848
2.665520
2.898574
2.925992
3.449917
3.471971
6.099939
23.712516
75.100660
239.468813
431.221724
809.430480
1015.605927
1015.605927
1015.605927
1015.605927
1015.605927
1015.605927
1015.605927
947.636962
623.784661
300.844908
154.871941
65.357685
47.690868
58.900714
80.384612
109.802485
129.414797
146.882534
151.585937
146.593451
130.916834
107.988715
84.130764
56.883693
39.784908
24.882555
17.487407
10.989904
9.129643
8.419752
7.942915
8.217692
7.592440
8.116961
8.982420
8.606911
8.877516
9.392500
9.093881
9.396672
9.757876
10.507703
11.837482
13.166666
13.371706
14.154911
14.813542
15.024543
15.206933
15.310645
14.630556
14.888644
13.850927
13.995767
14.143586
13.857484
13.939738
13.423562
13.970733
13.074875
13.191700
13.308525
13.065934
12.554526
12.486577
13.082623
13.348460
13.291836
13.172626
##ZVALUE=285
1.844764
1.706481
1.684427
1.842976
1.836419
1.683831
1.715422
1.858473
1.923442
1.956820
1.969934
2.082586
2.131462
2.280474
2.150536
2.326965
2.337694
2.293587
2.475977
2.575517
2.749562
2.984405
3.317595
4.003644
11.980534
42.313933
143.430829
297.910571
621.664524
951.224566
1015.605927
1015.605927
1015.605927
1015.605927
1015.605927
1015.605927
1015.605927
850.304961
441.738963
249.131918
99.122524
50.185919
40.118694
52.918792
78.262687
99.800825
127.482414
141.145587
148.942471
144.081712
127.085447
111.945868
83.318949
63.686967
40.877461
27.969480
16.383529
12.254715
9.211898
8.832812
8.498430
8.189678
8.646846
8.537769
9.191632
9.504557
9.578466
9.918809
10.421872
11.607409
12.286901
12.908578
14.048815
14.296770
13.769865
13.854504
14.430881
13.998747
13.871789
13.888478
13.328791
13.100505
12.841821
12.485981
12.896657
13.365746
12.972951
12.409687
12.375712
13.092756
12.704730
12.906790
12.513995
12.962818
12.558699
12.971759
##ZVALUE=290
1.752973
1.682639
1.595616
1.619458
1.639724
1.730919
1.749992
1.862645
1.933575
1.801848
1.684427
1.944900
1.869798
1.895428
1.970530
2.176762
2.196431
1.992583
2.210736
2.365708
2.479553
2.528429
2.997518
3.071427
3.613830
3.599524
5.416870
18.384457
94.872713
223.830938
426.324606
847.467780
1015.605927
1015.605927
1015.605927
1015.605927
1015.605927
1015.605927
1015.605927
976.811647
659.788847
322.097540
163.093805
59.243441
32.540560
37.375689
50.455928
73.704720
93.551874
119.820833
133.571625
142.768621
141.292810
126.592517
109.500885
81.307888
61.236620
39.936900
27.474761
17.260909
12.649894
9.830594
9.055734
8.669496
8.797646
9.281635
9.770989
10.246634
10.225773
11.560917
11.665821
12.632608
12.815595
13.308525
13.739467
13.996959
13.918877
13.949871
13.529658
12.839437
12.843609
12.406707
12.765527
12.179613
12.261868
12.751818
12.735724
12.808442
12.782812
12.866855
12.806654
12.322664
12.486577
12.411475
11.839867
12.308955
##ZVALUE=295
1.662970
1.623631
1.696944
1.685619
1.647472
1.678467
1.737475
1.688600
1.557469
1.824498
2.015829
1.504421
1.846552
1.841784
1.841784
1.896620
2.069473
1.820922
2.151728
1.970530
2.298951
2.315640
2.296567
2.688766
2.962947
3.049970
3.457665
3.747940
4.179478
8.046627
43.880939
125.798583
288.101435
676.639676
1010.118723
1015.605927
1015.605927
1015.605927
1015.605927
1015.605927
1015.605927
1015.605927
910.801888
469.631553
251.773000
88.029504
39.283633
25.851727
32.157898
50.315857
66.858530
94.128847
111.804605
130.066872
137.404799
135.238767
122.073889
99.540949
81.790686
57.226419
41.596889
26.203990
18.423796
13.020635
10.576844
9.981990
10.224581
9.977818
10.489821
11.383891
11.955500
12.348890
12.915730
13.498664
13.879538
13.754964
13.480783
13.528466
13.247728
12.900829
12.753606
12.243986
12.550950
12.442470
12.617707
12.743473
12.700558
13.018847
12.510419
12.377501
12.346506
12.336969
11.853576
11.826754
12.157559
12.042522
##ZVALUE=300
1.427531
1.527667
1.533628
1.607537
1.488924
1.665950
1.638532
1.543760
1.528859
1.641512
1.660585
1.582503
1.742840
1.632571
1.631975
1.746416
1.754761
1.801848
1.780987
1.790524
2.180934
2.119541
2.280474
2.337694
2.454519
2.728701
2.757907
3.078580
3.325939
3.398657
3.592968
4.308820
18.654466
63.163638
216.414928
422.830582
856.452584
1015.605927
1015.605927
1015.605927
1015.605927
1015.605927
1015.605927
1015.605927
1000.846624
683.091879
337.817669
174.973607
60.718656
26.306510
22.124648
29.042959
45.259595
61.216950
86.087584
104.662776
123.277903
129.675865
129.412413
121.090412
100.412965
81.993937
58.712959
43.399930
27.563572
19.705892
13.635755
11.624694
10.771751
11.147857
11.744499
11.871457
12.727976
12.511611
13.451576
12.946725
12.907982
13.161898
12.898445
13.208985
12.931824
12.471676
13.009906
12.677908
12.506843
12.969971
12.447834
12.516975
12.715459
12.174845
11.905432
12.045503
11.909604
11.916757
11.974573
12.114644
##ZVALUE=305
1.375675
1.386404
1.476407
1.438856
1.439452
1.654625
1.638532
1.643896
1.750588
1.663566
1.490712
1.526475
1.640916
1.625419
1.692772
1.772642
1.831651
1.694560
1.847744
1.819730
1.997948
1.962781
2.005696
2.034903
2.121925
2.332926
2.449751
2.808571
2.716780
2.988577
3.144741
3.254414
3.638864
4.036427
7.250905
43.888688
123.435855
354.578495
637.812614
1015.605927
1015.605927
1015.605927
1015.605927
1015.605927
1015.605927
1015.605927
1015.605927
832.882524
516.526699
233.818889
109.542608
34.634471
18.768907
20.930767
28.114915
43.652654
60.180426
82.890987
100.172758
116.790533
124.580860
121.182799
114.598870
97.701550
79.252720
56.888461
41.845441
27.084947
20.527840
15.004873
13.438463
12.658834
12.669563
13.178587
13.585687
12.949705
13.161898
13.064742
12.564659
12.684464
12.551546
13.002753
12.827516
12.872815
13.105869
13.109446
12.914538
12.870431
13.006926
12.716651
12.603998
11.862516
11.907816
12.069941
11.828542
11.833906
##ZVALUE=310
1.366735
1.487732
1.397729
1.376867
1.589656
1.483560
1.501441
1.642704
1.550913
1.433492
1.555681
1.525879
1.602769
1.551509
1.560450
1.666546
1.705885
1.688600
1.644492
1.742840
1.746416
2.083778
1.779795
1.910925
2.206564
1.936555
2.088547
2.155900
2.374649
2.594590
2.739429
2.753735
2.781749
3.205538
3.345609
3.826618
4.332662
19.138455
62.932372
210.033655
419.924855
881.284475
1015.585661
1015.585661
1015.585661
1015.585661
1015.585661
1015.585661
1015.585661
1015.585661
784.839392
388.797522
203.800797
66.587925
25.671721
15.444756
17.745495
26.018620
36.474466
54.967999
71.815848
94.075799
107.220411
117.367506
117.038488
107.295513
96.130967
77.004433
58.774948
40.668845
30.442476
22.086501
17.849803
14.450550
13.802648
13.340712
12.771487
12.345910
12.497902
12.625456
12.256503
12.649894
13.078451
12.775660
12.596846
12.996793
13.178587
12.888908
12.605786
12.499690
12.341738
12.134910
12.283921
12.290478
12.632608
11.703968
##ZVALUE=315
1.386404
1.398921
1.509786
1.380444
1.487732
1.431704
1.480579
1.552701
1.495481
1.572967
1.412630
1.551509
1.452565
1.498461
1.645684
1.611710
1.573563
1.535416
1.610518
1.782775
1.609921
1.802444
1.981854
1.768470
1.933575
1.953840
2.076626
2.092719
2.165437
2.216697
2.394915
2.400875
2.434850
2.613664
2.853870
3.072619
3.199577
3.723502
3.966689
9.403825
33.845901
142.011642
311.240554
701.509714
1015.605927
1015.605927
1015.605927
1015.605927
1015.605927
1015.605927
1015.605927
1015.605927
1006.124020
552.386642
288.314819
98.198652
37.221909
15.147924
13.695955
17.823577
23.853779
36.502481
49.373507
68.050623
84.379911
102.787614
111.018419
111.210942
106.213689
89.540482
75.774789
57.080984
43.872595
29.766560
23.101568
17.017722
15.298724
13.238788
12.904406
12.753606
12.925863
12.301803
12.429953
12.644529
12.913942
12.789965
12.555718
12.742877
12.858510
12.547970
12.445450
12.525916
12.316704
12.570620
12.318492
12.053847
##ZVALUE=320
1.517534
1.336932
1.383424
1.439452
1.712441
1.660585
1.583695
1.522899
1.525879
1.537800
1.602769
1.505613
1.619458
1.651645
1.598597
1.618862
1.704693
1.780987
1.768470
1.723766
1.923442
1.892447
1.705885
1.829863
1.876950
1.953840
1.776814
2.124906
2.136827
2.181530
2.354980
2.172589
2.224445
2.499819
2.682805
2.665520
2.861619
3.110766
3.159642
3.423691
3.788471
5.297661
15.446544
82.120895
211.128592
544.769764
903.700590
1015.733480
1015.733480
1015.733480
1015.733480
1015.733480
1015.733480
1015.733480
1015.733480
721.819997
404.478908
164.655447
70.079565
20.785928
13.068914
13.650656
15.995502
22.595525
30.583739
47.858953
62.194467
82.836747
95.753670
105.576515
108.481646
101.100802
91.122985
72.132945
56.353807
40.932894
31.036735
21.651983
17.131567
14.736652
13.296604
12.763739
12.855530
12.840629
12.723804
12.849569
12.973547
13.126731
12.760758
13.102889
12.658834
12.539625
12.373924
12.104511
11.939406
12.396574
##ZVALUE=325
1.246929
1.438856
1.443624
1.374483
1.292825
1.400709
1.365542
1.377463
1.327991
1.465678
1.379848
1.285672
1.382828
1.496673
1.302958
1.415610
1.514554
1.521707
1.655817
1.374483
1.607537
1.624823
1.496673
1.672506
1.735687
1.619458
1.736879
1.716614
1.763701
1.851916
1.963973
1.958609
2.163649
2.093911
2.124906
2.270937
2.306700
2.517700
2.735853
2.676845
3.169775
3.181696
3.465414
4.292727
8.611679
54.584742
143.425465
376.212597
677.577853
1015.605927
1015.605927
1015.605927
1015.605927
1015.605927
1015.605927
1015.605927
1015.605927
879.390836
532.170534
234.414935
106.786489
29.819608
14.394522
11.785626
12.758970
16.127825
20.824671
31.856894
43.889880
64.508915
79.186559
95.226765
102.543831
103.910565
95.901489
83.108544
68.999529
51.367879
39.144754
26.620626
20.999908
15.910864
14.164448
13.297796
13.151765
12.768507
13.078451
12.691617
13.054609
12.450814
12.236834
12.265444
11.905432
12.132525
11.994839
11.889935
##ZVALUE=330
1.301765
1.231432
1.202822
1.334548
1.363754
1.349449
1.284480
1.300573
1.147985
1.422763
1.429915
1.390576
1.272559
1.352429
1.361966
1.401901
1.620650
1.254678
1.504421
1.466870
1.485944
1.460910
1.521707
1.389980
1.678467
1.625419
1.661777
1.757741
1.558661
1.734495
1.649857
1.983643
1.881719
1.892447
1.857877
1.958609
2.163649
2.083778
2.444983
2.461672
2.495646
2.709627
2.904534
3.275871
3.369451
3.833771
4.980564
24.538636
79.126954
256.435871
491.127968
961.672664
1015.604734
1015.604734
1015.604734
1015.604734
1015.604734
1015.604734
1015.604734
1011.565924
679.363608
304.554701
147.378445
49.335957
19.520521
11.931658
11.694431
12.664795
15.455484
22.386909
29.858947
43.905973
57.744980
75.519681
86.834431
95.243454
95.940828
88.806748
79.242587
63.003898
50.335526
35.971999
27.642846
20.218492
16.722679
14.481544
13.545752
12.465715
12.332797
12.310743
12.213588
12.204647
11.881590
11.815429
11.963844
12.017488
##ZVALUE=335
1.245737
1.329780
1.308918
1.271963
1.237988
1.232624
1.382828
1.282692
1.231432
1.300573
1.289845
1.377463
1.308918
1.318455
1.324415
1.365542
1.518726
1.499653
1.282692
1.360774
1.425743
1.578927
1.426935
1.438856
1.611710
1.507998
1.590848
1.658797
1.648664
1.865625
1.703501
1.789927
1.737475
1.732707
1.798868
1.965761
1.855493
2.076626
2.001524
2.149940
2.212524
2.401471
2.548695
2.713799
2.723932
3.050566
3.173947
3.667474
3.998876
11.667609
43.841600
174.434781
362.010598
788.848996
1015.605927
1015.605927
1015.605927
1015.605927
1015.605927
1015.605927
1015.605927
1015.605927
863.406658
436.573625
223.454833
75.477958
27.847886
12.833476
11.499524
11.970997
13.184547
16.144514
20.445585
30.899644
40.173531
56.879520
68.226457
81.910491
89.278817
89.365840
85.413456
72.993636
62.053800
47.124624
37.886500
26.988983
21.401644
16.672611
14.400482
12.717843
12.238622
11.869669
12.039542
12.011528
11.831522
11.626482
##ZVALUE=340
1.143813
1.202822
1.123548
1.320839
1.187921
1.381636
1.065731
1.162887
1.241565
1.179576
1.261830
1.241565
1.186728
1.266599
1.282692
1.313686
1.193881
1.289845
1.495481
1.320839
1.360774
1.345873
1.456738
1.445413
1.532435
1.495481
1.576543
1.677871
1.511574
1.461506
1.461506
1.655817
1.688600
1.664758
1.697540
1.884699
1.971722
1.924634
1.893640
1.880527
2.040863
2.227426
2.298951
2.257824
2.484918
2.517700
2.629757
2.792478
3.212690
3.690720
3.776550
6.050467
20.395517
105.662942
260.246992
643.422008
1001.178622
1015.604734
1015.604734
1015.604734
1015.604734
1015.604734
1015.604734
1015.604734
1014.429927
548.543930
291.017890
109.278560
41.531920
14.683604
12.626648
12.236834
12.256503
13.280511
15.502572
21.423697
27.830601
39.615631
51.127672
66.937804
77.515841
84.028840
84.632635
79.213977
72.393417
58.743954
48.382878
35.495758
27.863979
20.386577
16.612411
13.517737
12.425780
11.531711
11.438727
11.561513
##ZVALUE=345
1.169443
1.260638
1.126528
1.117587
1.256466
1.186728
1.297593
1.195669
1.302958
1.247525
1.385808
1.198649
1.309514
1.362562
1.457930
1.248717
1.222491
1.413822
1.283884
1.428723
1.465678
1.401901
1.560450
1.342893
1.397729
1.385808
1.534820
1.508594
1.398921
1.607537
1.537800
1.701713
1.714826
1.695752
1.638532
1.724958
1.718998
1.600981
1.604557
1.927614
1.654625
1.796484
1.959801
2.054572
2.069473
2.395511
2.484918
2.619624
2.713799
2.885461
2.954602
3.102422
3.498793
4.309416
9.090900
56.870580
159.575939
431.578755
780.971646
1015.603542
1015.603542
1015.603542
1015.603542
1015.603542
1015.603542
1015.603542
1015.603542
749.374628
407.056808
156.425834
64.089894
20.489693
13.482571
11.962652
11.554956
11.562705
12.279749
14.570951
18.048882
26.549697
35.911798
49.305558
60.535669
70.381761
76.867938
78.578591
75.660944
67.081451
57.589412
45.793653
36.877990
25.688410
20.650625
16.059875
13.695955
12.256503
##ZVALUE=350
1.213551
1.227856
1.274943
1.218915
1.086593
1.309514
1.231432
1.194477
1.212955
1.187921
1.083612
1.332760
1.326799
1.231432
1.398921
1.432896
1.326799
1.260638
1.252890
1.191497
1.283884
1.237988
1.399517
1.430511
1.395941
1.283884
1.588464
1.441836
1.415610
1.493692
1.501441
1.450777
1.467466
1.676679
1.709461
1.617670
1.612902
1.706481
1.492500
1.850724
1.708865
1.871586
1.818538
1.823902
1.825690
1.911521
2.213717
2.185702
2.381802
2.378821
2.503991
2.667904
2.796650
3.179908
3.452897
3.857613
5.535483
29.662848
92.581511
286.265612
549.570918
1015.607715
1015.607715
1015.607715
1015.607715
1015.607715
1015.607715
1015.607715
1015.607715
915.743709
544.150472
234.666467
100.253820
26.518703
13.596416
10.950565
10.579824
10.324717
10.160804
10.944605
13.098717
18.126965
23.362637
32.673478
41.291714
53.613782
62.036514
69.864988
72.028637
69.977641
64.680576
52.934885
44.421554
33.275485
26.316643
19.505620
##ZVALUE=355
1.266599
1.145601
1.290441
1.239777
1.334548
1.434684
1.332760
1.551509
1.437664
1.319647
1.492500
1.385808
1.227856
1.280904
1.208782
1.389980
1.255870
1.348853
1.474619
1.363754
1.508594
1.502633
1.510978
1.537800
1.516938
1.554489
1.527667
1.446605
1.489520
1.266599
1.457930
1.601577
1.480579
1.703501
1.779795
1.540780
1.521707
1.596808
1.716614
1.745820
1.695752
1.830459
1.773834
1.871586
1.883507
2.078414
1.959801
2.096891
2.176762
2.390742
2.342463
2.474785
2.633929
2.846718
3.024936
3.196597
3.273487
3.723502
4.204512
13.377666
50.600767
192.019939
385.494828
808.627009
1015.658975
1015.658975
1015.658975
1015.658975
1015.658975
1015.658975
1015.658975
1015.030742
665.287971
282.631516
128.126740
36.191940
15.256405
10.825992
10.473728
10.218620
9.753704
10.192990
10.811687
12.436509
14.980435
21.077991
27.281642
38.343668
46.142936
55.517554
62.318444
65.792799
65.046549
58.223605
51.263571
41.492581
##ZVALUE=360
1.184940
1.230836
1.289845
1.262426
1.097918
1.176596
1.121759
1.245737
1.368523
1.350641
1.462698
1.306534
1.309514
1.313686
1.547933
1.350641
1.276731
1.285672
1.255870
1.317859
1.405478
1.397729
1.436472
1.366735
1.415610
1.434684
1.504421
1.364946
1.519918
1.465678
1.493692
1.598597
1.592636
1.532435
1.531839
1.579523
1.630783
1.618862
1.818538
1.541972
1.791716
1.732707
1.665950
1.855493
1.818538
1.753569
1.898408
2.035499
2.087951
2.160668
2.295971
2.234578
2.355576
2.596974
2.704859
2.655983
2.934933
3.088713
3.389716
3.520846
4.091859
6.433725
20.994544
94.364882
223.914385
556.055903
940.255523
1015.605927
1015.605927
1015.605927
1015.605927
1015.605927
1015.605927
1015.605927
823.717713
384.683013
193.172693
64.702630
24.268627
11.050701
10.148883
9.583831
9.454489
9.091496
9.344816
9.980798
10.444522
13.172626
16.983747
23.973584
31.032562
40.821433
48.335791
55.787563
58.843493
59.015751
##ZVALUE=365
1.211762
1.261830
1.192689
1.237988
1.177788
1.335740
1.186728
1.240969
1.155734
1.191497
1.273751
1.339912
1.322627
1.282692
1.342893
1.440644
1.223683
1.299977
1.417994
1.242757
1.526475
1.303554
1.373887
1.470447
1.465678
1.476407
1.514554
1.293421
1.521707
1.441836
1.413822
1.570582
1.584888
1.393557
1.484752
1.506805
1.539588
1.566410
1.610518
1.661777
1.771450
1.586676
1.769662
1.724958
1.739860
1.793504
1.815557
1.791716
2.022982
1.996756
2.103448
2.095699
2.235770
2.193451
2.421737
2.332926
2.344847
2.654791
2.902746
3.118515
3.335476
3.790855
3.963709
4.706979
9.876490
56.138635
150.744915
391.931534
717.455745
1015.635729
1015.635729
1015.635729
1015.635729
1015.635729
1015.635729
1015.635729
983.139873
538.801551
280.709863
95.681548
35.748482
12.101531
9.420514
9.336472
8.802414
8.805990
8.463860
8.283854
8.437634
9.571910
11.062622
15.092492
19.094944
26.578903
33.533573
42.320490
##ZVALUE=370
1.285672
1.203418
1.346469
1.188517
1.147985
1.249909
1.264811
1.283884
1.202822
1.155734
1.204610
1.208782
1.185536
1.269579
1.271963
1.415610
1.375675
1.337528
1.065731
1.318455
1.433492
1.317859
1.315475
1.422763
1.344681
1.207590
1.343489
1.445413
1.365542
1.334548
1.406670
1.332760
1.339912
1.532435
1.477599
1.575947
1.653433
1.469851
1.554489
1.485944
1.708865
1.636744
1.579523
1.626611
1.492500
1.569986
1.731515
1.675487
1.843572
1.727939
1.873970
1.835823
1.889467
1.959801
2.037883
2.271533
2.210736
2.455711
2.472997
2.485514
2.518892
2.867579
3.000498
3.284812
3.597736
4.089475
6.128550
34.859776
113.243461
330.891013
607.998967
1015.605927
1015.605927
1015.605927
1015.605927
1015.605927
1015.605927
1015.605927
1015.605927
706.453919
386.101007
142.958760
60.056448
17.531514
9.969473
8.614659
8.576512
8.031726
7.967949
7.800460
7.631779
8.000731
8.298755
10.226965
12.565851
17.371774
##ZVALUE=375
1.207590
1.079440
1.069903
1.207590
1.166463
1.287460
1.211762
1.087785
1.146793
1.148582
1.012683
1.182556
1.225471
1.224875
1.235604
1.187921
1.245737
1.223683
1.144409
1.182556
1.324415
1.232624
1.274943
1.219511
1.316667
1.442432
1.376867
1.239777
1.544952
1.278520
1.262426
1.371503
1.363754
1.308918
1.488924
1.283884
1.375675
1.256466
1.382828
1.739860
1.468658
1.443624
1.416802
1.439452
1.671910
1.520514
1.469851
1.523495
1.530647
1.601577
1.710653
1.747608
1.712441
1.937747
1.861453
1.840591
1.932979
1.968741
2.093911
2.147555
2.290606
2.494454
2.449751
2.741814
2.685785
3.030896
3.358722
3.933907
4.577637
15.844703
59.073567
222.666860
470.849872
972.365737
1015.605927
1015.605927
1015.605927
1015.605927
1015.605927
1015.605927
1015.605927
921.733975
569.211841
270.688534
128.247738
37.049651
14.018416
8.544922
8.031726
7.790923
7.468462
7.375479
7.193685
6.937981
7.225871
7.867813
##ZVALUE=380
1.044869
0.995994
1.126528
1.118779
1.246929
1.246929
1.122952
1.177788
1.157522
1.304746
1.136661
1.167655
1.139641
1.148582
1.073480
1.118779
1.223683
1.324415
1.199841
1.215935
1.207590
1.422763
1.158714
1.184940
1.279712
1.172423
1.129508
1.201630
1.377463
1.369715
1.253486
1.288652
1.213551
1.347661
1.222491
1.238585
1.371503
1.335740
1.409650
1.474619
1.264811
1.415610
1.495481
1.430511
1.366735
1.421571
1.548529
1.370907
1.483560
1.631975
1.638532
1.688600
1.730919
1.725554
1.693964
1.809597
1.846552
1.941919
1.954436
2.073646
2.086759
2.095699
2.196431
2.363920
2.459884
2.839565
2.766848
3.228784
3.606677
4.273653
4.436970
8.500814
32.371879
158.247948
368.472934
840.541720
1015.617847
1015.617847
1015.617847
1015.617847
1015.617847
1015.617847
1015.617847
1015.617847
833.237767
391.613841
190.943480
59.943795
22.546649
9.266734
7.867813
7.567406
7.197857
7.065535
6.897449
6.772876
##ZVALUE=385
1.327991
1.427531
1.179576
1.347661
1.374483
1.438856
1.451969
1.135468
1.217723
1.166463
1.377463
1.377463
1.362562
1.466870
1.287460
1.209974
1.256466
1.374483
1.250505
1.427531
1.209974
1.270771
1.391768
1.462698
1.276731
1.381636
1.356602
1.330972
1.420975
1.673698
1.409650
1.498461
1.401901
1.455545
1.447797
1.530647
1.443624
1.477599
1.580715
1.596808
1.602769
1.695752
1.715422
1.614690
1.459718
1.558661
1.591444
1.743436
1.718998
1.599789
1.798868
1.824498
1.828671
1.840591
1.822710
1.718998
1.920462
1.789927
2.001524
2.002716
2.015829
2.205968
2.101660
2.254844
2.364516
2.545714
2.602935
2.809763
3.059506
3.556609
3.978610
4.221797
4.475713
5.394816
16.604662
88.800788
231.784582
595.579743
976.557732
1015.833616
1015.833616
1015.833616
1015.833616
1015.833616
1015.833616
1015.833616
1012.812853
568.541884
312.366486
118.058920
44.506788
12.065768
7.869601
7.190704
7.004738
6.942749
##ZVALUE=390
1.255870
1.379848
1.342893
1.247525
1.302958
1.405478
1.353621
1.209974
1.366735
1.245737
1.277924
1.263618
1.267791
1.290441
1.309514
1.464486
1.308918
1.404881
1.478791
1.419783
1.212955
1.396537
1.212955
1.485944
1.352429
1.493692
1.340508
1.382828
1.349449
1.409650
1.405478
1.353621
1.411438
1.500845
1.391768
1.453757
1.404881
1.351833
1.533628
1.308918
1.433492
1.468658
1.577735
1.685619
1.450777
1.585484
1.608729
1.492500
1.629591
1.674891
1.785755
1.642704
1.860857
1.785755
1.724958
1.955628
1.847744
1.868606
1.799464
1.981854
1.994967
2.088547
2.089739
2.052784
2.333522
2.307892
2.496839
2.733469
3.036857
3.232956
3.522635
3.630519
3.821850
3.780723
4.169941
4.485846
7.635951
43.489933
140.387416
428.346395
809.433460
1015.821695
1015.821695
1015.821695
1015.821695
1015.821695
1015.821695
1015.821695
1015.821695
842.965841
479.063988
186.700821
78.890920
19.242764
8.781552
7.129908
##ZVALUE=395
1.093745
1.066923
1.084805
0.934601
0.955462
1.011491
1.016855
0.992417
1.151562
1.115799
1.040697
1.035929
1.066923
0.942945
1.097918
1.283884
0.997782
1.114607
1.052618
1.058578
1.082420
1.233816
1.194477
1.185536
1.188517
1.071692
1.114607
1.177788
1.053810
1.173615
1.166463
1.185536
1.250505
1.054406
1.271963
1.228452
1.182556
1.264811
1.333952
1.086593
1.267791
1.453757
1.371503
1.325607
1.381636
1.404881
1.217723
1.458526
1.379848
1.469851
1.558661
1.275539
1.359582
1.634955
1.514554
1.594424
1.639724
1.552701
1.504421
1.613498
1.849532
1.809597
1.627803
1.882911
1.957417
1.933575
2.273917
2.372861
2.502799
2.749562
3.087521
3.087521
3.111959
3.319979
3.036857
3.235936
3.438592
3.924966
4.762411
26.112795
98.289847
329.485536
624.627471
1015.605927
1015.605927
1015.605927
1015.605927
1015.605927
1015.605927
1015.605927
1015.605927
966.677070
609.382987
279.874802
128.793716
37.333965
##ZVALUE=400
0.974536
1.100898
1.138449
1.114607
1.038909
1.197457
1.114607
1.109838
1.088977
1.125932
1.035929
1.134872
0.994802
1.174808
1.142621
1.136661
1.166463
1.161695
1.087785
1.161695
1.164675
1.206994
1.048446
1.240969
1.103878
1.225471
1.164675
1.101494
1.206994
1.192689
1.201630
1.163483
1.162887
1.098514
1.304746
1.205802
1.162887
1.050830
1.382828
1.233816
1.186728
1.272559
1.300573
1.404881
1.300573
1.256466
1.396537
1.302958
1.417994
1.398921
1.350641
1.357794
1.416802
1.486540
1.431704
1.532435
1.570582
1.529455
1.516938
1.580715
1.452565
1.853704
1.656413
1.776814
1.927614
2.180934
1.998544
2.080798
2.383590
2.682805
2.651811
2.856851
2.780557
2.891421
2.820492
2.815723
2.869964
3.114939
3.374815
3.850460
4.222989
11.389852
41.863918
159.432888
352.488756
814.443827
1015.605927
1015.605927
1015.605927
1015.605927
1015.605927
1015.605927
1015.605927
1015.605927
761.243701
366.523862
##END
