160.701	-31.38
166.742	-0.04
172.777	95.96
178.805	384.62
184.826	1090.96
190.841	2295.29
196.849	3673.29
202.85	4633.62
208.845	4834.62
214.833	4668.29
220.815	4462.62
226.789	4306.96
232.758	4157.29
238.719	4006.62
244.674	3830.62
250.623	3633.62
256.565	3449.62
262.5	3261.96
268.429	3091.29
274.351	2953.96
280.267	2817.29
286.176	2694.62
292.079	2595.62
297.975	2483.96
303.865	2417.96
309.748	2342.62
315.625	2282.96
321.495	2231.62
327.359	2203.29
333.217	2171.29
339.068	2154.62
344.912	2140.62
350.751	2124.62
356.583	2124.96
362.408	2114.96
368.227	2113.62
374.04	2144.62
379.847	2159.29
385.647	2183.62
391.44	2172.29
397.228	2161.96
403.009	2181.29
408.784	2213.96
414.553	2270.62
420.315	2330.62
426.071	2337.62
431.821	2269.62
437.565	2198.96
443.302	2163.62
449.033	2137.62
454.758	2118.96
460.477	2115.96
466.189	2094.29
471.896	2074.96
477.596	2057.29
483.29	2030.96
488.978	2016.62
494.66	2008.62
500.335	1976.29
506.005	1934.62
511.668	1894.29
517.325	1845.29
522.977	1803.29
528.622	1777.96
534.261	1753.62
539.894	1734.29
545.521	1708.29
551.141	1687.96
556.756	1671.29
562.365	1654.62
567.968	1647.96
573.565	1624.62
579.155	1613.96
584.74	1583.29
590.319	1570.96
595.892	1556.62
601.459	1533.29
607.02	1520.96
612.575	1505.62
618.124	1474.29
623.667	1452.29
629.204	1451.62
634.735	1441.29
640.261	1445.29
645.781	1447.29
651.294	1455.96
656.802	1424.29
662.304	1391.62
667.8	1370.62
673.29	1347.62
678.775	1332.62
684.254	1319.96
689.726	1301.29
695.193	1283.29
700.655	1278.96
706.11	1266.62
711.56	1241.62
717.004	1238.62
722.442	1221.62
727.874	1199.29
733.301	1196.96
738.722	1194.29
744.137	1181.96
749.547	1178.62
754.951	1178.96
760.349	1157.62
765.741	1144.29
771.128	1137.29
776.509	1131.96
781.885	1123.62
787.254	1108.62
792.618	1104.96
797.977	1081.29
803.33	1072.96
808.677	1053.29
814.019	1036.96
819.355	1030.29
824.686	1005.29
830.011	984.96
835.33	979.29
840.644	957.96
845.952	954.96
851.255	939.29
856.552	926.96
861.844	912.62
867.13	895.62
872.41	886.62
877.686	866.96
882.955	852.29
888.219	828.62
893.478	816.96
898.731	792.62
903.979	771.96
909.221	755.96
914.458	736.62
919.69	733.29
924.916	722.29
930.136	716.62
935.351	711.29
940.561	706.29
945.766	685.96
950.965	686.62
956.158	674.62
961.347	659.96
966.529	648.29
971.707	640.29
976.879	625.62
982.046	612.29
987.208	601.29
992.364	604.29
997.515	595.29
1002.66	608.96
1007.801	605.96
1012.936	606.62
1018.066	613.96
1023.19	609.96
1028.309	616.62
1033.423	610.29
1038.532	601.96
1043.636	595.29
1048.734	586.96
1053.827	572.96
1058.915	561.62
1063.998	560.29
1069.075	556.96
1074.147	556.29
1079.214	558.96
1084.276	559.96
1089.333	562.96
1094.385	563.62
1099.431	565.29
1104.472	566.96
1109.509	552.96
1114.54	544.96
1119.565	530.96
1124.586	532.96
1129.602	519.29
1134.613	518.62
1139.618	517.96
1144.619	517.29
1149.614	514.96
1154.604	516.29
1159.589	521.96
1164.57	522.29
1169.545	517.62
1174.515	520.96
1179.48	520.62
1184.44	510.62
1189.395	505.29
1194.345	501.96
1199.29	498.29
1204.23	499.29
1209.165	493.29
1214.095	500.96
1219.021	503.96
1223.941	508.96
1228.856	512.96
1233.766	510.62
1238.672	507.96
1243.572	497.62
1248.467	504.62
1253.358	485.62
1258.244	476.29
1263.124	466.96
1268	464.62
1272.871	458.62
1277.737	447.29
1282.599	449.96
1287.455	445.96
1292.306	446.29
1297.153	446.96
1301.995	453.29
1306.832	449.29
1311.664	449.62
1316.491	450.96
1321.314	447.62
1326.132	436.29
1330.945	428.96
1335.753	419.96
1340.556	415.62
1345.354	405.96
1350.148	400.62
1354.937	396.62
1359.722	395.29
1364.501	390.96
1369.276	385.96
1374.046	392.29
1378.811	390.62
1383.572	389.96
1388.327	382.96
1393.079	379.62
1397.825	373.62
1402.567	368.29
1407.304	359.96
1412.036	350.96
1416.764	350.62
1421.487	350.96
1426.205	351.96
1430.919	353.96
1435.628	358.29
1440.333	358.96
1445.032	364.29
1449.727	363.62
1454.418	364.62
1459.104	362.29
1463.785	365.96
1468.462	358.96
1473.134	352.96
1477.802	354.96
1482.465	349.62
1487.123	351.62
1491.777	356.96
1496.426	362.29
1501.071	369.96
1505.711	383.62
1510.347	393.62
1514.978	397.96
1519.604	397.62
1524.226	407.29
1528.844	414.96
1533.457	408.29
1538.065	417.96
1542.669	421.62
1547.269	420.96
1551.864	422.62
1556.454	438.62
1561.041	447.96
1565.622	455.62
1570.199	468.96
1574.772	492.62
1579.34	502.62
1583.904	527.62
1588.464	546.96
1593.019	563.29
1597.569	589.96
1602.115	607.96
1606.657	626.96
1611.195	637.96
1615.728	658.29
1620.256	689.29
1624.78	709.62
1629.3	734.29
1633.816	745.29
1638.327	769.96
1642.834	778.62
1647.336	789.62
1651.834	781.29
1656.328	773.62
1660.817	753.96
1665.302	733.29
1669.783	702.62
1674.259	674.29
1678.732	642.62
1683.199	602.62
1687.663	557.62
1692.122	522.62
1696.577	485.62
1701.028	455.62
1705.474	420.96
1709.917	391.62
1714.355	370.96
1718.788	346.62
1723.218	317.62
1727.643	297.29
1732.064	278.29
1736.481	257.29
1740.893	239.29
1745.301	212.62
1749.705	201.62
1754.105	185.29
1758.501	168.96
1762.893	161.96
1767.28	150.29
1771.663	142.96
1776.042	140.62
1780.417	134.29
1784.787	127.96
1789.154	125.29
1793.516	124.29
1797.874	120.29
1802.228	116.29
1806.578	113.62
1810.924	108.62
1815.266	100.62
1819.603	98.96
1823.937	90.96
1828.266	92.29
1832.591	88.96
1836.913	85.29
1841.23	82.96
1845.543	82.29
1849.852	83.96
1854.156	80.29
1858.457	82.62
1862.754	81.96
1867.047	79.96
1871.335	81.29
1875.62	76.62
1879.9	78.62
1884.177	82.62
1888.449	80.29
1892.718	78.62
1896.982	78.29
1901.243	77.62
1905.499	75.29
1909.752	76.96
1914	79.96
1918.245	81.96
1922.485	79.62
1926.722	82.62
1930.954	88.29
1935.183	93.29
1939.408	89.62
1943.628	92.96
1947.845	92.96
1952.058	93.62
1956.267	92.96
1960.472	89.29
1964.673	87.29
1968.87	87.29
1973.063	86.29
1977.252	82.29
1981.438	85.62
1985.619	88.96
1989.797	87.29
1993.971	87.62
1998.14	88.62
2002.306	92.96
2006.469	92.29
2010.627	95.62
2014.781	97.62
2018.932	94.62
2023.078	96.62
2027.221	97.29
2031.36	99.29
2035.495	96.96
2039.627	96.29
2043.754	97.96
2047.878	97.96
2051.998	100.62
2056.114	100.29
2060.226	104.96
2064.334	105.62
2068.439	105.96
2072.54	108.62
2076.637	113.29
2080.73	115.29
2084.82	117.96
2088.906	119.29
2092.988	115.29
2097.066	114.62
2101.14	117.29
2105.211	113.29
2109.278	109.96
2113.342	111.29
2117.401	110.62
2121.457	110.96
2125.509	106.29
2129.558	102.96
2133.602	105.29
2137.643	98.62
2141.681	98.29
2145.714	101.29
2149.744	95.29
2153.77	93.96
2157.793	84.96
2161.812	88.62
2165.827	83.29
2169.838	80.62
2173.846	73.62
2177.851	67.29
2181.851	65.96
2185.848	64.29
2189.841	57.96
2193.831	52.62
2197.817	48.62
2201.799	51.62
2205.778	49.29
2209.753	43.62
2213.725	48.29
2217.693	42.96
2221.657	40.96
2225.618	39.29
2229.575	33.62
2233.529	32.62
2237.479	28.62
2241.425	26.62
2245.368	23.29
2249.307	19.62
2253.243	14.29
2257.175	12.62
2261.104	10.29
2265.029	9.29
2268.95	3.96
2272.868	-0.04
2276.783	0.96
2280.694	-2.71
2284.601	-3.38
2288.505	-6.71
2292.405	-6.71
2296.302	-6.38
2300.195	-12.71
2304.085	-14.71
2307.971	-16.38
2311.854	-22.38
2315.734	-21.38
2319.609	-21.71
2323.482	-24.38
2327.351	-28.71
2331.216	-28.71
2335.078	-29.71
2338.937	-32.04
2342.792	-32.71
2346.643	-34.38
2350.492	-35.71
2354.336	-37.71
2358.178	-38.04
2362.015	-37.71
2365.85	-39.71
2369.681	-39.38
2373.508	-37.71
2377.333	-40.71
2381.153	-40.04
2384.971	-40.04
2388.785	-41.04
2392.595	-40.71
2396.402	-39.71
2400.206	-41.38
2404.007	-47.71
2407.804	-46.04
2411.597	-43.71
2415.388	-45.38
2419.174	-45.38
2422.958	-48.71
2426.738	-47.38
2430.515	-46.71
2434.289	-51.38
2438.059	-49.71
2441.825	-49.04
2445.589	-52.04
2449.349	-52.04
2453.106	-51.38
2456.859	-50.38
2460.61	-53.38
2464.356	-54.71
2468.1	-54.04
2471.84	-57.04
2475.577	-57.38
2479.311	-57.04
2483.041	-56.38
2486.768	-59.04
2490.492	-60.04
2494.213	-60.71
2497.93	-57.38
2501.644	-57.04
2505.355	-60.38
2509.062	-58.71
2512.766	-58.04
2516.467	-58.71
2520.165	-57.71
2523.859	-61.71
2527.551	-60.38
2531.239	-57.38
2534.923	-57.71
2538.605	-59.71
2542.283	-60.71
2545.958	-59.04
2549.63	-60.38
2553.299	-62.04
2556.964	-59.71
2560.626	-63.38
2564.285	-63.38
2567.941	-61.04
2571.594	-61.71
2575.243	-62.71
2578.89	-67.38
2582.533	-65.38
2586.173	-64.38
2589.809	-66.04
2593.443	-67.38
2597.073	-64.71
2600.701	-66.38
2604.325	-68.71
2607.946	-67.04
2611.564	-68.38
2615.178	-65.71
2618.79	-69.71
2622.398	-70.38
2626.004	-65.71
2629.606	-68.71
2633.205	-67.71
2636.801	-67.38
2640.394	-67.38
2643.983	-66.71
2647.57	-67.71
2651.153	-68.71
2654.734	-68.38
2658.311	-67.38
2661.885	-67.04
2665.456	-66.38
2669.025	-65.71
2672.589	-66.71
2676.151	-66.71
2679.71	-66.38
2683.266	-65.71
2686.819	-68.38
2690.368	-65.38
2693.915	-67.71
2697.458	-66.04
2700.999	-65.71
2704.536	-65.71
2708.071	-64.38
2711.602	-69.04
2715.13	-67.04
2718.656	-64.71
2722.178	-63.04
2725.697	-66.04
2729.214	-63.04
2732.727	-62.71
2736.237	-62.04
2739.744	-56.38
2743.249	-55.71
2746.75	-57.71
2750.248	-56.04
2753.743	-56.38
2757.236	-53.04
2760.725	-54.38
2764.211	-53.04
2767.695	-50.04
2771.175	-50.04
2774.652	-49.04
2778.127	-48.38
2781.598	-47.38
2785.067	-45.71
2788.532	-44.71
2791.995	-45.04
2795.455	-42.38
2798.911	-42.04
2802.365	-40.04
2805.816	-38.04
2809.264	-36.38
2812.709	-35.38
2816.151	-33.38
2819.59	-30.71
2823.026	-30.04
2826.46	-27.71
2829.89	-26.38
2833.318	-25.04
2836.742	-22.38
2840.164	-19.04
2843.583	-19.04
2846.999	-15.38
2850.412	-14.04
2853.822	-10.04
2857.229	-7.71
2860.634	-5.71
2864.035	-0.38
2867.434	7.62
2870.83	4.96
2874.223	11.62
2877.613	11.29
2881	15.96
2884.385	16.96
2887.766	25.29
2891.145	26.62
2894.521	31.96
2897.894	30.29
2901.264	33.62
2904.631	36.96
2907.996	40.29
2911.358	42.29
2914.717	49.29
2918.073	52.62
2921.426	56.62
2924.777	64.29
2928.124	67.29
2931.469	79.96
2934.811	76.96
2938.15	82.62
2941.487	86.62
2944.821	92.96
2948.152	96.96
2951.48	107.96
2954.805	108.29
2958.128	113.29
2961.447	117.96
2964.765	124.29
2968.079	134.29
2971.39	139.96
2974.699	147.29
2978.005	153.96
2981.308	169.96
2984.609	175.62
2987.907	188.96
2991.202	201.96
2994.494	208.96
2997.784	222.29
3001.07	235.29
3004.355	244.62
3007.636	251.96
3010.915	259.29
3014.191	270.96
3017.464	273.29
3020.734	287.29
3024.002	292.29
3027.267	303.96
3030.53	322.96
3033.789	323.29
3037.046	335.62
3040.301	348.96
3043.552	355.96
3046.801	376.96
3050.048	384.29
3053.291	399.62
3056.532	418.96
3059.771	439.96
3063.006	458.62
3066.239	478.62
3069.469	494.29
3072.697	513.29
3075.922	536.29
3079.144	555.96
3082.364	574.62
3085.581	585.96
3088.795	613.29
3092.007	626.62
3095.216	645.62
3098.423	659.96
3101.627	684.62
3104.828	705.62
3108.026	722.96
3111.222	743.96
3114.416	763.62
3117.607	790.96
3120.795	800.96
3123.98	832.29
3127.163	854.96
3130.344	874.62
3133.521	895.62
3136.696	916.96
3139.869	943.62
3143.039	959.29
3146.206	976.96
3149.371	993.29
3152.533	1005.29
3155.693	1018.62
3158.85	1023.62
3162.005	1038.62
3165.157	1041.62
3168.306	1044.96
3171.453	1053.62
3174.597	1059.62
3177.739	1061.29
3180.878	1068.96
3184.014	1066.62
3187.149	1074.62
3190.28	1090.62
3193.409	1097.96
3196.536	1093.62
3199.659	1099.29
3202.781	1109.62
3205.9	1100.62
3209.016	1104.62
3212.13	1115.29
3215.241	1112.29
3218.35	1100.29
3221.456	1094.96
3224.56	1085.62
3227.661	1077.96
3230.76	1069.96
3233.856	1059.96
3236.95	1052.62
3240.041	1050.96
3243.13	1043.29
3246.216	1041.62
3249.3	1043.62
3252.382	1032.96
3255.46	1030.29
3258.537	1021.29
3261.611	1025.29
3264.682	1019.96
3267.751	1014.62
3270.818	1017.29
3273.882	1020.96
3276.943	999.96
3280.002	996.96
3283.059	993.62
3286.113	973.96
3289.165	960.29
3292.214	944.62
3295.261	933.62
3298.306	918.29
3301.348	905.29
3304.387	887.62
3307.425	880.96
3310.459	860.62
3313.492	855.96
3316.521	841.62
3319.549	838.29
3322.574	831.29
3325.597	819.62
3328.617	812.96
3331.635	807.62
3334.65	809.62
3337.663	810.29
3340.674	807.96
3343.682	795.29
3346.688	796.96
3349.691	798.62
3352.692	796.96
3355.691	787.96
3358.687	784.62
3361.681	776.62
3364.673	767.96
3367.662	756.62
3370.649	744.29
3373.633	741.96
3376.615	735.96
3379.595	722.96
3382.572	713.96
3385.547	708.29
3388.52	695.96
3391.49	686.62
3394.458	684.29
3397.424	676.29
3400.387	665.96
3403.348	653.29
3406.307	657.96
3409.263	647.96
3412.217	634.62
3415.168	632.96
3418.118	631.62
3421.065	616.96
3424.009	612.62
3426.951	604.62
3429.891	603.96
3432.829	580.62
3435.764	578.29
3438.697	564.96
3441.628	545.29
3444.557	534.29
3447.483	531.29
3450.407	504.62
3453.328	493.29
3456.247	479.62
3459.164	463.29
3462.079	450.96
3464.991	442.96
3467.902	423.29
3470.809	416.96
3473.715	405.96
3476.618	393.62
3479.519	384.96
3482.418	372.96
3485.315	360.29
3488.209	350.62
3491.101	343.62
3493.99	333.29
3496.878	322.29
3499.763	313.62
3502.646	299.96
3505.527	292.29
3508.405	282.29
3511.281	267.96
3514.155	255.62
3517.027	244.96
3519.897	233.29
3522.764	225.96
3525.629	213.62
3528.492	202.62
3531.352	190.62
3534.211	181.29
3537.067	169.29
3539.921	159.96
3542.773	146.96
3545.622	138.29
3548.469	130.62
3551.315	122.96
3554.157	112.96
3556.998	106.62
3559.837	103.29
3562.673	92.62
3565.507	85.62
3568.339	79.62
3571.169	76.29
3573.996	66.29
3576.822	63.62
3579.645	56.29
3582.466	50.96
3585.285	45.96
3588.101	38.62
3590.916	35.96
3593.728	28.29
3596.538	22.29
3599.346	16.62
3602.152	12.62
3604.956	9.62
3607.757	7.29
3610.556	0.29
3613.354	-2.71
3616.149	-9.71
3618.942	-9.71
3621.732	-18.04
3624.521	-20.04
3627.307	-22.04
3630.092	-25.71
3632.874	-29.04
3635.654	-27.38
3638.432	-34.71
3641.208	-34.38
3643.982	-42.04
3646.753	-43.38
3649.523	-44.71
3652.29	-45.38
3655.055	-50.38
3657.818	-52.71
3660.579	-55.71
3663.338	-56.71
3666.095	-62.04
3668.849	-61.38
3671.602	-66.71
3674.352	-65.71
3677.101	-68.38
3679.847	-70.71
3682.591	-70.38
3685.333	-74.04
3688.073	-75.04
3690.811	-76.38
3693.547	-77.71
3696.281	-78.71
3699.013	-79.38
3701.742	-81.38
3704.47	-84.04
3707.195	-84.04
3709.919	-83.04
3712.64	-85.04
3715.359	-87.71
3718.076	-87.71
3720.792	-88.71
3723.505	-93.04
3726.216	-93.38
3728.925	-94.38
3731.632	-95.04
3734.336	-97.04
3737.039	-96.04
3739.74	-97.04
3742.439	-95.04
3745.136	-99.38
3747.83	-99.04
3750.523	-98.04
3753.213	-97.38
3755.902	-99.71
3758.589	-98.38
3761.273	-99.38
3763.956	-101.04
3766.636	-100.71
3769.315	-99.38
3771.991	-101.04
3774.665	-102.71
3777.338	-102.38
3780.008	-99.38
3782.677	-102.04
3785.343	-102.38
3788.007	-102.38
3790.67	-104.71
3793.33	-102.38
3795.989	-104.71
3798.645	-104.04
3801.299	-103.71
3803.952	-104.04
3806.602	-105.38
3809.251	-105.38
3811.897	-106.04
3814.542	-108.71
3817.184	-108.04
3819.825	-106.71
3822.463	-107.71
3825.1	-109.38
3827.735	-111.71
3830.367	-108.71
3832.998	-108.38
3835.627	-110.38
3838.253	-111.04
3840.878	-108.04
3843.501	-110.38
3846.122	-110.71
3848.741	-110.71
3851.358	-109.38
3853.973	-111.04
3856.586	-108.04
3859.197	-108.38
3861.806	-107.38
3864.414	-109.04
3867.019	-110.04
3869.622	-108.71
3872.224	-105.04
3874.823	-100.71
3877.421	-100.04
3880.016	-96.04
3882.61	-89.71
3885.202	-88.04
3887.792	-91.38
3890.38	-98.38
3892.966	-102.04
3895.55	-107.38
3898.132	-109.04
3900.713	-107.71
3903.291	-109.38
3905.868	-111.04
3908.442	-109.71
3911.015	-109.04
3913.586	-113.04
3916.155	-112.38
3918.722	-110.38
3921.287	-111.71
3923.85	-111.04
3926.411	-111.38
3928.971	-110.71
3931.528	-110.71
3934.084	-110.04
3936.638	-109.71
3939.19	-109.38
3941.74	-111.38
3944.288	-110.38
3946.834	-108.71
3949.378	-108.38
3951.921	-110.38
3954.462	-109.38
3957	-107.71
3959.537	-110.38
3962.072	-108.38
3964.606	-107.38
3967.137	-109.71
3969.667	-107.71
3972.194	-110.04
3974.72	-111.04
3977.244	-108.71
3979.766	-108.38
3982.286	-110.38
3984.805	-109.04
3987.321	-109.04
3989.836	-111.71
3992.349	-110.04
3994.86	-109.04
3997.369	-109.71
3999.877	-111.71
4002.382	-112.38
4004.886	-110.71
4007.388	-110.71
4009.888	-109.04
4012.386	-110.71
4014.883	-110.71
4017.377	-111.04
4019.87	-110.71
4022.361	-111.04
4024.85	-109.71
4027.338	-110.71
4029.823	-111.38
4032.307	-108.71
4034.789	-109.71
4037.269	-109.38
4039.747	-111.04
4042.224	-110.04
4044.699	-108.71
4047.172	-108.38
4049.643	-109.71
4052.112	-110.04
4054.58	-106.38
4057.046	-111.38
4059.51	-108.71
4061.972	-110.38
4064.432	-109.04
4066.891	-110.71
4069.348	-108.04
4071.803	-109.38
4074.256	-110.04
4076.708	-112.04
4079.158	-108.38
4081.606	-108.71
4084.052	-110.04
4086.497	-109.71
4088.939	-110.71
4091.38	-110.04
4093.819	-110.04
4096.257	-113.71
4098.693	-112.04
4101.127	-113.71
4103.559	-113.04
4105.989	-68.71
4108.418	-64.38
4110.845	-63.71
4113.27	-60.04
4115.694	-52.04
4118.115	-42.04
4120.535	-112.04
4122.954	-109.38
4125.37	-109.38
4127.785	-108.38
4130.198	-110.04
4132.609	-110.04
4135.019	-112.71
4137.427	-112.71
4139.833	-112.04
4142.237	-111.71
