160.701	-33.46
166.742	1.21
172.777	95.87
178.805	391.21
184.826	1098.54
190.841	2304.88
196.849	3718.54
202.85	4647.21
208.845	4856.21
214.833	4702.88
220.815	4483.21
226.789	4321.87
232.758	4171.88
238.719	4018.21
244.674	3857.88
250.623	3665.54
256.565	3469.54
262.5	3285.21
268.429	3118.87
274.351	2965.54
280.267	2835.21
286.176	2722.87
292.079	2610.54
297.975	2510.21
303.865	2426.87
309.748	2355.87
315.625	2290.87
321.495	2257.87
327.359	2210.54
333.217	2186.21
339.068	2161.21
344.912	2158.21
350.751	2145.87
356.583	2138.87
362.408	2122.54
368.227	2132.87
374.04	2156.87
379.847	2170.54
385.647	2195.87
391.44	2195.88
397.228	2173.21
403.009	2185.87
408.784	2207.87
414.553	2277.21
420.315	2352.54
426.071	2349.54
431.821	2271.21
437.565	2209.87
443.302	2181.87
449.033	2148.87
454.758	2135.87
460.477	2115.54
466.189	2106.54
471.896	2096.21
477.596	2063.21
483.29	2050.21
488.978	2039.54
494.66	2009.21
500.335	1975.21
506.005	1934.21
511.668	1895.21
517.325	1868.21
522.977	1821.21
528.622	1791.21
534.261	1766.87
539.894	1741.88
545.521	1716.21
551.141	1704.21
556.756	1671.87
562.365	1669.54
567.968	1650.87
573.565	1633.54
579.155	1613.54
584.74	1593.21
590.319	1582.21
595.892	1560.54
601.459	1550.88
607.02	1525.21
612.575	1511.21
618.124	1489.21
623.667	1462.87
629.204	1458.21
634.735	1452.54
640.261	1443.87
645.781	1467.88
651.294	1465.21
656.802	1437.54
662.304	1399.21
667.8	1369.88
673.29	1362.21
678.775	1342.54
684.254	1331.54
689.726	1313.54
695.193	1293.87
700.655	1285.87
706.11	1266.88
711.56	1256.54
717.004	1241.88
722.442	1230.87
727.874	1211.87
733.301	1213.21
738.722	1195.21
744.137	1193.87
749.547	1191.21
754.951	1177.21
760.349	1172.21
765.741	1159.21
771.128	1140.54
776.509	1143.21
781.885	1136.54
787.254	1121.21
792.618	1109.54
797.977	1091.54
803.33	1073.21
808.677	1068.21
814.019	1043.21
819.355	1031.54
824.686	1015.54
830.011	997.54
835.33	984.54
840.644	978.54
845.952	965.87
851.255	943.54
856.552	941.21
861.844	928.21
867.13	903.21
872.41	894.54
877.686	883.21
882.955	866.54
888.219	843.21
893.478	819.88
898.731	800.54
903.979	783.87
909.221	766.54
914.458	756.21
919.69	743.21
924.916	734.54
930.136	727.21
935.351	713.21
940.561	711.54
945.766	707.21
950.965	694.87
956.158	685.21
961.347	671.88
966.529	658.87
971.707	645.54
976.879	626.87
982.046	616.54
987.208	613.21
992.364	607.54
997.515	611.54
1002.66	603.21
1007.801	613.54
1012.936	615.87
1018.066	613.21
1023.19	614.87
1028.309	615.54
1033.423	618.54
1038.532	611.21
1043.636	601.87
1048.734	596.87
1053.827	585.54
1058.915	574.21
1063.998	572.87
1069.075	571.21
1074.147	573.87
1079.214	575.21
1084.276	569.87
1089.333	574.87
1094.385	572.54
1099.431	572.54
1104.472	566.54
1109.509	563.54
1114.54	547.88
1119.565	538.87
1124.586	535.21
1129.602	533.54
1134.613	521.87
1139.618	521.88
1144.619	524.21
1149.614	520.88
1154.604	523.87
1159.589	522.54
1164.57	527.21
1169.545	525.21
1174.515	527.54
1179.48	517.54
1184.44	514.54
1189.395	513.88
1194.345	505.54
1199.29	504.21
1204.23	503.87
1209.165	509.88
1214.095	509.54
1219.021	511.87
1223.941	521.54
1228.856	516.21
1233.766	517.21
1238.672	517.54
1243.572	507.54
1248.467	505.21
1253.358	499.21
1258.244	492.21
1263.124	483.21
1268	469.88
1272.871	465.88
1277.737	457.21
1282.599	459.21
1287.455	450.54
1292.306	459.54
1297.153	456.21
1301.995	462.21
1306.832	457.87
1311.664	463.87
1316.491	457.54
1321.314	454.21
1326.132	450.21
1330.945	439.21
1335.753	427.21
1340.556	419.54
1345.354	411.54
1350.148	410.54
1354.937	405.21
1359.722	406.21
1364.501	398.21
1369.276	397.87
1374.046	403.87
1378.811	400.87
1383.572	402.87
1388.327	398.54
1393.079	388.21
1397.825	379.21
1402.567	374.54
1407.304	366.87
1412.036	366.87
1416.764	357.54
1421.487	359.88
1426.205	359.21
1430.919	361.87
1435.628	362.21
1440.333	372.87
1445.032	371.87
1449.727	382.21
1454.418	376.54
1459.104	376.54
1463.785	374.21
1468.462	366.88
1473.134	366.21
1477.802	366.21
1482.465	361.21
1487.123	367.87
1491.777	374.54
1496.426	376.87
1501.071	379.54
1505.711	393.54
1510.347	401.54
1514.978	408.88
1519.604	409.21
1524.226	415.87
1528.844	422.88
1533.457	417.21
1538.065	426.88
1542.669	425.54
1547.269	425.87
1551.864	436.54
1556.454	445.21
1561.041	457.88
1565.622	463.21
1570.199	486.87
1574.772	493.54
1579.34	521.87
1583.904	536.21
1588.464	556.21
1593.019	581.21
1597.569	595.88
1602.115	618.54
1606.657	638.87
1611.195	654.54
1615.728	679.21
1620.256	691.21
1624.78	713.54
1629.3	740.21
1633.816	763.21
1638.327	781.21
1642.834	788.87
1647.336	793.54
1651.834	789.87
1656.328	787.54
1660.817	764.54
1665.302	742.21
1669.783	713.21
1674.259	680.54
1678.732	645.21
1683.199	609.54
1687.663	571.88
1692.122	525.87
1696.577	496.21
1701.028	464.21
1705.474	434.87
1709.917	407.87
1714.355	387.54
1718.788	358.54
1723.218	335.87
1727.643	312.87
1732.064	291.21
1736.481	273.88
1740.893	249.21
1745.301	228.21
1749.705	212.21
1754.105	195.21
1758.501	185.88
1762.893	170.87
1767.28	161.87
1771.663	156.54
1776.042	147.54
1780.417	140.21
1784.787	139.54
1789.154	142.21
1793.516	135.21
1797.874	134.54
1802.228	126.87
1806.578	126.54
1810.924	119.88
1815.266	106.21
1819.603	106.54
1823.937	101.21
1828.266	97.54
1832.591	92.87
1836.913	95.21
1841.23	89.54
1845.543	87.54
1849.852	89.87
1854.156	88.21
1858.457	87.21
1862.754	86.87
1867.047	88.21
1871.335	88.21
1875.62	94.88
1879.9	92.54
1884.177	91.54
1888.449	89.54
1892.718	89.87
1896.982	90.54
1901.243	92.54
1905.499	92.21
1909.752	92.21
1914	94.88
1918.245	93.54
1922.485	98.88
1926.722	98.87
1930.954	105.87
1935.183	102.54
1939.408	104.87
1943.628	106.21
1947.845	103.54
1952.058	101.87
1956.267	104.21
1960.472	103.21
1964.673	99.54
1968.87	95.88
1973.063	93.88
1977.252	94.54
1981.438	93.54
1985.619	96.21
1989.797	90.88
1993.971	94.88
1998.14	95.21
2002.306	98.21
2006.469	100.87
2010.627	98.21
2014.781	106.87
2018.932	102.21
2023.078	108.54
2027.221	107.88
2031.36	100.87
2035.495	104.54
2039.627	106.87
2043.754	109.87
2047.878	107.87
2051.998	113.21
2056.114	108.54
2060.226	110.54
2064.334	114.21
2068.439	119.21
2072.54	116.21
2076.637	121.21
2080.73	121.54
2084.82	126.88
2088.906	125.21
2092.988	129.21
2097.066	127.54
2101.14	123.88
2105.211	123.54
2109.278	117.54
2113.342	118.87
2117.401	118.87
2121.457	115.21
2125.509	111.88
2129.558	108.54
2133.602	108.54
2137.643	105.54
2141.681	102.54
2145.714	102.54
2149.744	102.54
2153.77	98.87
2157.793	95.87
2161.812	88.21
2165.827	84.87
2169.838	88.54
2173.846	77.54
2177.851	75.21
2181.851	69.54
2185.848	66.88
2189.841	67.87
2193.831	59.21
2197.817	58.54
2201.799	56.54
2205.778	54.54
2209.753	50.54
2213.725	48.54
2217.693	45.87
2221.657	46.21
2225.618	44.21
2229.575	40.54
2233.529	36.88
2237.479	34.54
2241.425	28.21
2245.368	25.87
2249.307	20.87
2253.243	21.54
2257.175	14.54
2261.104	13.21
2265.029	9.21
2268.95	9.54
2272.868	3.88
2276.783	2.21
2280.694	1.54
2284.601	-2.79
2288.505	-4.79
2292.405	-5.13
2296.302	-8.79
2300.195	-11.13
2304.085	-12.46
2307.971	-11.79
2311.854	-19.13
2315.734	-22.13
2319.609	-21.79
2323.482	-21.79
2327.351	-27.12
2331.216	-23.79
2335.078	-23.79
2338.937	-30.13
2342.792	-29.79
2346.643	-31.46
2350.492	-31.46
2354.336	-33.46
2358.178	-35.13
2362.015	-34.12
2365.85	-36.46
2369.681	-35.79
2373.508	-35.13
2377.333	-38.79
2381.153	-35.13
2384.971	-38.13
2388.785	-41.46
2392.595	-40.13
2396.402	-41.46
2400.206	-41.46
2404.007	-42.13
2407.804	-46.46
2411.597	-43.13
2415.388	-44.13
2419.174	-45.79
2422.958	-44.13
2426.738	-48.12
2430.515	-46.46
2434.289	-49.46
2438.059	-48.12
2441.825	-50.13
2445.589	-49.46
2449.349	-53.12
2453.106	-48.46
2456.859	-51.13
2460.61	-52.46
2464.356	-53.46
2468.1	-52.79
2471.84	-53.46
2475.577	-54.79
2479.311	-52.13
2483.041	-51.13
2486.768	-55.46
2490.492	-57.13
2494.213	-54.79
2497.93	-54.79
2501.644	-54.46
2505.355	-58.13
2509.062	-54.79
2512.766	-55.12
2516.467	-58.12
2520.165	-56.13
2523.859	-59.46
2527.551	-58.13
2531.239	-58.79
2534.923	-57.46
2538.605	-59.13
2542.283	-57.79
2545.958	-59.13
2549.63	-58.79
2553.299	-59.79
2556.964	-59.46
2560.626	-60.79
2564.285	-59.79
2567.941	-61.12
2571.594	-62.12
2575.243	-62.12
2578.89	-64.79
2582.533	-64.46
2586.173	-61.79
2589.809	-66.46
2593.443	-64.46
2597.073	-64.46
2600.701	-62.13
2604.325	-66.79
2607.946	-63.79
2611.564	-63.12
2615.178	-63.46
2618.79	-64.79
2622.398	-69.12
2626.004	-63.79
2629.606	-63.13
2633.205	-66.13
2636.801	-68.13
2640.394	-66.13
2643.983	-65.13
2647.57	-68.46
2651.153	-68.46
2654.734	-68.46
2658.311	-64.46
2661.885	-69.46
2665.456	-67.79
2669.025	-67.13
2672.589	-68.13
2676.151	-67.13
2679.71	-67.13
2683.266	-68.79
2686.819	-67.13
2690.368	-67.13
2693.915	-67.46
2697.458	-66.13
2700.999	-66.12
2704.536	-63.79
2708.071	-65.13
2711.602	-63.79
2715.13	-66.13
2718.656	-64.13
2722.178	-62.46
2725.697	-61.13
2729.214	-60.13
2732.727	-59.13
2736.237	-57.13
2739.744	-55.13
2743.249	-53.46
2746.75	-57.46
2750.248	-51.46
2753.743	-53.79
2757.236	-50.13
2760.725	-49.12
2764.211	-50.13
2767.695	-49.79
2771.175	-46.13
2774.652	-47.79
2778.127	-46.79
2781.598	-47.79
2785.067	-46.79
2788.532	-43.79
2791.995	-43.46
2795.455	-45.12
2798.911	-42.12
2802.365	-40.79
2805.816	-37.46
2809.264	-34.79
2812.709	-35.79
2816.151	-32.79
2819.59	-33.79
2823.026	-29.79
2826.46	-28.79
2829.89	-26.79
2833.318	-22.79
2836.742	-19.79
2840.164	-18.46
2843.583	-17.12
2846.999	-14.79
2850.412	-10.79
2853.822	-7.79
2857.229	-5.79
2860.634	-0.12
2864.035	2.54
2867.434	7.54
2870.83	5.88
2874.223	15.21
2877.613	14.87
2881	19.54
2884.385	19.21
2887.766	24.21
2891.145	28.21
2894.521	30.21
2897.894	32.87
2901.264	38.21
2904.631	36.54
2907.996	43.87
2911.358	45.21
2914.717	47.87
2918.073	52.54
2921.426	56.87
2924.777	64.87
2928.124	66.87
2931.469	67.87
2934.811	79.54
2938.15	85.54
2941.487	90.21
2944.821	90.54
2948.152	99.88
2951.48	104.54
2954.805	109.54
2958.128	115.54
2961.447	121.88
2964.765	130.87
2968.079	133.21
2971.39	143.21
2974.699	149.54
2978.005	159.21
2981.308	172.88
2984.609	178.88
2987.907	190.54
2991.202	202.54
2994.494	214.88
2997.784	221.21
3001.07	237.87
3004.355	245.54
3007.636	253.87
3010.915	266.87
3014.191	266.87
3017.464	278.54
3020.734	289.54
3024.002	298.21
3027.267	307.21
3030.53	314.21
3033.789	323.21
3037.046	336.88
3040.301	351.87
3043.552	364.88
3046.801	380.21
3050.048	389.54
3053.291	405.54
3056.532	424.21
3059.771	441.21
3063.006	452.54
3066.239	481.21
3069.469	500.21
3072.697	516.87
3075.922	534.21
3079.144	557.21
3082.364	571.87
3085.581	589.87
3088.795	607.88
3092.007	627.88
3095.216	646.54
3098.423	664.54
3101.627	692.21
3104.828	713.87
3108.026	724.87
3111.222	756.88
3114.416	768.88
3117.607	785.21
3120.795	816.54
3123.98	838.87
3127.163	854.21
3130.344	882.21
3133.521	898.87
3136.696	921.21
3139.869	948.21
3143.039	973.87
3146.206	980.21
3149.371	993.54
3152.533	1007.87
3155.693	1014.54
3158.85	1027.54
3162.005	1036.54
3165.157	1043.87
3168.306	1041.54
3171.453	1051.87
3174.597	1047.54
3177.739	1059.54
3180.878	1070.54
3184.014	1072.21
3187.149	1078.87
3190.28	1087.54
3193.409	1096.21
3196.536	1093.21
3199.659	1101.87
3202.781	1113.87
3205.9	1113.88
3209.016	1109.21
3212.13	1111.54
3215.241	1117.21
3218.35	1100.54
3221.456	1097.54
3224.56	1086.54
3227.661	1079.54
3230.76	1077.21
3233.856	1070.87
3236.95	1059.54
3240.041	1051.54
3243.13	1044.21
3246.216	1041.54
3249.3	1032.21
3252.382	1040.54
3255.46	1039.21
3258.537	1029.88
3261.611	1024.54
3264.682	1023.87
3267.751	1019.21
3270.818	1024.54
3273.882	1017.87
3276.943	1004.88
3280.002	1000.54
3283.059	989.88
3286.113	970.21
3289.165	962.21
3292.214	949.88
3295.261	932.54
3298.306	911.21
3301.348	901.54
3304.387	892.21
3307.425	878.54
3310.459	873.54
3313.492	860.87
3316.521	851.88
3319.549	839.54
3322.574	833.21
3325.597	823.87
3328.617	823.87
3331.635	810.54
3334.65	804.21
3337.663	813.21
3340.674	804.54
3343.682	805.21
3346.688	803.88
3349.691	800.21
3352.692	793.21
3355.691	786.87
3358.687	785.54
3361.681	781.21
3364.673	773.21
3367.662	759.21
3370.649	745.54
3373.633	740.21
3376.615	735.54
3379.595	721.88
3382.572	717.21
3385.547	706.21
3388.52	696.88
3391.49	678.21
3394.458	679.54
3397.424	667.54
3400.387	659.88
3403.348	659.21
3406.307	652.21
3409.263	647.87
3412.217	644.54
3415.168	632.88
3418.118	631.87
3421.065	622.21
3424.009	613.21
3426.951	607.54
3429.891	601.87
3432.829	588.54
3435.764	579.21
3438.697	565.54
3441.628	546.21
3444.557	537.54
3447.483	518.87
3450.407	507.21
3453.328	496.21
3456.247	479.87
3459.164	463.54
3462.079	451.54
3464.991	438.21
3467.902	424.54
3470.809	408.21
3473.715	398.21
3476.618	385.88
3479.519	380.54
3482.418	369.88
3485.315	360.54
3488.209	348.21
3491.101	339.88
3493.99	327.87
3496.878	321.87
3499.763	307.21
3502.646	302.88
3505.527	290.54
3508.405	281.87
3511.281	271.54
3514.155	257.88
3517.027	238.54
3519.897	229.54
3522.764	223.87
3525.629	211.87
3528.492	200.54
3531.352	187.54
3534.211	176.87
3537.067	167.87
3539.921	153.88
3542.773	146.88
3545.622	139.87
3548.469	129.21
3551.315	120.87
3554.157	110.21
3556.998	101.21
3559.837	99.54
3562.673	91.21
3565.507	80.88
3568.339	78.88
3571.169	73.54
3573.996	66.88
3576.822	59.87
3579.645	55.87
3582.466	50.87
3585.285	46.21
3588.101	39.87
3590.916	33.21
3593.728	27.87
3596.538	18.21
3599.346	20.54
3602.152	11.21
3604.956	7.87
3607.757	5.21
3610.556	-3.46
3613.354	-2.79
3616.149	-7.13
3618.942	-11.79
3621.732	-15.79
3624.521	-18.13
3627.307	-21.13
3630.092	-26.46
3632.874	-29.13
3635.654	-30.46
3638.432	-29.79
3641.208	-36.46
3643.982	-36.79
3646.753	-41.79
3649.523	-44.13
3652.29	-45.46
3655.055	-49.46
3657.818	-53.46
3660.579	-57.79
3663.338	-56.13
3666.095	-59.79
3668.849	-65.13
3671.602	-68.79
3674.352	-70.79
3677.101	-69.46
3679.847	-72.13
3682.591	-72.46
3685.333	-77.46
3688.073	-76.46
3690.811	-77.46
3693.547	-78.13
3696.281	-80.12
3699.013	-81.79
3701.742	-83.13
3704.47	-83.79
3707.195	-84.79
3709.919	-84.46
3712.64	-85.13
3715.359	-88.13
3718.076	-86.12
3720.792	-86.13
3723.505	-90.79
3726.216	-90.79
3728.925	-91.46
3731.632	-94.79
3734.336	-93.46
3737.039	-96.13
3739.74	-96.12
3742.439	-93.79
3745.136	-97.13
3747.83	-98.13
3750.523	-97.46
3753.213	-98.46
3755.902	-99.46
3758.589	-99.46
3761.273	-99.46
3763.956	-101.46
3766.636	-102.46
3769.315	-102.12
3771.991	-101.46
3774.665	-102.13
3777.338	-103.13
3780.008	-102.46
3782.677	-102.13
3785.343	-101.79
3788.007	-103.46
3790.67	-103.46
3793.33	-102.79
3795.989	-105.13
3798.645	-104.79
3801.299	-104.79
3803.952	-104.79
3806.602	-106.13
3809.251	-103.79
3811.897	-105.13
3814.542	-106.79
3817.184	-106.79
3819.825	-106.12
3822.463	-106.13
3825.1	-108.12
3827.735	-108.79
3830.367	-107.13
3832.998	-108.13
3835.627	-108.79
3838.253	-109.13
3840.878	-110.12
3843.501	-109.46
3846.122	-109.46
3848.741	-107.79
3851.358	-108.79
3853.973	-112.46
3856.586	-108.12
3859.197	-109.46
3861.806	-109.13
3864.414	-110.12
3867.019	-109.79
3869.622	-107.46
3872.224	-107.46
3874.823	-104.13
3877.421	-99.79
3880.016	-99.46
3882.61	-91.13
3885.202	-91.12
3887.792	-90.79
3890.38	-99.13
3892.966	-104.13
3895.55	-107.13
3898.132	-108.13
3900.713	-107.46
3903.291	-109.12
3905.868	-111.13
3908.442	-108.46
3911.015	-110.79
3913.586	-111.79
3916.155	-111.12
3918.722	-111.13
3921.287	-109.46
3923.85	-112.12
3926.411	-110.12
3928.971	-109.12
3931.528	-110.46
3934.084	-109.79
3936.638	-110.12
3939.19	-110.13
3941.74	-109.79
3944.288	-112.79
3946.834	-111.13
3949.378	-107.79
3951.921	-109.46
3954.462	-109.79
3957	-108.46
3959.537	-108.79
3962.072	-109.79
3964.606	-108.12
3967.137	-109.46
3969.667	-111.46
3972.194	-110.46
3974.72	-109.13
3977.244	-109.12
3979.766	-107.46
3982.286	-107.79
3984.805	-109.12
3987.321	-109.12
3989.836	-109.79
3992.349	-108.79
3994.86	-108.13
3997.369	-107.46
3999.877	-108.46
4002.382	-109.46
4004.886	-109.46
4007.388	-111.46
4009.888	-108.79
4012.386	-110.79
4014.883	-110.79
4017.377	-113.12
4019.87	-110.79
4022.361	-109.79
4024.85	-109.46
4027.338	-110.12
4029.823	-112.12
4032.307	-110.46
4034.789	-111.46
4037.269	-109.79
4039.747	-109.12
4042.224	-111.46
4044.699	-109.79
4047.172	-110.46
4049.643	-109.79
4052.112	-110.46
4054.58	-109.13
4057.046	-111.13
4059.51	-109.46
4061.972	-109.79
4064.432	-109.79
4066.891	-108.46
4069.348	-108.79
4071.803	-109.12
4074.256	-109.46
4076.708	-109.46
4079.158	-109.12
4081.606	-108.46
4084.052	-109.46
4086.497	-108.46
4088.939	-109.79
4091.38	-111.13
4093.819	-110.12
4096.257	-113.13
4098.693	-113.13
4101.127	-114.79
4103.559	-113.46
4105.989	-68.79
4108.418	-64.13
4110.845	-63.46
4113.27	-60.13
4115.694	-54.46
4118.115	-46.46
4120.535	-110.79
4122.954	-110.13
4125.37	-109.46
4127.785	-108.46
4130.198	-111.46
4132.609	-110.13
4135.019	-113.12
4137.427	-113.79
4139.833	-114.13
4142.237	-113.79
