160.701	-6.62
166.742	1.04
172.777	30.37
178.805	103.71
184.826	284.71
190.841	568.04
196.849	893.38
202.85	1103.71
208.845	1153.38
214.833	1117.37
220.815	1072.71
226.789	1060.38
232.758	1032.38
238.719	998.71
244.674	982.04
250.623	942.04
256.565	907.37
262.5	866.71
268.429	836.37
274.351	811.71
280.267	788.37
286.176	767.04
292.079	747.71
297.975	733.71
303.865	723.38
309.748	707.37
315.625	695.04
321.495	690.38
327.359	692.37
333.217	677.37
339.068	683.71
344.912	683.04
350.751	681.04
356.583	690.38
362.408	681.38
368.227	692.71
374.04	712.71
379.847	719.04
385.647	723.37
391.44	724.38
397.228	715.04
403.009	717.38
408.784	744.04
414.553	790.71
420.315	852.04
426.071	850.04
431.821	788.04
437.565	735.37
443.302	722.38
449.033	709.04
454.758	701.04
460.477	690.04
466.189	687.37
471.896	679.04
477.596	678.04
483.29	672.04
488.978	662.38
494.66	659.04
500.335	643.04
506.005	623.71
511.668	598.04
517.325	581.71
522.977	560.38
528.622	542.71
534.261	531.37
539.894	527.04
545.521	511.38
551.141	509.04
556.756	507.37
562.365	502.04
567.968	497.71
573.565	492.71
579.155	491.71
584.74	488.37
590.319	485.38
595.892	477.38
601.459	480.38
607.02	471.04
612.575	460.38
618.124	458.71
623.667	456.04
629.204	454.04
634.735	454.37
640.261	458.04
645.781	478.71
651.294	483.38
656.802	466.38
662.304	444.71
667.8	429.38
673.29	425.38
678.775	420.71
684.254	421.71
689.726	413.37
695.193	407.37
700.655	403.04
706.11	400.38
711.56	398.04
717.004	394.38
722.442	390.37
727.874	391.71
733.301	389.71
738.722	392.04
744.137	386.71
749.547	397.04
754.951	394.04
760.349	391.71
765.741	383.38
771.128	379.38
776.509	382.71
781.885	381.71
787.254	384.04
792.618	383.04
797.977	379.38
803.33	371.04
808.677	369.71
814.019	358.04
819.355	362.04
824.686	353.04
830.011	345.71
835.33	338.71
840.644	342.04
845.952	336.38
851.255	329.71
856.552	328.04
861.844	320.38
867.13	320.38
872.41	319.04
877.686	317.71
882.955	311.04
888.219	305.38
893.478	298.04
898.731	287.71
903.979	285.04
909.221	276.71
914.458	275.38
919.69	267.04
924.916	271.38
930.136	270.37
935.351	267.71
940.561	269.04
945.766	263.38
950.965	261.04
956.158	260.04
961.347	258.04
966.529	254.71
971.707	246.71
976.879	244.38
982.046	241.71
987.208	240.38
992.364	239.38
997.515	243.04
1002.66	244.04
1007.801	243.04
1012.936	247.37
1018.066	247.71
1023.19	247.37
1028.309	244.71
1033.423	245.38
1038.532	247.04
1043.636	241.38
1048.734	244.04
1053.827	233.04
1058.915	236.38
1063.998	233.04
1069.075	230.71
1074.147	234.37
1079.214	237.37
1084.276	233.37
1089.333	232.04
1094.385	232.37
1099.431	231.04
1104.472	225.38
1109.509	226.71
1114.54	226.38
1119.565	222.04
1124.586	219.04
1129.602	210.71
1134.613	213.38
1139.618	210.71
1144.619	213.04
1149.614	210.38
1154.604	214.04
1159.589	208.71
1164.57	216.71
1169.545	212.38
1174.515	216.37
1179.48	211.04
1184.44	209.04
1189.395	205.04
1194.345	204.71
1199.29	206.38
1204.23	207.71
1209.165	207.38
1214.095	206.71
1219.021	208.71
1223.941	209.04
1228.856	208.37
1233.766	210.04
1238.672	207.38
1243.572	207.37
1248.467	206.71
1253.358	199.38
1258.244	196.04
1263.124	193.37
1268	187.38
1272.871	189.71
1277.737	181.38
1282.599	185.71
1287.455	183.37
1292.306	184.38
1297.153	189.71
1301.995	187.38
1306.832	185.71
1311.664	189.04
1316.491	187.38
1321.314	182.38
1326.132	182.71
1330.945	180.04
1335.753	177.71
1340.556	169.71
1345.354	165.71
1350.148	166.71
1354.937	168.04
1359.722	163.04
1364.501	163.71
1369.276	161.04
1374.046	162.71
1378.811	161.04
1383.572	163.04
1388.327	162.71
1393.079	159.38
1397.825	156.38
1402.567	153.71
1407.304	152.38
1412.036	149.38
1416.764	148.37
1421.487	150.04
1426.205	150.71
1430.919	146.71
1435.628	150.71
1440.333	150.04
1445.032	149.38
1449.727	153.71
1454.418	153.71
1459.104	150.71
1463.785	152.38
1468.462	151.04
1473.134	149.71
1477.802	148.71
1482.465	147.04
1487.123	146.71
1491.777	146.04
1496.426	147.71
1501.071	152.37
1505.711	153.37
1510.347	155.38
1514.978	160.04
1519.604	161.38
1524.226	163.71
1528.844	160.38
1533.457	159.37
1538.065	160.38
1542.669	159.04
1547.269	159.04
1551.864	159.04
1556.454	160.71
1561.041	162.04
1565.622	165.38
1570.199	168.04
1574.772	176.38
1579.34	177.71
1583.904	185.04
1588.464	186.71
1593.019	191.38
1597.569	198.38
1602.115	199.71
1606.657	202.71
1611.195	203.71
1615.728	210.04
1620.256	210.37
1624.78	217.04
1629.3	219.38
1633.816	224.71
1638.327	233.38
1642.834	235.04
1647.336	236.04
1651.834	233.04
1656.328	233.04
1660.817	230.71
1665.302	222.04
1669.783	217.71
1674.259	208.71
1678.732	203.38
1683.199	193.04
1687.663	181.38
1692.122	173.37
1696.577	160.04
1701.028	160.71
1705.474	148.04
1709.917	142.04
1714.355	137.37
1718.788	134.71
1723.218	126.04
1727.643	119.04
1732.064	113.71
1736.481	107.38
1740.893	103.38
1745.301	94.37
1749.705	94.71
1754.105	88.04
1758.501	83.38
1762.893	82.37
1767.28	77.71
1771.663	79.04
1776.042	76.38
1780.417	73.71
1784.787	75.04
1789.154	72.04
1793.516	72.04
1797.874	69.71
1802.228	70.38
1806.578	69.38
1810.924	70.38
1815.266	62.04
1819.603	65.37
1823.937	62.71
1828.266	59.71
1832.591	60.38
1836.913	61.38
1841.23	58.71
1845.543	57.71
1849.852	60.37
1854.156	58.38
1858.457	59.71
1862.754	55.71
1867.047	54.37
1871.335	58.37
1875.62	55.71
1879.9	56.71
1884.177	55.37
1888.449	57.38
1892.718	54.04
1896.982	55.38
1901.243	55.71
1905.499	55.71
1909.752	54.04
1914	58.04
1918.245	55.71
1922.485	57.71
1926.722	57.37
1930.954	60.37
1935.183	60.04
1939.408	58.04
1943.628	60.38
1947.845	58.71
1952.058	59.04
1956.267	57.04
1960.472	54.04
1964.673	54.71
1968.87	56.71
1973.063	52.71
1977.252	53.04
1981.438	50.71
1985.619	52.04
1989.797	50.38
1993.971	50.04
1998.14	53.04
2002.306	51.04
2006.469	53.04
2010.627	53.71
2014.781	51.71
2018.932	50.38
2023.078	49.04
2027.221	53.38
2031.36	50.38
2035.495	49.71
2039.627	48.04
2043.754	53.04
2047.878	49.38
2051.998	52.04
2056.114	50.04
2060.226	53.37
2064.334	53.38
2068.439	52.71
2072.54	48.37
2076.637	52.37
2080.73	52.71
2084.82	58.71
2088.906	55.38
2092.988	56.04
2097.066	53.04
2101.14	53.71
2105.211	53.04
2109.278	51.04
2113.342	50.71
2117.401	52.71
2121.457	50.04
2125.509	49.38
2129.558	51.04
2133.602	49.37
2137.643	46.71
2141.681	47.71
2145.714	45.38
2149.744	46.37
2153.77	43.71
2157.793	42.37
2161.812	39.71
2165.827	39.37
2169.838	41.37
2173.846	37.71
2177.851	35.04
2181.851	34.04
2185.848	34.04
2189.841	33.38
2193.831	30.71
2197.817	30.04
2201.799	32.38
2205.778	31.38
2209.753	29.38
2213.725	29.37
2217.693	30.38
2221.657	30.71
2225.618	29.04
2229.575	24.37
2233.529	23.38
2237.479	22.38
2241.425	24.71
2245.368	21.37
2249.307	21.04
2253.243	21.71
2257.175	17.38
2261.104	20.04
2265.029	16.38
2268.95	15.71
2272.868	15.71
2276.783	13.04
2280.694	17.71
2284.601	14.04
2288.505	11.71
2292.405	10.38
2296.302	9.38
2300.195	9.37
2304.085	8.37
2307.971	7.04
2311.854	6.38
2315.734	6.04
2319.609	5.71
2323.482	4.71
2327.351	3.71
2331.216	6.04
2335.078	3.71
2338.937	4.71
2342.792	2.37
2346.643	2.71
2350.492	2.71
2354.336	1.04
2358.178	2.71
2362.015	3.04
2365.85	2.04
2369.681	0.71
2373.508	2.71
2377.333	1.04
2381.153	3.38
2384.971	2.71
2388.785	-1.96
2392.595	0.37
2396.402	1.04
2400.206	-1.29
2404.007	-3.63
2407.804	-1.29
2411.597	0.37
2415.388	0.37
2419.174	1.38
2422.958	-1.96
2426.738	-1.29
2430.515	-0.29
2434.289	-3.62
2438.059	-5.29
2441.825	-5.29
2445.589	-2.96
2449.349	-3.96
2453.106	-0.96
2456.859	-3.96
2460.61	-5.29
2464.356	-3.96
2468.1	-4.29
2471.84	-5.62
2475.577	-2.96
2479.311	-2.96
2483.041	-2.96
2486.768	-3.96
2490.492	-3.63
2494.213	-4.63
2497.93	-5.96
2501.644	-5.29
2505.355	-5.96
2509.062	-4.62
2512.766	-7.29
2516.467	-6.62
2520.165	-4.96
2523.859	-9.62
2527.551	-6.29
2531.239	-6.29
2534.923	-7.96
2538.605	-7.29
2542.283	-7.96
2545.958	-4.63
2549.63	-7.62
2553.299	-7.29
2556.964	-6.29
2560.626	-6.62
2564.285	-6.96
2567.941	-8.62
2571.594	-8.96
2575.243	-7.96
2578.89	-11.29
2582.533	-11.62
2586.173	-9.96
2589.809	-14.62
2593.443	-11.29
2597.073	-8.96
2600.701	-11.29
2604.325	-12.29
2607.946	-10.29
2611.564	-12.62
2615.178	-11.62
2618.79	-12.29
2622.398	-12.29
2626.004	-8.96
2629.606	-9.63
2633.205	-10.29
2636.801	-11.96
2640.394	-11.62
2643.983	-10.63
2647.57	-14.29
2651.153	-13.29
2654.734	-13.96
2658.311	-12.63
2661.885	-14.96
2665.456	-12.96
2669.025	-12.29
2672.589	-12.29
2676.151	-10.96
2679.71	-11.96
2683.266	-10.29
2686.819	-9.63
2690.368	-9.96
2693.915	-12.96
2697.458	-12.63
2700.999	-12.29
2704.536	-10.29
2708.071	-11.62
2711.602	-14.29
2715.13	-12.96
2718.656	-12.29
2722.178	-12.96
2725.697	-12.29
2729.214	-11.62
2732.727	-10.96
2736.237	-8.29
2739.744	-7.96
2743.249	-8.96
2746.75	-11.29
2750.248	-7.96
2753.743	-8.96
2757.236	-6.96
2760.725	-8.96
2764.211	-9.29
2767.695	-9.29
2771.175	-8.96
2774.652	-9.63
2778.127	-9.29
2781.598	-9.96
2785.067	-7.96
2788.532	-6.29
2791.995	-6.96
2795.455	-8.96
2798.911	-7.96
2802.365	-6.62
2805.816	-4.63
2809.264	-7.29
2812.709	-5.29
2816.151	-3.62
2819.59	-4.29
2823.026	-5.96
2826.46	-4.29
2829.89	-3.62
2833.318	-2.96
2836.742	-2.62
2840.164	-1.96
2843.583	-1.29
2846.999	-1.29
2850.412	0.71
2853.822	2.38
2857.229	2.04
2860.634	4.38
2864.035	3.71
2867.434	6.71
2870.83	5.04
2874.223	9.38
2877.613	7.71
2881	10.37
2884.385	7.71
2887.766	11.37
2891.145	9.71
2894.521	12.38
2897.894	12.04
2901.264	11.38
2904.631	11.04
2907.996	15.38
2911.358	13.04
2914.717	18.04
2918.073	15.38
2921.426	18.38
2924.777	19.38
2928.124	23.71
2931.469	22.04
2934.811	26.04
2938.15	27.71
2941.487	26.38
2944.821	26.71
2948.152	28.38
2951.48	29.04
2954.805	31.38
2958.128	28.71
2961.447	34.38
2964.765	34.04
2968.079	34.71
2971.39	37.38
2974.699	40.04
2978.005	41.04
2981.308	44.71
2984.609	45.71
2987.907	53.04
2991.202	53.04
2994.494	56.04
2997.784	58.04
3001.07	63.04
3004.355	62.71
3007.636	68.04
3010.915	68.04
3014.191	71.04
3017.464	70.71
3020.734	75.71
3024.002	75.71
3027.267	76.71
3030.53	81.37
3033.789	80.37
3037.046	86.71
3040.301	90.04
3043.552	92.71
3046.801	96.04
3050.048	101.71
3053.291	105.04
3056.532	108.04
3059.771	114.04
3063.006	118.04
3066.239	124.38
3069.469	130.37
3072.697	135.71
3075.922	139.38
3079.144	144.37
3082.364	148.04
3085.581	149.71
3088.795	157.71
3092.007	162.38
3095.216	163.04
3098.423	170.71
3101.627	178.38
3104.828	184.04
3108.026	186.71
3111.222	193.71
3114.416	198.71
3117.607	203.71
3120.795	212.71
3123.98	217.71
3127.163	223.71
3130.344	231.38
3133.521	232.04
3136.696	240.04
3139.869	241.04
3143.039	250.37
3146.206	256.71
3149.371	262.38
3152.533	262.04
3155.693	260.04
3158.85	263.04
3162.005	268.71
3165.157	269.38
3168.306	273.04
3171.453	273.71
3174.597	270.71
3177.739	272.71
3180.878	278.04
3184.014	277.38
3187.149	277.37
3190.28	282.37
3193.409	280.71
3196.536	289.37
3199.659	286.71
3202.781	290.04
3205.9	290.04
3209.016	287.04
3212.13	290.04
3215.241	284.04
3218.35	285.04
3221.456	285.04
3224.56	278.38
3227.661	279.04
3230.76	279.37
3233.856	277.04
3236.95	271.71
3240.041	271.37
3243.13	270.71
3246.216	268.38
3249.3	266.38
3252.382	271.38
3255.46	267.37
3258.537	268.71
3261.611	266.04
3264.682	264.04
3267.751	262.71
3270.818	263.38
3273.882	261.37
3276.943	259.71
3280.002	257.71
3283.059	257.04
3286.113	248.37
3289.165	244.37
3292.214	247.71
3295.261	245.04
3298.306	242.38
3301.348	230.04
3304.387	235.38
3307.425	225.71
3310.459	224.71
3313.492	221.71
3316.521	217.04
3319.549	218.71
3322.574	214.71
3325.597	214.71
3328.617	212.04
3331.635	211.71
3334.65	211.71
3337.663	210.04
3340.674	208.38
3343.682	210.71
3346.688	207.38
3349.691	207.71
3352.692	205.38
3355.691	204.71
3358.687	204.71
3361.681	203.04
3364.673	199.37
3367.662	198.71
3370.649	198.37
3373.633	192.04
3376.615	190.37
3379.595	187.71
3382.572	189.71
3385.547	182.37
3388.52	182.38
3391.49	178.38
3394.458	177.04
3397.424	175.04
3400.387	173.71
3403.348	172.04
3406.307	173.04
3409.263	167.04
3412.217	166.71
3415.168	167.38
3418.118	166.37
3421.065	161.04
3424.009	161.38
3426.951	157.71
3429.891	155.04
3432.829	153.37
3435.764	151.37
3438.697	151.04
3441.628	141.38
3444.557	136.04
3447.483	138.37
3450.407	132.71
3453.328	126.71
3456.247	125.71
3459.164	121.71
3462.079	121.38
3464.991	114.38
3467.902	110.71
3470.809	110.71
3473.715	103.38
3476.618	103.71
3479.519	101.04
3482.418	93.71
3485.315	93.04
3488.209	90.37
3491.101	89.04
3493.99	86.04
3496.878	81.71
3499.763	80.04
3502.646	77.71
3505.527	75.04
3508.405	74.37
3511.281	70.71
3514.155	65.71
3517.027	61.71
3519.897	59.71
3522.764	59.04
3525.629	54.38
3528.492	50.38
3531.352	48.04
3534.211	47.71
3537.067	44.04
3539.921	40.04
3542.773	35.71
3545.622	35.38
3548.469	32.04
3551.315	29.37
3554.157	27.38
3556.998	27.04
3559.837	24.38
3562.673	25.04
3565.507	20.38
3568.339	21.04
3571.169	19.37
3573.996	15.71
3576.822	17.38
3579.645	17.04
3582.466	13.04
3585.285	10.71
3588.101	7.71
3590.916	11.38
3593.728	5.04
3596.538	3.37
3599.346	2.38
3602.152	-0.29
3604.956	0.04
3607.757	-0.62
3610.556	-2.29
3613.354	-3.29
3616.149	-0.96
3618.942	-6.29
3621.732	-6.62
3624.521	-6.62
3627.307	-7.62
3630.092	-10.29
3632.874	-9.63
3635.654	-6.96
3638.432	-9.62
3641.208	-10.96
3643.982	-9.62
3646.753	-16.62
3649.523	-14.29
3652.29	-13.63
3655.055	-14.96
3657.818	-18.63
3660.579	-17.96
3663.338	-18.96
3666.095	-17.96
3668.849	-18.29
3671.602	-21.29
3674.352	-21.29
3677.101	-19.29
3679.847	-19.96
3682.591	-19.62
3685.333	-22.29
3688.073	-21.62
3690.811	-20.62
3693.547	-21.96
3696.281	-22.62
3699.013	-23.96
3701.742	-22.63
3704.47	-22.96
3707.195	-24.29
3709.919	-22.62
3712.64	-21.96
3715.359	-23.63
3718.076	-24.96
3720.792	-23.62
3723.505	-27.62
3726.216	-26.29
3728.925	-26.96
3731.632	-27.63
3734.336	-26.62
3737.039	-27.29
3739.74	-28.29
3742.439	-27.29
3745.136	-27.29
3747.83	-26.96
3750.523	-27.96
3753.213	-26.63
3755.902	-24.96
3758.589	-26.96
3761.273	-25.62
3763.956	-30.96
3766.636	-28.29
3769.315	-27.29
3771.991	-28.62
3774.665	-30.29
3777.338	-30.29
3780.008	-28.96
3782.677	-30.29
3785.343	-27.96
3788.007	-29.62
3790.67	-31.29
3793.33	-27.62
3795.989	-28.96
3798.645	-27.63
3801.299	-27.96
3803.952	-26.96
3806.602	-29.29
3809.251	-28.62
3811.897	-30.29
3814.542	-33.29
3817.184	-29.96
3819.825	-29.96
3822.463	-30.62
3825.1	-32.29
3827.735	-31.96
3830.367	-30.96
3832.998	-29.96
3835.627	-32.29
3838.253	-30.29
3840.878	-31.96
3843.501	-30.62
3846.122	-31.29
3848.741	-30.29
3851.358	-30.96
3853.973	-33.29
3856.586	-29.96
3859.197	-28.96
3861.806	-29.96
3864.414	-30.29
3867.019	-33.63
3869.622	-32.29
3872.224	-29.96
3874.823	-30.29
3877.421	-29.29
3880.016	-26.29
3882.61	-20.96
3885.202	-19.62
3887.792	-21.96
3890.38	-24.29
3892.966	-27.29
3895.55	-29.29
3898.132	-29.96
3900.713	-28.62
3903.291	-29.96
3905.868	-29.29
3908.442	-29.62
3911.015	-31.63
3913.586	-33.29
3916.155	-32.96
3918.722	-30.96
3921.287	-33.29
3923.85	-33.62
3926.411	-32.29
3928.971	-31.62
3931.528	-33.29
3934.084	-31.63
3936.638	-30.29
3939.19	-29.96
3941.74	-29.29
3944.288	-31.29
3946.834	-28.62
3949.378	-28.29
3951.921	-31.96
3954.462	-30.96
3957	-29.29
3959.537	-31.29
3962.072	-33.96
3964.606	-31.96
3967.137	-32.29
3969.667	-32.29
3972.194	-31.62
3974.72	-32.96
3977.244	-29.96
3979.766	-29.96
3982.286	-30.62
3984.805	-29.29
3987.321	-31.96
3989.836	-28.96
3992.349	-30.96
3994.86	-29.96
3997.369	-28.96
3999.877	-30.96
4002.382	-32.62
4004.886	-32.29
4007.388	-32.29
4009.888	-32.96
4012.386	-32.96
4014.883	-33.62
4017.377	-34.62
4019.87	-32.96
4022.361	-30.96
4024.85	-30.63
4027.338	-32.62
4029.823	-32.62
4032.307	-31.96
4034.789	-31.29
4037.269	-30.29
4039.747	-31.96
4042.224	-32.96
4044.699	-30.29
4047.172	-31.29
4049.643	-32.62
4052.112	-32.63
4054.58	-31.96
4057.046	-34.63
4059.51	-32.29
4061.972	-32.29
4064.432	-31.62
4066.891	-30.62
4069.348	-30.63
4071.803	-29.96
4074.256	-30.29
4076.708	-29.63
4079.158	-26.96
4081.606	-26.62
4084.052	-29.29
4086.497	-27.62
4088.939	-29.29
4091.38	-31.62
4093.819	-29.62
4096.257	-32.29
4098.693	-30.29
4101.127	-30.96
4103.559	-31.96
4105.989	-15.62
4108.418	-15.96
4110.845	-13.62
4113.27	-12.63
4115.694	-11.29
4118.115	-9.63
4120.535	-33.29
4122.954	-33.29
4125.37	-30.96
4127.785	-29.96
4130.198	-33.29
4132.609	-29.96
4135.019	-33.62
4137.427	-32.96
4139.833	-30.62
4142.237	-31.29
