160.701	-30.58
166.742	0.75
172.777	94.42
178.805	379.75
184.826	1073.08
190.841	2235.75
196.849	3554.75
202.85	4393.08
208.845	4580.75
214.833	4402.75
220.815	4187.75
226.789	4053.08
232.758	3917.42
238.719	3770.08
244.674	3607.42
250.623	3417.08
256.565	3240.75
262.5	3071.75
268.429	2920.42
274.351	2759.75
280.267	2643.75
286.176	2533.42
292.079	2432.75
297.975	2340.08
303.865	2270.08
309.748	2193.75
315.625	2152.08
321.495	2096.08
327.359	2074.75
333.217	2067.75
339.068	2019.42
344.912	2016.75
350.751	2006.42
356.583	2001.08
362.408	2004.42
368.227	2016.42
374.04	2025.42
379.847	2043.08
385.647	2060.75
391.44	2047.08
397.228	2057.42
403.009	2072.42
408.784	2090.08
414.553	2155.75
420.315	2226.08
426.071	2216.75
431.821	2147.42
437.565	2098.08
443.302	2048.42
449.033	2027.75
454.758	2021.08
460.477	2001.75
466.189	1994.08
471.896	1967.42
477.596	1952.42
483.29	1940.42
488.978	1929.75
494.66	1900.75
500.335	1887.75
506.005	1844.08
511.668	1791.75
517.325	1754.42
522.977	1726.08
528.622	1696.08
534.261	1671.42
539.894	1635.08
545.521	1625.42
551.141	1619.75
556.756	1598.42
562.365	1577.08
567.968	1560.75
573.565	1547.75
579.155	1532.42
584.74	1516.75
590.319	1499.08
595.892	1484.08
601.459	1473.75
607.02	1454.08
612.575	1433.42
618.124	1417.75
623.667	1394.08
629.204	1390.08
634.735	1375.75
640.261	1382.08
645.781	1384.42
651.294	1380.08
656.802	1343.75
662.304	1328.42
667.8	1294.42
673.29	1283.42
678.775	1261.42
684.254	1252.75
689.726	1241.75
695.193	1220.42
700.655	1210.08
706.11	1205.42
711.56	1193.75
717.004	1177.42
722.442	1160.75
727.874	1144.75
733.301	1137.08
738.722	1130.42
744.137	1124.42
749.547	1117.42
754.951	1117.08
760.349	1095.08
765.741	1086.08
771.128	1072.75
776.509	1069.42
781.885	1060.08
787.254	1049.75
792.618	1041.42
797.977	1021.75
803.33	1006.75
808.677	994.42
814.019	979.75
819.355	967.75
824.686	950.08
830.011	927.08
835.33	918.75
840.644	918.75
845.952	897.75
851.255	888.08
856.552	866.75
861.844	862.08
867.13	853.08
872.41	837.75
877.686	831.75
882.955	818.75
888.219	804.42
893.478	766.08
898.731	744.75
903.979	731.08
909.221	701.08
914.458	696.75
919.69	686.42
924.916	671.42
930.136	678.42
935.351	671.42
940.561	661.75
945.766	653.42
950.965	644.08
956.158	634.75
961.347	618.75
966.529	607.75
971.707	595.42
976.879	585.08
982.046	575.42
987.208	567.08
992.364	568.42
997.515	560.42
1002.66	568.75
1007.801	567.42
1012.936	565.08
1018.066	572.75
1023.19	575.75
1028.309	575.08
1033.423	564.42
1038.532	569.75
1043.636	563.75
1048.734	555.42
1053.827	549.42
1058.915	542.08
1063.998	534.42
1069.075	526.75
1074.147	527.08
1079.214	539.08
1084.276	534.42
1089.333	536.75
1094.385	538.75
1099.431	536.42
1104.472	537.75
1109.509	521.42
1114.54	517.08
1119.565	507.42
1124.586	502.08
1129.602	492.75
1134.613	485.08
1139.618	480.08
1144.619	482.42
1149.614	490.08
1154.604	481.08
1159.589	487.75
1164.57	488.08
1169.545	487.42
1174.515	486.75
1179.48	479.42
1184.44	477.08
1189.395	478.42
1194.345	465.42
1199.29	465.08
1204.23	463.08
1209.165	461.08
1214.095	466.75
1219.021	469.08
1223.941	477.08
1228.856	478.42
1233.766	473.42
1238.672	474.42
1243.572	475.08
1248.467	469.08
1253.358	459.08
1258.244	454.08
1263.124	445.08
1268	435.08
1272.871	428.42
1277.737	423.75
1282.599	413.42
1287.455	423.42
1292.306	425.42
1297.153	420.08
1301.995	426.42
1306.832	426.75
1311.664	421.08
1316.491	416.42
1321.314	413.42
1326.132	407.75
1330.945	400.42
1335.753	393.08
1340.556	386.75
1345.354	383.08
1350.148	373.42
1354.937	365.42
1359.722	367.42
1364.501	366.08
1369.276	365.08
1374.046	364.75
1378.811	365.75
1383.572	359.75
1388.327	358.42
1393.079	356.08
1397.825	344.08
1402.567	341.42
1407.304	337.75
1412.036	335.42
1416.764	336.08
1421.487	329.75
1426.205	331.08
1430.919	334.75
1435.628	334.08
1440.333	337.42
1445.032	343.08
1449.727	347.42
1454.418	353.08
1459.104	355.75
1463.785	348.42
1468.462	342.42
1473.134	334.42
1477.802	327.08
1482.465	333.08
1487.123	325.75
1491.777	337.42
1496.426	341.08
1501.071	346.75
1505.711	358.08
1510.347	358.08
1514.978	371.75
1519.604	373.75
1524.226	374.42
1528.844	380.08
1533.457	379.75
1538.065	388.08
1542.669	387.75
1547.269	392.08
1551.864	393.75
1556.454	405.42
1561.041	415.08
1565.622	423.42
1570.199	440.75
1574.772	452.42
1579.34	472.75
1583.904	488.08
1588.464	508.08
1593.019	527.42
1597.569	543.42
1602.115	560.08
1606.657	579.08
1611.195	600.75
1615.728	617.42
1620.256	640.08
1624.78	657.08
1629.3	676.08
1633.816	698.75
1638.327	713.08
1642.834	724.75
1647.336	733.42
1651.834	732.75
1656.328	721.08
1660.817	709.08
1665.302	692.08
1669.783	664.42
1674.259	636.42
1678.732	592.08
1683.199	561.75
1687.663	525.42
1692.122	484.42
1696.577	455.42
1701.028	417.42
1705.474	395.42
1709.917	366.08
1714.355	344.08
1718.788	317.75
1723.218	297.42
1727.643	278.75
1732.064	256.75
1736.481	240.08
1740.893	219.42
1745.301	202.42
1749.705	182.42
1754.105	172.08
1758.501	159.75
1762.893	146.42
1767.28	140.42
1771.663	134.08
1776.042	128.08
1780.417	123.75
1784.787	115.42
1789.154	117.42
1793.516	113.42
1797.874	110.08
1802.228	107.08
1806.578	106.08
1810.924	98.42
1815.266	90.75
1819.603	86.08
1823.937	84.42
1828.266	80.08
1832.591	80.08
1836.913	77.08
1841.23	70.42
1845.543	76.42
1849.852	76.42
1854.156	70.08
1858.457	72.42
1862.754	70.75
1867.047	70.42
1871.335	72.42
1875.62	75.42
1879.9	77.75
1884.177	72.75
1888.449	71.75
1892.718	71.75
1896.982	73.42
1901.243	74.08
1905.499	69.42
1909.752	73.42
1914	71.08
1918.245	75.75
1922.485	75.42
1926.722	76.42
1930.954	83.08
1935.183	81.42
1939.408	78.42
1943.628	85.08
1947.845	83.42
1952.058	85.08
1956.267	83.08
1960.472	81.75
1964.673	81.75
1968.87	77.08
1973.063	74.42
1977.252	78.08
1981.438	80.75
1985.619	80.75
1989.797	78.08
1993.971	79.08
1998.14	81.08
2002.306	82.42
2006.469	84.42
2010.627	88.42
2014.781	85.75
2018.932	90.08
2023.078	88.75
2027.221	92.42
2031.36	91.08
2035.495	89.42
2039.627	89.42
2043.754	92.42
2047.878	91.08
2051.998	90.42
2056.114	92.08
2060.226	95.75
2064.334	95.08
2068.439	96.08
2072.54	101.08
2076.637	104.08
2080.73	109.42
2084.82	108.75
2088.906	111.42
2092.988	113.42
2097.066	110.42
2101.14	108.08
2105.211	103.75
2109.278	104.42
2113.342	103.42
2117.401	102.42
2121.457	98.75
2125.509	100.42
2129.558	93.75
2133.602	93.08
2137.643	89.75
2141.681	93.42
2145.714	85.08
2149.744	85.75
2153.77	82.42
2157.793	82.42
2161.812	80.08
2165.827	75.08
2169.838	68.75
2173.846	63.08
2177.851	61.75
2181.851	61.42
2185.848	54.42
2189.841	53.42
2193.831	50.42
2197.817	47.75
2201.799	45.42
2205.778	46.08
2209.753	41.08
2213.725	39.08
2217.693	37.08
2221.657	40.42
2225.618	34.42
2229.575	29.75
2233.529	26.75
2237.479	25.42
2241.425	24.42
2245.368	16.75
2249.307	15.08
2253.243	13.75
2257.175	6.75
2261.104	7.42
2265.029	5.75
2268.95	0.42
2272.868	-0.58
2276.783	-0.92
2280.694	-3.58
2284.601	-6.25
2288.505	-7.92
2292.405	-10.25
2296.302	-13.58
2300.195	-14.92
2304.085	-19.25
2307.971	-19.58
2311.854	-22.25
2315.734	-24.92
2319.609	-24.92
2323.482	-24.92
2327.351	-28.25
2331.216	-26.25
2335.078	-28.92
2338.937	-30.58
2342.792	-33.25
2346.643	-34.92
2350.492	-39.25
2354.336	-35.25
2358.178	-39.25
2362.015	-37.25
2365.85	-37.92
2369.681	-39.58
2373.508	-38.58
2377.333	-40.25
2381.153	-36.25
2384.971	-40.58
2388.785	-41.92
2392.595	-41.92
2396.402	-40.58
2400.206	-44.92
2404.007	-47.25
2407.804	-44.25
2411.597	-44.25
2415.388	-42.58
2419.174	-48.92
2422.958	-46.58
2426.738	-47.25
2430.515	-48.25
2434.289	-49.92
2438.059	-51.58
2441.825	-48.58
2445.589	-50.58
2449.349	-51.92
2453.106	-49.92
2456.859	-51.58
2460.61	-53.25
2464.356	-53.92
2468.1	-53.92
2471.84	-54.92
2475.577	-54.58
2479.311	-54.92
2483.041	-56.58
2486.768	-58.25
2490.492	-55.92
2494.213	-58.25
2497.93	-58.58
2501.644	-56.58
2505.355	-58.92
2509.062	-59.58
2512.766	-55.92
2516.467	-58.92
2520.165	-58.58
2523.859	-61.92
2527.551	-60.58
2531.239	-57.92
2534.923	-59.58
2538.605	-57.92
2542.283	-60.58
2545.958	-59.25
2549.63	-60.92
2553.299	-61.92
2556.964	-61.58
2560.626	-62.58
2564.285	-61.58
2567.941	-60.58
2571.594	-62.58
2575.243	-62.92
2578.89	-62.58
2582.533	-62.58
2586.173	-64.25
2589.809	-66.92
2593.443	-64.92
2597.073	-63.92
2600.701	-64.92
2604.325	-68.92
2607.946	-66.92
2611.564	-68.92
2615.178	-66.58
2618.79	-68.25
2622.398	-67.92
2626.004	-63.92
2629.606	-65.25
2633.205	-67.25
2636.801	-67.58
2640.394	-66.92
2643.983	-66.25
2647.57	-67.92
2651.153	-68.92
2654.734	-67.58
2658.311	-67.92
2661.885	-69.25
2665.456	-66.92
2669.025	-66.25
2672.589	-67.25
2676.151	-65.92
2679.71	-68.58
2683.266	-65.92
2686.819	-67.92
2690.368	-67.92
2693.915	-67.25
2697.458	-68.25
2700.999	-66.25
2704.536	-63.58
2708.071	-64.92
2711.602	-64.92
2715.13	-64.25
2718.656	-61.58
2722.178	-63.25
2725.697	-63.58
2729.214	-62.92
2732.727	-60.58
2736.237	-58.92
2739.744	-58.58
2743.249	-56.58
2746.75	-58.58
2750.248	-57.25
2753.743	-57.58
2757.236	-53.92
2760.725	-54.58
2764.211	-54.92
2767.695	-54.92
2771.175	-49.58
2774.652	-51.25
2778.127	-49.58
2781.598	-48.92
2785.067	-47.58
2788.532	-45.58
2791.995	-45.92
2795.455	-43.92
2798.911	-43.92
2802.365	-41.58
2805.816	-42.25
2809.264	-38.92
2812.709	-37.58
2816.151	-36.25
2819.59	-31.92
2823.026	-33.58
2826.46	-32.58
2829.89	-29.92
2833.318	-28.58
2836.742	-25.92
2840.164	-22.92
2843.583	-22.25
2846.999	-16.58
2850.412	-13.25
2853.822	-10.25
2857.229	-10.92
2860.634	-4.92
2864.035	-0.58
2867.434	1.08
2870.83	3.08
2874.223	6.08
2877.613	7.75
2881	17.08
2884.385	16.42
2887.766	20.42
2891.145	22.08
2894.521	21.42
2897.894	27.08
2901.264	30.08
2904.631	34.75
2907.996	34.42
2911.358	40.75
2914.717	41.75
2918.073	45.42
2921.426	49.08
2924.777	54.75
2928.124	61.75
2931.469	66.75
2934.811	76.08
2938.15	80.42
2941.487	83.42
2944.821	83.75
2948.152	89.75
2951.48	95.42
2954.805	100.08
2958.128	104.42
2961.447	108.75
2964.765	115.08
2968.079	123.08
2971.39	125.08
2974.699	134.08
2978.005	141.42
2981.308	152.08
2984.609	158.75
2987.907	172.08
2991.202	179.08
2994.494	190.42
2997.784	194.75
3001.07	207.75
3004.355	214.08
3007.636	227.75
3010.915	234.08
3014.191	238.08
3017.464	248.08
3020.734	258.75
3024.002	265.42
3027.267	274.75
3030.53	287.75
3033.789	294.75
3037.046	303.08
3040.301	313.08
3043.552	326.08
3046.801	334.08
3050.048	346.42
3053.291	364.75
3056.532	383.42
3059.771	397.75
3063.006	413.42
3066.239	431.42
3069.469	449.42
3072.697	468.08
3075.922	484.42
3079.144	497.08
3082.364	523.08
3085.581	536.75
3088.795	556.75
3092.007	574.08
3095.216	586.42
3098.423	605.75
3101.627	627.08
3104.828	643.75
3108.026	661.75
3111.222	682.75
3114.416	698.08
3117.607	721.42
3120.795	742.75
3123.98	763.75
3127.163	775.75
3130.344	803.08
3133.521	824.08
3136.696	846.08
3139.869	861.42
3143.039	879.75
3146.206	892.75
3149.371	915.42
3152.533	923.42
3155.693	924.08
3158.85	944.75
3162.005	946.08
3165.157	948.08
3168.306	953.42
3171.453	958.42
3174.597	962.75
3177.739	971.42
3180.878	978.42
3184.014	984.42
3187.149	997.42
3190.28	999.08
3193.409	996.75
3196.536	1010.75
3199.659	1012.08
3202.781	1017.08
3205.9	1013.08
3209.016	1018.08
3212.13	1017.75
3215.241	1015.42
3218.35	1004.75
3221.456	1008.08
3224.56	996.08
3227.661	993.42
3230.76	991.08
3233.856	982.75
3236.95	976.08
3240.041	967.42
3243.13	963.75
3246.216	954.42
3249.3	955.08
3252.382	955.42
3255.46	951.08
3258.537	951.75
3261.611	941.42
3264.682	941.75
3267.751	937.75
3270.818	943.08
3273.882	936.08
3276.943	925.42
3280.002	919.08
3283.059	905.42
3286.113	895.42
3289.165	889.42
3292.214	872.08
3295.261	861.75
3298.306	847.75
3301.348	837.75
3304.387	824.42
3307.425	814.42
3310.459	796.75
3313.492	786.42
3316.521	775.42
3319.549	774.08
3322.574	767.75
3325.597	765.08
3328.617	759.42
3331.635	749.08
3334.65	748.08
3337.663	748.42
3340.674	745.42
3343.682	740.08
3346.688	732.75
3349.691	738.08
3352.692	733.75
3355.691	731.42
3358.687	725.08
3361.681	717.75
3364.673	703.75
3367.662	694.75
3370.649	693.42
3373.633	683.42
3376.615	678.42
3379.595	660.42
3382.572	658.42
3385.547	652.08
3388.52	645.75
3391.49	640.08
3394.458	631.08
3397.424	624.75
3400.387	615.75
3403.348	606.75
3406.307	606.75
3409.263	598.75
3412.217	593.75
3415.168	590.08
3418.118	579.75
3421.065	577.42
3424.009	568.75
3426.951	559.42
3429.891	551.42
3432.829	540.08
3435.764	533.08
3438.697	527.75
3441.628	512.75
3444.557	504.42
3447.483	487.08
3450.407	467.75
3453.328	456.42
3456.247	445.08
3459.164	433.08
3462.079	421.75
3464.991	405.42
3467.902	398.08
3470.809	386.08
3473.715	369.42
3476.618	356.42
3479.519	351.42
3482.418	338.42
3485.315	328.42
3488.209	320.42
3491.101	304.42
3493.99	300.08
3496.878	290.08
3499.763	280.08
3502.646	277.42
3505.527	265.08
3508.405	257.42
3511.281	241.08
3514.155	232.75
3517.027	223.42
3519.897	213.75
3522.764	199.08
3525.629	190.08
3528.492	176.75
3531.352	170.42
3534.211	161.42
3537.067	146.08
3539.921	139.08
3542.773	135.75
3545.622	116.42
3548.469	115.75
3551.315	102.08
3554.157	95.08
3556.998	90.42
3559.837	87.75
3562.673	79.08
3565.507	72.42
3568.339	66.42
3571.169	60.75
3573.996	54.42
3576.822	51.75
3579.645	45.75
3582.466	38.08
3585.285	30.75
3588.101	25.42
3590.916	24.08
3593.728	16.75
3596.538	12.42
3599.346	8.08
3602.152	4.08
3604.956	-2.25
3607.757	-2.92
3610.556	-8.92
3613.354	-13.58
3616.149	-13.25
3618.942	-20.58
3621.732	-24.58
3624.521	-27.58
3627.307	-31.92
3630.092	-32.92
3632.874	-35.92
3635.654	-35.92
3638.432	-37.25
3641.208	-41.25
3643.982	-42.25
3646.753	-44.25
3649.523	-48.92
3652.29	-45.92
3655.055	-51.92
3657.818	-58.25
3660.579	-56.58
3663.338	-58.25
3666.095	-62.58
3668.849	-62.58
3671.602	-69.25
3674.352	-68.58
3677.101	-72.58
3679.847	-73.58
3682.591	-75.58
3685.333	-77.92
3688.073	-78.92
3690.811	-80.25
3693.547	-81.58
3696.281	-80.92
3699.013	-82.58
3701.742	-82.58
3704.47	-84.58
3707.195	-83.92
3709.919	-84.58
3712.64	-86.25
3715.359	-86.25
3718.076	-88.25
3720.792	-86.58
3723.505	-90.25
3726.216	-92.25
3728.925	-91.92
3731.632	-93.58
3734.336	-94.58
3737.039	-93.25
3739.74	-96.58
3742.439	-93.58
3745.136	-94.92
3747.83	-97.25
3750.523	-97.25
3753.213	-97.58
3755.902	-97.92
3758.589	-98.25
3761.273	-96.58
3763.956	-100.58
3766.636	-96.58
3769.315	-100.25
3771.991	-100.25
3774.665	-98.25
3777.338	-100.92
3780.008	-99.25
3782.677	-100.25
3785.343	-99.58
3788.007	-101.25
3790.67	-104.58
3793.33	-102.25
3795.989	-103.92
3798.645	-103.92
3801.299	-103.92
3803.952	-101.58
3806.602	-105.58
3809.251	-102.58
3811.897	-105.25
3814.542	-106.92
3817.184	-105.25
3819.825	-104.58
3822.463	-104.25
3825.1	-106.92
3827.735	-106.92
3830.367	-104.25
3832.998	-104.25
3835.627	-106.25
3838.253	-106.58
3840.878	-105.58
3843.501	-106.92
3846.122	-105.58
3848.741	-105.58
3851.358	-105.92
3853.973	-108.25
3856.586	-107.25
3859.197	-105.25
3861.806	-106.92
3864.414	-107.25
3867.019	-107.25
3869.622	-105.58
3872.224	-105.58
3874.823	-102.25
3877.421	-101.92
3880.016	-98.92
3882.61	-92.92
3885.202	-94.58
3887.792	-94.25
3890.38	-99.58
3892.966	-102.92
3895.55	-105.25
3898.132	-106.25
3900.713	-104.92
3903.291	-108.58
3905.868	-107.92
3908.442	-106.92
3911.015	-106.25
3913.586	-108.25
3916.155	-108.58
3918.722	-107.25
3921.287	-105.92
3923.85	-110.25
3926.411	-107.58
3928.971	-106.25
3931.528	-108.92
3934.084	-107.25
3936.638	-105.58
3939.19	-107.92
3941.74	-107.58
3944.288	-109.92
3946.834	-108.92
3949.378	-108.58
3951.921	-109.58
3954.462	-108.92
3957	-105.58
3959.537	-109.25
3962.072	-108.92
3964.606	-107.25
3967.137	-107.58
3969.667	-107.58
3972.194	-108.92
3974.72	-108.58
3977.244	-106.92
3979.766	-104.92
3982.286	-107.25
3984.805	-106.58
3987.321	-107.25
3989.836	-107.25
3992.349	-107.92
3994.86	-106.58
3997.369	-103.92
3999.877	-106.25
4002.382	-109.25
4004.886	-107.58
4007.388	-106.58
4009.888	-106.92
4012.386	-108.92
4014.883	-109.25
4017.377	-109.58
4019.87	-108.92
4022.361	-106.25
4024.85	-108.25
4027.338	-109.92
4029.823	-108.25
4032.307	-109.58
4034.789	-108.58
4037.269	-107.58
4039.747	-108.25
4042.224	-109.25
4044.699	-107.25
4047.172	-107.92
4049.643	-108.25
4052.112	-107.25
4054.58	-106.92
4057.046	-108.25
4059.51	-106.92
4061.972	-108.92
4064.432	-107.92
4066.891	-105.58
4069.348	-105.25
4071.803	-107.58
4074.256	-108.58
4076.708	-106.92
4079.158	-107.25
4081.606	-105.92
4084.052	-105.92
4086.497	-107.25
4088.939	-106.92
4091.38	-107.92
4093.819	-108.92
4096.257	-110.58
4098.693	-110.25
4101.127	-109.58
4103.559	-109.25
4105.989	-67.58
4108.418	-66.92
4110.845	-64.25
4113.27	-56.58
4115.694	-51.92
4118.115	-42.25
4120.535	-107.92
4122.954	-108.25
4125.37	-106.92
4127.785	-106.25
4130.198	-108.25
4132.609	-106.58
4135.019	-111.25
4137.427	-112.58
4139.833	-110.92
4142.237	-109.58
