160.701	-4.92
166.742	2.75
172.777	20.42
178.805	74.75
184.826	202.42
190.841	417.08
196.849	651.08
202.85	795.75
208.845	835.75
214.833	809.42
220.815	782.75
226.789	757.08
232.758	741.42
238.719	729.08
244.674	706.08
250.623	677.08
256.565	656.42
262.5	631.75
268.429	610.08
274.351	593.75
280.267	571.75
286.176	555.42
292.079	546.75
297.975	534.42
303.865	529.42
309.748	519.42
315.625	504.75
321.495	506.08
327.359	502.08
333.217	504.42
339.068	504.42
344.912	505.08
350.751	505.75
356.583	512.42
362.408	507.42
368.227	515.75
374.04	529.75
379.847	543.08
385.647	548.42
391.44	542.75
397.228	528.42
403.009	541.42
408.784	557.08
414.553	615.42
420.315	667.08
426.071	667.42
431.821	608.75
437.565	557.42
443.302	537.42
449.033	533.42
454.758	524.08
460.477	524.75
466.189	515.75
471.896	510.75
477.596	502.75
483.29	504.75
488.978	494.08
494.66	490.75
500.335	477.75
506.005	455.08
511.668	429.75
517.325	411.75
522.977	391.08
528.622	388.08
534.261	372.42
539.894	370.42
545.521	363.08
551.141	361.42
556.756	355.42
562.365	348.75
567.968	347.75
573.565	341.75
579.155	340.42
584.74	342.08
590.319	334.08
595.892	328.75
601.459	331.08
607.02	329.08
612.575	324.08
618.124	317.75
623.667	315.08
629.204	314.08
634.735	313.42
640.261	328.75
645.781	342.08
651.294	351.42
656.802	335.42
662.304	309.08
667.8	298.08
673.29	288.42
678.775	288.08
684.254	284.75
689.726	279.75
695.193	276.75
700.655	277.42
706.11	273.75
711.56	262.75
717.004	267.75
722.442	262.75
727.874	262.75
733.301	267.75
738.722	265.08
744.137	265.42
749.547	268.42
754.951	270.75
760.349	265.08
765.741	264.08
771.128	256.42
776.509	259.75
781.885	261.75
787.254	261.08
792.618	261.08
797.977	259.08
803.33	253.42
808.677	251.75
814.019	249.08
819.355	244.08
824.686	237.08
830.011	235.08
835.33	232.75
840.644	230.42
845.952	224.08
851.255	224.42
856.552	221.08
861.844	216.75
867.13	215.42
872.41	210.08
877.686	206.08
882.955	201.42
888.219	198.75
893.478	192.75
898.731	187.42
903.979	183.75
909.221	181.08
914.458	175.75
919.69	174.75
924.916	174.08
930.136	175.75
935.351	171.08
940.561	177.08
945.766	170.08
950.965	169.42
956.158	166.08
961.347	165.42
966.529	165.42
971.707	160.08
976.879	157.75
982.046	155.42
987.208	152.75
992.364	152.42
997.515	155.75
1002.66	156.75
1007.801	156.75
1012.936	160.08
1018.066	156.08
1023.19	154.42
1028.309	158.42
1033.423	155.08
1038.532	156.08
1043.636	154.08
1048.734	155.75
1053.827	156.08
1058.915	151.08
1063.998	150.08
1069.075	149.75
1074.147	151.08
1079.214	151.42
1084.276	152.08
1089.333	151.42
1094.385	153.42
1099.431	152.08
1104.472	149.75
1109.509	145.08
1114.54	144.08
1119.565	140.42
1124.586	139.08
1129.602	136.42
1134.613	135.42
1139.618	133.42
1144.619	133.08
1149.614	136.42
1154.604	138.08
1159.589	136.75
1164.57	142.42
1169.545	135.75
1174.515	138.08
1179.48	134.42
1184.44	135.42
1189.395	135.75
1194.345	132.75
1199.29	131.42
1204.23	131.75
1209.165	134.08
1214.095	130.42
1219.021	131.75
1223.941	137.42
1228.856	133.08
1233.766	136.75
1238.672	134.42
1243.572	134.42
1248.467	131.42
1253.358	129.42
1258.244	124.75
1263.124	121.75
1268	120.75
1272.871	122.08
1277.737	115.42
1282.599	114.75
1287.455	114.42
1292.306	116.75
1297.153	117.42
1301.995	118.75
1306.832	117.42
1311.664	118.75
1316.491	119.42
1321.314	116.42
1326.132	115.75
1330.945	109.08
1335.753	112.08
1340.556	108.75
1345.354	110.42
1350.148	103.42
1354.937	103.42
1359.722	103.08
1364.501	103.08
1369.276	97.08
1374.046	102.08
1378.811	102.08
1383.572	103.08
1388.327	99.75
1393.079	100.08
1397.825	99.08
1402.567	95.42
1407.304	94.75
1412.036	91.08
1416.764	95.42
1421.487	91.75
1426.205	96.75
1430.919	93.42
1435.628	93.08
1440.333	92.42
1445.032	94.75
1449.727	94.42
1454.418	97.08
1459.104	96.75
1463.785	95.42
1468.462	89.42
1473.134	95.42
1477.802	91.42
1482.465	93.75
1487.123	92.42
1491.777	92.75
1496.426	93.75
1501.071	92.75
1505.711	94.75
1510.347	98.08
1514.978	103.42
1519.604	99.42
1524.226	99.42
1528.844	102.08
1533.457	101.08
1538.065	102.75
1542.669	99.08
1547.269	100.42
1551.864	101.08
1556.454	107.75
1561.041	108.42
1565.622	107.08
1570.199	109.08
1574.772	111.42
1579.34	114.08
1583.904	119.42
1588.464	122.08
1593.019	124.42
1597.569	129.42
1602.115	129.08
1606.657	134.42
1611.195	136.42
1615.728	138.42
1620.256	139.75
1624.78	146.42
1629.3	147.75
1633.816	152.08
1638.327	154.75
1642.834	156.42
1647.336	156.75
1651.834	158.42
1656.328	157.42
1660.817	153.08
1665.302	150.42
1669.783	147.42
1674.259	140.75
1678.732	131.42
1683.199	127.08
1687.663	118.75
1692.122	112.42
1696.577	103.75
1701.028	101.75
1705.474	94.08
1709.917	93.08
1714.355	89.42
1718.788	81.42
1723.218	74.75
1727.643	76.75
1732.064	72.42
1736.481	66.42
1740.893	62.75
1745.301	57.42
1749.705	57.08
1754.105	55.42
1758.501	50.75
1762.893	48.08
1767.28	44.75
1771.663	45.75
1776.042	46.08
1780.417	45.08
1784.787	43.42
1789.154	42.42
1793.516	42.08
1797.874	41.42
1802.228	40.75
1806.578	41.42
1810.924	37.75
1815.266	32.42
1819.603	36.42
1823.937	32.42
1828.266	32.42
1832.591	37.08
1836.913	36.08
1841.23	34.42
1845.543	31.42
1849.852	32.08
1854.156	32.75
1858.457	35.08
1862.754	32.08
1867.047	33.42
1871.335	33.08
1875.62	30.75
1879.9	33.75
1884.177	33.42
1888.449	31.75
1892.718	31.08
1896.982	32.08
1901.243	34.42
1905.499	30.75
1909.752	32.42
1914	33.42
1918.245	31.08
1922.485	35.42
1926.722	33.42
1930.954	33.75
1935.183	36.08
1939.408	32.42
1943.628	35.42
1947.845	33.08
1952.058	33.75
1956.267	33.75
1960.472	32.42
1964.673	32.08
1968.87	30.75
1973.063	30.42
1977.252	29.75
1981.438	31.08
1985.619	32.08
1989.797	27.75
1993.971	26.75
1998.14	28.75
2002.306	27.42
2006.469	29.08
2010.627	30.08
2014.781	29.42
2018.932	29.75
2023.078	31.08
2027.221	30.42
2031.36	28.75
2035.495	29.75
2039.627	30.08
2043.754	29.42
2047.878	31.08
2051.998	29.08
2056.114	31.08
2060.226	32.08
2064.334	29.08
2068.439	33.08
2072.54	30.42
2076.637	32.75
2080.73	32.42
2084.82	34.42
2088.906	34.42
2092.988	34.08
2097.066	32.42
2101.14	33.08
2105.211	33.08
2109.278	32.42
2113.342	33.08
2117.401	32.08
2121.457	31.42
2125.509	32.75
2129.558	31.08
2133.602	27.75
2137.643	27.08
2141.681	27.42
2145.714	24.75
2149.744	28.75
2153.77	26.42
2157.793	27.75
2161.812	25.42
2165.827	26.08
2169.838	27.42
2173.846	22.42
2177.851	19.08
2181.851	22.08
2185.848	20.75
2189.841	19.42
2193.831	19.08
2197.817	18.08
2201.799	16.42
2205.778	20.08
2209.753	17.42
2213.725	17.75
2217.693	16.75
2221.657	16.75
2225.618	16.42
2229.575	14.42
2233.529	16.08
2237.479	13.75
2241.425	15.08
2245.368	13.42
2249.307	11.08
2253.243	11.08
2257.175	11.08
2261.104	10.75
2265.029	9.75
2268.95	9.08
2272.868	7.75
2276.783	7.75
2280.694	7.08
2284.601	6.42
2288.505	4.08
2292.405	4.75
2296.302	5.42
2300.195	3.42
2304.085	1.75
2307.971	4.08
2311.854	4.08
2315.734	3.42
2319.609	1.75
2323.482	1.42
2327.351	-0.58
2331.216	1.42
2335.078	-0.92
2338.937	0.42
2342.792	-1.58
2346.643	-1.92
2350.492	-2.92
2354.336	-2.25
2358.178	-4.25
2362.015	-2.25
2365.85	-1.92
2369.681	-1.92
2373.508	0.08
2377.333	-1.92
2381.153	-1.25
2384.971	-0.58
2388.785	-3.92
2392.595	-2.58
2396.402	-0.92
2400.206	-3.58
2404.007	-5.25
2407.804	-2.92
2411.597	-3.92
2415.388	-2.58
2419.174	-4.92
2422.958	-2.92
2426.738	-4.25
2430.515	-2.25
2434.289	-4.58
2438.059	-5.25
2441.825	-5.58
2445.589	-2.25
2449.349	-3.92
2453.106	-3.25
2456.859	-3.58
2460.61	-2.58
2464.356	-4.58
2468.1	-4.92
2471.84	-7.58
2475.577	-5.58
2479.311	-3.58
2483.041	-5.92
2486.768	-7.58
2490.492	-7.92
2494.213	-9.25
2497.93	-7.58
2501.644	-5.25
2505.355	-5.25
2509.062	-7.25
2512.766	-5.92
2516.467	-5.92
2520.165	-3.58
2523.859	-7.92
2527.551	-7.58
2531.239	-6.58
2534.923	-8.25
2538.605	-7.92
2542.283	-6.92
2545.958	-8.92
2549.63	-7.92
2553.299	-8.25
2556.964	-8.92
2560.626	-7.25
2564.285	-8.25
2567.941	-7.25
2571.594	-7.92
2575.243	-7.58
2578.89	-9.92
2582.533	-10.25
2586.173	-9.25
2589.809	-9.58
2593.443	-7.92
2597.073	-8.92
2600.701	-7.58
2604.325	-11.58
2607.946	-10.92
2611.564	-10.92
2615.178	-11.25
2618.79	-13.25
2622.398	-12.25
2626.004	-8.92
2629.606	-11.25
2633.205	-11.92
2636.801	-10.25
2640.394	-10.25
2643.983	-8.25
2647.57	-11.92
2651.153	-12.58
2654.734	-10.58
2658.311	-10.58
2661.885	-11.92
2665.456	-12.25
2669.025	-10.92
2672.589	-12.25
2676.151	-11.58
2679.71	-11.25
2683.266	-12.58
2686.819	-10.25
2690.368	-10.92
2693.915	-12.25
2697.458	-9.92
2700.999	-11.25
2704.536	-9.58
2708.071	-9.58
2711.602	-12.25
2715.13	-11.25
2718.656	-9.25
2722.178	-9.58
2725.697	-10.25
2729.214	-11.92
2732.727	-8.58
2736.237	-7.58
2739.744	-9.25
2743.249	-6.92
2746.75	-9.25
2750.248	-9.58
2753.743	-7.92
2757.236	-5.25
2760.725	-6.92
2764.211	-8.25
2767.695	-9.58
2771.175	-5.25
2774.652	-8.92
2778.127	-7.92
2781.598	-5.92
2785.067	-9.25
2788.532	-6.92
2791.995	-7.25
2795.455	-7.92
2798.911	-6.92
2802.365	-6.25
2805.816	-6.25
2809.264	-5.92
2812.709	-5.25
2816.151	-5.92
2819.59	-4.25
2823.026	-4.92
2826.46	-6.25
2829.89	-4.58
2833.318	-3.25
2836.742	-3.58
2840.164	-3.92
2843.583	-4.92
2846.999	-3.92
2850.412	-2.58
2853.822	-1.58
2857.229	-3.58
2860.634	-0.25
2864.035	-2.92
2867.434	2.75
2870.83	3.75
2874.223	4.42
2877.613	3.08
2881	4.08
2884.385	5.08
2887.766	5.75
2891.145	7.75
2894.521	6.75
2897.894	7.75
2901.264	8.75
2904.631	6.42
2907.996	7.42
2911.358	7.75
2914.717	9.42
2918.073	8.75
2921.426	11.42
2924.777	11.08
2928.124	11.42
2931.469	13.42
2934.811	15.75
2938.15	13.75
2941.487	15.08
2944.821	15.42
2948.152	18.42
2951.48	18.08
2954.805	19.75
2958.128	20.42
2961.447	22.75
2964.765	24.08
2968.079	22.75
2971.39	24.08
2974.699	24.42
2978.005	28.42
2981.308	28.75
2984.609	33.08
2987.907	33.75
2991.202	35.75
2994.494	38.42
2997.784	39.42
3001.07	44.42
3004.355	43.42
3007.636	45.75
3010.915	46.08
3014.191	46.08
3017.464	48.75
3020.734	54.75
3024.002	51.75
3027.267	55.75
3030.53	57.42
3033.789	55.42
3037.046	59.42
3040.301	62.08
3043.552	66.42
3046.801	69.08
3050.048	68.75
3053.291	72.75
3056.532	73.75
3059.771	76.42
3063.006	80.75
3066.239	85.75
3069.469	89.08
3072.697	93.75
3075.922	95.42
3079.144	100.42
3082.364	103.75
3085.581	109.08
3088.795	108.42
3092.007	114.75
3095.216	116.75
3098.423	120.08
3101.627	122.08
3104.828	130.75
3108.026	134.08
3111.222	137.75
3114.416	141.08
3117.607	145.42
3120.795	147.42
3123.98	154.75
3127.163	157.75
3130.344	161.08
3133.521	165.42
3136.696	171.42
3139.869	173.08
3143.039	174.75
3146.206	180.08
3149.371	180.75
3152.533	184.08
3155.693	186.08
3158.85	189.08
3162.005	189.08
3165.157	192.75
3168.306	191.08
3171.453	191.08
3174.597	194.08
3177.739	193.08
3180.878	197.42
3184.014	194.42
3187.149	197.75
3190.28	197.75
3193.409	201.42
3196.536	202.42
3199.659	203.08
3202.781	201.42
3205.9	202.75
3209.016	204.42
3212.13	203.42
3215.241	202.42
3218.35	199.42
3221.456	202.42
3224.56	196.75
3227.661	197.75
3230.76	196.42
3233.856	193.42
3236.95	192.08
3240.041	190.75
3243.13	193.75
3246.216	189.42
3249.3	187.42
3252.382	188.75
3255.46	188.42
3258.537	184.42
3261.611	189.08
3264.682	184.42
3267.751	187.75
3270.818	191.08
3273.882	187.08
3276.943	181.08
3280.002	188.42
3283.059	183.42
3286.113	180.42
3289.165	177.75
3292.214	174.75
3295.261	173.75
3298.306	171.08
3301.348	169.42
3304.387	164.42
3307.425	161.42
3310.459	160.75
3313.492	156.75
3316.521	158.42
3319.549	156.75
3322.574	152.08
3325.597	153.75
3328.617	154.08
3331.635	147.42
3334.65	152.08
3337.663	151.42
3340.674	152.08
3343.682	147.08
3346.688	148.42
3349.691	149.75
3352.692	149.42
3355.691	143.08
3358.687	148.08
3361.681	146.42
3364.673	140.08
3367.662	139.42
3370.649	139.75
3373.633	139.08
3376.615	138.75
3379.595	135.42
3382.572	134.42
3385.547	134.08
3388.52	131.75
3391.49	126.42
3394.458	128.42
3397.424	126.75
3400.387	124.75
3403.348	120.75
3406.307	122.75
3409.263	120.08
3412.217	117.08
3415.168	117.75
3418.118	120.75
3421.065	117.42
3424.009	113.75
3426.951	118.42
3429.891	113.08
3432.829	110.42
3435.764	112.75
3438.697	107.08
3441.628	108.42
3444.557	102.42
3447.483	100.08
3450.407	94.42
3453.328	94.08
3456.247	88.75
3459.164	88.75
3462.079	87.75
3464.991	83.08
3467.902	81.75
3470.809	79.75
3473.715	73.75
3476.618	77.75
3479.519	70.75
3482.418	70.08
3485.315	66.42
3488.209	65.42
3491.101	63.08
3493.99	66.08
3496.878	61.42
3499.763	58.75
3502.646	55.42
3505.527	54.75
3508.405	54.08
3511.281	48.75
3514.155	48.42
3517.027	45.08
3519.897	42.75
3522.764	43.42
3525.629	41.42
3528.492	38.08
3531.352	37.08
3534.211	33.75
3537.067	31.42
3539.921	32.08
3542.773	28.75
3545.622	26.42
3548.469	22.42
3551.315	22.08
3554.157	20.75
3556.998	17.42
3559.837	19.08
3562.673	14.75
3565.507	13.75
3568.339	13.08
3571.169	13.75
3573.996	11.08
3576.822	12.08
3579.645	10.08
3582.466	8.42
3585.285	7.42
3588.101	5.42
3590.916	5.08
3593.728	4.08
3596.538	1.42
3599.346	1.42
3602.152	-0.25
3604.956	-0.58
3607.757	0.75
3610.556	-3.58
3613.354	-3.58
3616.149	-2.58
3618.942	-5.58
3621.732	-4.58
3624.521	-6.58
3627.307	-5.25
3630.092	-9.25
3632.874	-8.25
3635.654	-6.25
3638.432	-6.92
3641.208	-7.25
3643.982	-9.58
3646.753	-12.25
3649.523	-12.92
3652.29	-9.25
3655.055	-12.25
3657.818	-12.58
3660.579	-14.58
3663.338	-12.25
3666.095	-13.25
3668.849	-11.92
3671.602	-15.58
3674.352	-14.92
3677.101	-13.58
3679.847	-16.25
3682.591	-15.92
3685.333	-15.25
3688.073	-15.25
3690.811	-16.58
3693.547	-17.25
3696.281	-17.25
3699.013	-18.92
3701.742	-16.92
3704.47	-16.92
3707.195	-16.58
3709.919	-16.25
3712.64	-16.25
3715.359	-17.58
3718.076	-17.92
3720.792	-17.25
3723.505	-17.25
3726.216	-18.92
3728.925	-15.92
3731.632	-21.25
3734.336	-18.58
3737.039	-20.25
3739.74	-20.58
3742.439	-19.25
3745.136	-19.92
3747.83	-21.58
3750.523	-22.58
3753.213	-21.58
3755.902	-20.92
3758.589	-19.92
3761.273	-19.25
3763.956	-21.58
3766.636	-19.58
3769.315	-19.25
3771.991	-20.58
3774.665	-21.58
3777.338	-21.58
3780.008	-20.58
3782.677	-19.25
3785.343	-21.25
3788.007	-22.92
3790.67	-23.25
3793.33	-21.92
3795.989	-23.58
3798.645	-21.92
3801.299	-20.92
3803.952	-21.25
3806.602	-22.92
3809.251	-20.92
3811.897	-20.92
3814.542	-22.58
3817.184	-22.92
3819.825	-21.25
3822.463	-22.92
3825.1	-25.25
3827.735	-23.58
3830.367	-22.58
3832.998	-23.25
3835.627	-23.58
3838.253	-24.58
3840.878	-26.25
3843.501	-24.58
3846.122	-23.25
3848.741	-23.25
3851.358	-24.25
3853.973	-24.25
3856.586	-22.25
3859.197	-23.25
3861.806	-22.25
3864.414	-21.92
3867.019	-22.92
3869.622	-23.92
3872.224	-21.92
3874.823	-20.58
3877.421	-20.25
3880.016	-18.92
3882.61	-13.92
3885.202	-14.92
3887.792	-13.58
3890.38	-17.58
3892.966	-21.25
3895.55	-22.25
3898.132	-22.92
3900.713	-21.92
3903.291	-22.25
3905.868	-24.92
3908.442	-21.92
3911.015	-22.25
3913.586	-22.92
3916.155	-24.58
3918.722	-22.25
3921.287	-21.92
3923.85	-23.58
3926.411	-24.25
3928.971	-22.25
3931.528	-24.92
3934.084	-23.25
3936.638	-23.92
3939.19	-22.25
3941.74	-22.92
3944.288	-26.25
3946.834	-24.92
3949.378	-22.58
3951.921	-23.92
3954.462	-22.92
3957	-20.58
3959.537	-22.58
3962.072	-22.58
3964.606	-23.25
3967.137	-23.58
3969.667	-22.92
3972.194	-24.92
3974.72	-24.58
3977.244	-23.58
3979.766	-22.92
3982.286	-24.58
3984.805	-21.92
3987.321	-23.58
3989.836	-23.92
3992.349	-26.25
3994.86	-22.92
3997.369	-21.25
3999.877	-23.58
4002.382	-25.25
4004.886	-25.25
4007.388	-24.25
4009.888	-23.58
4012.386	-24.92
4014.883	-23.92
4017.377	-26.25
4019.87	-26.25
4022.361	-23.92
4024.85	-23.25
4027.338	-23.92
4029.823	-24.58
4032.307	-25.25
4034.789	-23.58
4037.269	-23.25
4039.747	-22.58
4042.224	-24.58
4044.699	-23.25
4047.172	-25.58
4049.643	-24.58
4052.112	-23.58
4054.58	-22.92
4057.046	-23.58
4059.51	-23.25
4061.972	-23.25
4064.432	-21.92
4066.891	-23.25
4069.348	-21.58
4071.803	-21.25
4074.256	-21.25
4076.708	-23.25
4079.158	-20.92
4081.606	-22.92
4084.052	-20.92
4086.497	-22.58
4088.939	-23.25
4091.38	-23.25
4093.819	-22.92
4096.257	-21.92
4098.693	-23.58
4101.127	-22.92
4103.559	-22.25
4105.989	-10.58
4108.418	-7.92
4110.845	-9.25
4113.27	-6.92
4115.694	-7.58
4118.115	-5.58
4120.535	-22.92
4122.954	-21.58
4125.37	-20.92
4127.785	-21.58
4130.198	-21.92
4132.609	-22.92
4135.019	-23.58
4137.427	-23.92
4139.833	-22.92
4142.237	-22.58
