160.701	-30.21
166.742	0.79
172.777	94.46
178.805	383.12
184.826	1077.79
190.841	2240.79
196.849	3548.79
202.85	4374.79
208.845	4532.46
214.833	4360.79
220.815	4177.12
226.789	4023.79
232.758	3882.46
238.719	3742.79
244.674	3591.12
250.623	3391.79
256.565	3231.79
262.5	3042.79
268.429	2893.12
274.351	2750.79
280.267	2627.12
286.176	2516.79
292.079	2430.46
297.975	2326.12
303.865	2258.79
309.748	2184.79
315.625	2140.46
321.495	2093.79
327.359	2065.46
333.217	2028.46
339.068	2014.79
344.912	2012.12
350.751	2006.79
356.583	1993.46
362.408	1988.46
368.227	2004.12
374.04	2008.12
379.847	2035.46
385.647	2056.12
391.44	2059.46
397.228	2048.79
403.009	2056.79
408.784	2091.79
414.553	2141.46
420.315	2208.79
426.071	2213.46
431.821	2142.46
437.565	2080.79
443.302	2047.79
449.033	2031.46
454.758	2002.79
460.477	2001.46
466.189	1986.12
471.896	1962.12
477.596	1957.12
483.29	1937.79
488.978	1926.79
494.66	1901.12
500.335	1870.12
506.005	1833.79
511.668	1779.46
517.325	1752.12
522.977	1713.46
528.622	1687.79
534.261	1666.12
539.894	1645.79
545.521	1622.12
551.141	1610.79
556.756	1586.46
562.365	1574.79
567.968	1554.46
573.565	1530.79
579.155	1527.12
584.74	1508.46
590.319	1495.12
595.892	1480.12
601.459	1460.46
607.02	1446.46
612.575	1436.79
618.124	1401.79
623.667	1384.12
629.204	1369.46
634.735	1370.79
640.261	1381.46
645.781	1380.12
651.294	1381.79
656.802	1354.79
662.304	1321.79
667.8	1291.12
673.29	1283.46
678.775	1260.12
684.254	1248.12
689.726	1234.46
695.193	1230.46
700.655	1204.79
706.11	1193.46
711.56	1170.79
717.004	1173.79
722.442	1150.46
727.874	1133.46
733.301	1132.79
738.722	1121.12
744.137	1108.46
749.547	1120.12
754.951	1108.79
760.349	1093.46
765.741	1081.12
771.128	1069.12
776.509	1061.12
781.885	1057.12
787.254	1046.79
792.618	1037.12
797.977	1026.46
803.33	1009.79
808.677	998.46
814.019	973.12
819.355	955.79
824.686	939.12
830.011	930.12
835.33	911.12
840.644	904.12
845.952	885.46
851.255	878.79
856.552	868.79
861.844	851.79
867.13	834.79
872.41	830.12
877.686	818.79
882.955	804.46
888.219	784.46
893.478	762.12
898.731	735.79
903.979	725.46
909.221	706.46
914.458	692.46
919.69	680.46
924.916	674.79
930.136	674.46
935.351	668.79
940.561	658.79
945.766	649.12
950.965	642.79
956.158	631.12
961.347	617.46
966.529	607.79
971.707	593.12
976.879	578.46
982.046	570.46
987.208	559.46
992.364	563.12
997.515	563.46
1002.66	560.79
1007.801	565.12
1012.936	570.12
1018.066	568.46
1023.19	568.79
1028.309	565.46
1033.423	564.46
1038.532	570.46
1043.636	550.12
1048.734	551.12
1053.827	538.46
1058.915	526.12
1063.998	531.12
1069.075	528.12
1074.147	523.46
1079.214	527.79
1084.276	526.12
1089.333	530.46
1094.385	533.79
1099.431	524.12
1104.472	529.79
1109.509	519.79
1114.54	510.12
1119.565	502.79
1124.586	500.79
1129.602	493.79
1134.613	484.79
1139.618	471.79
1144.619	483.12
1149.614	480.12
1154.604	482.46
1159.589	485.12
1164.57	487.79
1169.545	491.12
1174.515	488.46
1179.48	484.46
1184.44	483.46
1189.395	472.46
1194.345	473.12
1199.29	468.46
1204.23	464.79
1209.165	469.12
1214.095	465.46
1219.021	472.79
1223.941	474.12
1228.856	478.46
1233.766	474.46
1238.672	475.79
1243.572	465.79
1248.467	467.12
1253.358	455.46
1258.244	449.12
1263.124	438.12
1268	427.46
1272.871	424.79
1277.737	423.79
1282.599	424.12
1287.455	415.46
1292.306	421.12
1297.153	421.46
1301.995	423.79
1306.832	423.79
1311.664	419.79
1316.491	419.12
1321.314	414.79
1326.132	412.46
1330.945	403.79
1335.753	395.46
1340.556	384.12
1345.354	378.46
1350.148	374.46
1354.937	364.12
1359.722	362.12
1364.501	367.46
1369.276	357.79
1374.046	363.46
1378.811	358.46
1383.572	357.79
1388.327	351.79
1393.079	356.12
1397.825	349.46
1402.567	341.12
1407.304	335.12
1412.036	329.46
1416.764	334.12
1421.487	329.46
1426.205	332.46
1430.919	331.12
1435.628	333.46
1440.333	338.79
1445.032	343.46
1449.727	343.46
1454.418	342.46
1459.104	340.12
1463.785	336.12
1468.462	333.12
1473.134	330.79
1477.802	324.46
1482.465	327.12
1487.123	328.79
1491.777	328.79
1496.426	338.46
1501.071	343.46
1505.711	350.46
1510.347	355.12
1514.978	365.46
1519.604	366.79
1524.226	370.79
1528.844	377.79
1533.457	380.79
1538.065	383.46
1542.669	385.79
1547.269	389.12
1551.864	395.79
1556.454	402.12
1561.041	413.79
1565.622	426.12
1570.199	430.46
1574.772	455.79
1579.34	464.46
1583.904	491.12
1588.464	504.79
1593.019	530.12
1597.569	545.12
1602.115	558.46
1606.657	575.12
1611.195	589.79
1615.728	616.46
1620.256	629.12
1624.78	654.12
1629.3	677.46
1633.816	689.46
1638.327	710.79
1642.834	719.46
1647.336	718.79
1651.834	722.12
1656.328	717.79
1660.817	702.79
1665.302	687.79
1669.783	658.12
1674.259	622.46
1678.732	589.79
1683.199	556.46
1687.663	521.79
1692.122	484.12
1696.577	451.46
1701.028	416.79
1705.474	388.12
1709.917	363.79
1714.355	342.46
1718.788	318.46
1723.218	294.79
1727.643	274.46
1732.064	252.79
1736.481	235.12
1740.893	219.12
1745.301	202.79
1749.705	187.12
1754.105	169.79
1758.501	161.46
1762.893	151.12
1767.28	140.79
1771.663	131.12
1776.042	126.46
1780.417	121.46
1784.787	119.46
1789.154	120.46
1793.516	116.79
1797.874	112.12
1802.228	107.46
1806.578	105.12
1810.924	104.12
1815.266	91.12
1819.603	92.79
1823.937	84.79
1828.266	81.46
1832.591	80.79
1836.913	76.46
1841.23	76.46
1845.543	70.79
1849.852	70.12
1854.156	68.12
1858.457	74.12
1862.754	74.46
1867.047	71.79
1871.335	75.46
1875.62	71.12
1879.9	76.12
1884.177	69.12
1888.449	72.46
1892.718	71.79
1896.982	72.79
1901.243	72.12
1905.499	70.46
1909.752	71.46
1914	70.79
1918.245	75.12
1922.485	74.12
1926.722	76.46
1930.954	83.46
1935.183	82.79
1939.408	83.12
1943.628	88.46
1947.845	87.46
1952.058	87.46
1956.267	82.12
1960.472	81.79
1964.673	81.79
1968.87	78.46
1973.063	75.79
1977.252	75.12
1981.438	80.12
1985.619	78.79
1989.797	77.12
1993.971	75.79
1998.14	81.12
2002.306	84.12
2006.469	82.79
2010.627	89.46
2014.781	87.46
2018.932	88.79
2023.078	90.46
2027.221	89.12
2031.36	89.79
2035.495	87.79
2039.627	89.12
2043.754	92.79
2047.878	91.12
2051.998	90.46
2056.114	93.46
2060.226	96.46
2064.334	99.12
2068.439	100.79
2072.54	97.79
2076.637	105.46
2080.73	105.46
2084.82	107.12
2088.906	106.46
2092.988	110.79
2097.066	109.46
2101.14	108.46
2105.211	105.79
2109.278	102.79
2113.342	102.46
2117.401	99.12
2121.457	98.79
2125.509	97.79
2129.558	93.79
2133.602	91.12
2137.643	89.79
2141.681	89.79
2145.714	86.79
2149.744	88.46
2153.77	82.79
2157.793	79.79
2161.812	73.79
2165.827	75.79
2169.838	70.46
2173.846	66.79
2177.851	61.79
2181.851	56.79
2185.848	56.79
2189.841	52.79
2193.831	48.79
2197.817	46.46
2201.799	43.79
2205.778	40.12
2209.753	40.79
2213.725	37.79
2217.693	36.46
2221.657	35.79
2225.618	33.46
2229.575	27.79
2233.529	29.12
2237.479	22.79
2241.425	23.79
2245.368	17.46
2249.307	15.79
2253.243	14.46
2257.175	9.46
2261.104	6.12
2265.029	4.12
2268.95	2.46
2272.868	-0.88
2276.783	-1.54
2280.694	-5.54
2284.601	-5.21
2288.505	-10.88
2292.405	-13.21
2296.302	-8.88
2300.195	-16.54
2304.085	-20.88
2307.971	-20.88
2311.854	-20.21
2315.734	-25.21
2319.609	-24.88
2323.482	-31.21
2327.351	-29.54
2331.216	-25.54
2335.078	-31.21
2338.937	-32.54
2342.792	-33.21
2346.643	-34.88
2350.492	-35.88
2354.336	-37.21
2358.178	-36.21
2362.015	-35.21
2365.85	-38.21
2369.681	-36.54
2373.508	-38.88
2377.333	-40.54
2381.153	-38.54
2384.971	-39.88
2388.785	-41.21
2392.595	-43.88
2396.402	-42.88
2400.206	-43.21
2404.007	-47.21
2407.804	-46.54
2411.597	-46.88
2415.388	-45.54
2419.174	-47.54
2422.958	-47.88
2426.738	-49.88
2430.515	-49.54
2434.289	-52.88
2438.059	-53.54
2441.825	-50.54
2445.589	-51.21
2449.349	-52.88
2453.106	-50.54
2456.859	-50.88
2460.61	-52.21
2464.356	-54.88
2468.1	-55.54
2471.84	-53.88
2475.577	-54.54
2479.311	-55.21
2483.041	-56.54
2486.768	-56.21
2490.492	-57.54
2494.213	-57.21
2497.93	-57.88
2501.644	-58.21
2505.355	-58.21
2509.062	-57.54
2512.766	-58.88
2516.467	-58.21
2520.165	-58.88
2523.859	-61.88
2527.551	-58.88
2531.239	-59.88
2534.923	-58.54
2538.605	-58.88
2542.283	-60.88
2545.958	-59.54
2549.63	-62.54
2553.299	-61.88
2556.964	-60.88
2560.626	-62.54
2564.285	-61.21
2567.941	-62.88
2571.594	-63.54
2575.243	-61.21
2578.89	-66.88
2582.533	-63.54
2586.173	-63.21
2589.809	-65.21
2593.443	-66.88
2597.073	-65.21
2600.701	-66.54
2604.325	-69.88
2607.946	-70.21
2611.564	-66.88
2615.178	-65.21
2618.79	-69.88
2622.398	-68.88
2626.004	-67.21
2629.606	-68.21
2633.205	-69.21
2636.801	-69.54
2640.394	-65.54
2643.983	-67.21
2647.57	-68.54
2651.153	-66.88
2654.734	-67.21
2658.311	-66.54
2661.885	-67.54
2665.456	-64.54
2669.025	-68.21
2672.589	-69.88
2676.151	-65.88
2679.71	-70.54
2683.266	-68.88
2686.819	-69.88
2690.368	-68.21
2693.915	-67.88
2697.458	-68.21
2700.999	-66.88
2704.536	-65.54
2708.071	-67.54
2711.602	-67.21
2715.13	-64.54
2718.656	-63.88
2722.178	-64.54
2725.697	-64.54
2729.214	-64.54
2732.727	-60.88
2736.237	-60.21
2739.744	-58.54
2743.249	-58.54
2746.75	-59.21
2750.248	-55.54
2753.743	-56.88
2757.236	-55.21
2760.725	-54.54
2764.211	-54.88
2767.695	-52.21
2771.175	-50.21
2774.652	-54.54
2778.127	-51.21
2781.598	-49.88
2785.067	-47.54
2788.532	-49.54
2791.995	-46.88
2795.455	-47.88
2798.911	-44.88
2802.365	-43.88
2805.816	-40.88
2809.264	-37.54
2812.709	-40.88
2816.151	-35.54
2819.59	-35.88
2823.026	-33.88
2826.46	-33.88
2829.89	-31.54
2833.318	-26.88
2836.742	-27.21
2840.164	-23.54
2843.583	-23.21
2846.999	-17.88
2850.412	-12.54
2853.822	-13.21
2857.229	-12.54
2860.634	-7.54
2864.035	-6.21
2867.434	-1.88
2870.83	-1.88
2874.223	2.12
2877.613	4.12
2881	9.12
2884.385	11.46
2887.766	13.12
2891.145	16.79
2894.521	20.12
2897.894	23.79
2901.264	25.12
2904.631	31.79
2907.996	29.79
2911.358	31.79
2914.717	38.46
2918.073	42.79
2921.426	45.46
2924.777	50.46
2928.124	54.79
2931.469	56.79
2934.811	62.79
2938.15	67.46
2941.487	74.12
2944.821	77.46
2948.152	82.12
2951.48	86.46
2954.805	89.79
2958.128	95.79
2961.447	104.79
2964.765	105.79
2968.079	111.79
2971.39	119.12
2974.699	124.79
2978.005	136.12
2981.308	145.46
2984.609	153.12
2987.907	166.46
2991.202	172.46
2994.494	181.12
2997.784	189.46
3001.07	206.46
3004.355	207.79
3007.636	218.46
3010.915	233.12
3014.191	234.12
3017.464	239.12
3020.734	251.46
3024.002	259.12
3027.267	266.12
3030.53	279.46
3033.789	285.12
3037.046	293.46
3040.301	310.46
3043.552	320.46
3046.801	334.79
3050.048	350.79
3053.291	359.79
3056.532	372.79
3059.771	391.79
3063.006	402.12
3066.239	421.79
3069.469	438.46
3072.697	461.12
3075.922	476.79
3079.144	491.12
3082.364	508.79
3085.581	530.79
3088.795	544.12
3092.007	557.79
3095.216	572.46
3098.423	590.46
3101.627	613.12
3104.828	626.79
3108.026	645.79
3111.222	660.46
3114.416	687.12
3117.607	700.46
3120.795	726.12
3123.98	745.46
3127.163	765.12
3130.344	789.79
3133.521	807.12
3136.696	831.79
3139.869	849.12
3143.039	858.79
3146.206	878.12
3149.371	898.12
3152.533	907.12
3155.693	909.12
3158.85	923.79
3162.005	933.46
3165.157	931.46
3168.306	935.79
3171.453	947.12
3174.597	949.46
3177.739	962.46
3180.878	963.12
3184.014	971.79
3187.149	968.46
3190.28	972.12
3193.409	988.79
3196.536	989.46
3199.659	991.79
3202.781	997.12
3205.9	997.46
3209.016	1007.12
3212.13	1006.79
3215.241	997.79
3218.35	988.46
3221.456	992.46
3224.56	985.12
3227.661	981.12
3230.76	973.79
3233.856	960.79
3236.95	957.46
3240.041	948.79
3243.13	954.46
3246.216	953.12
3249.3	944.46
3252.382	936.46
3255.46	943.46
3258.537	934.12
3261.611	935.12
3264.682	930.46
3267.751	924.46
3270.818	931.79
3273.882	919.46
3276.943	916.46
3280.002	907.46
3283.059	892.46
3286.113	889.46
3289.165	871.79
3292.214	857.46
3295.261	856.12
3298.306	840.12
3301.348	822.46
3304.387	805.79
3307.425	793.46
3310.459	787.46
3313.492	777.46
3316.521	768.46
3319.549	760.46
3322.574	756.79
3325.597	747.79
3328.617	748.79
3331.635	749.12
3334.65	743.12
3337.663	746.12
3340.674	737.46
3343.682	730.79
3346.688	733.79
3349.691	730.79
3352.692	722.79
3355.691	721.79
3358.687	720.12
3361.681	713.46
3364.673	708.12
3367.662	693.46
3370.649	685.46
3373.633	675.12
3376.615	673.46
3379.595	666.12
3382.572	652.79
3385.547	646.12
3388.52	640.46
3391.49	626.79
3394.458	620.12
3397.424	617.12
3400.387	608.12
3403.348	606.46
3406.307	604.12
3409.263	587.12
3412.217	582.12
3415.168	581.12
3418.118	578.12
3421.065	571.79
3424.009	554.79
3426.951	557.12
3429.891	551.12
3432.829	532.79
3435.764	526.46
3438.697	508.79
3441.628	502.46
3444.557	480.12
3447.483	475.46
3450.407	466.12
3453.328	449.46
3456.247	434.46
3459.164	423.12
3462.079	415.46
3464.991	398.79
3467.902	384.12
3470.809	377.46
3473.715	364.12
3476.618	354.79
3479.519	338.79
3482.418	332.12
3485.315	323.46
3488.209	316.12
3491.101	309.12
3493.99	300.12
3496.878	287.12
3499.763	274.79
3502.646	271.79
3505.527	257.46
3508.405	252.12
3511.281	239.12
3514.155	223.79
3517.027	219.12
3519.897	205.46
3522.764	193.12
3525.629	188.46
3528.492	171.46
3531.352	163.12
3534.211	153.12
3537.067	142.46
3539.921	132.79
3542.773	124.46
3545.622	117.46
3548.469	111.12
3551.315	98.12
3554.157	92.46
3556.998	87.46
3559.837	80.12
3562.673	75.79
3565.507	67.12
3568.339	62.79
3571.169	58.79
3573.996	54.79
3576.822	48.79
3579.645	41.46
3582.466	35.12
3585.285	30.79
3588.101	22.46
3590.916	21.79
3593.728	15.79
3596.538	6.12
3599.346	5.46
3602.152	-0.88
3604.956	-6.54
3607.757	-3.88
3610.556	-11.21
3613.354	-14.21
3616.149	-19.88
3618.942	-20.88
3621.732	-24.88
3624.521	-29.54
3627.307	-31.88
3630.092	-34.88
3632.874	-38.88
3635.654	-35.21
3638.432	-39.88
3641.208	-43.21
3643.982	-45.88
3646.753	-47.88
3649.523	-52.21
3652.29	-51.54
3655.055	-53.88
3657.818	-56.88
3660.579	-60.88
3663.338	-63.21
3666.095	-66.21
3668.849	-65.54
3671.602	-69.21
3674.352	-70.88
3677.101	-72.21
3679.847	-74.21
3682.591	-75.88
3685.333	-78.88
3688.073	-77.54
3690.811	-81.54
3693.547	-82.21
3696.281	-81.54
3699.013	-86.54
3701.742	-83.21
3704.47	-84.88
3707.195	-87.21
3709.919	-87.54
3712.64	-85.54
3715.359	-88.88
3718.076	-89.88
3720.792	-88.88
3723.505	-91.88
3726.216	-93.54
3728.925	-90.88
3731.632	-92.54
3734.336	-95.21
3737.039	-95.88
3739.74	-97.54
3742.439	-92.88
3745.136	-96.21
3747.83	-96.54
3750.523	-98.54
3753.213	-97.54
3755.902	-97.88
3758.589	-97.88
3761.273	-98.21
3763.956	-101.54
3766.636	-100.21
3769.315	-100.21
3771.991	-99.54
3774.665	-102.88
3777.338	-100.88
3780.008	-101.54
3782.677	-100.54
3785.343	-102.21
3788.007	-101.54
3790.67	-105.21
3793.33	-104.21
3795.989	-104.21
3798.645	-103.21
3801.299	-103.54
3803.952	-101.21
3806.602	-103.88
3809.251	-104.88
3811.897	-104.21
3814.542	-106.54
3817.184	-105.21
3819.825	-106.21
3822.463	-105.54
3825.1	-106.54
3827.735	-107.54
3830.367	-105.88
3832.998	-107.54
3835.627	-107.54
3838.253	-106.54
3840.878	-108.54
3843.501	-108.88
3846.122	-107.21
3848.741	-108.54
3851.358	-107.88
3853.973	-109.88
3856.586	-108.54
3859.197	-106.54
3861.806	-107.88
3864.414	-107.88
3867.019	-106.21
3869.622	-107.21
3872.224	-105.88
3874.823	-104.54
3877.421	-100.21
3880.016	-98.54
3882.61	-93.21
3885.202	-92.88
3887.792	-93.21
3890.38	-97.88
3892.966	-104.21
3895.55	-104.54
3898.132	-106.54
3900.713	-106.54
3903.291	-108.88
3905.868	-108.88
3908.442	-108.54
3911.015	-107.21
3913.586	-109.54
3916.155	-108.54
3918.722	-110.21
3921.287	-107.88
3923.85	-109.21
3926.411	-109.88
3928.971	-108.54
3931.528	-109.21
3934.084	-108.54
3936.638	-108.54
3939.19	-108.21
3941.74	-107.88
3944.288	-111.88
3946.834	-109.54
3949.378	-107.54
3951.921	-109.21
3954.462	-107.88
3957	-108.21
3959.537	-107.21
3962.072	-109.88
3964.606	-109.21
3967.137	-108.21
3969.667	-109.21
3972.194	-108.88
3974.72	-108.21
3977.244	-107.21
3979.766	-105.54
3982.286	-107.21
3984.805	-107.88
3987.321	-108.21
3989.836	-107.21
3992.349	-108.54
3994.86	-107.54
3997.369	-106.88
3999.877	-108.21
4002.382	-108.54
4004.886	-108.54
4007.388	-107.88
4009.888	-109.88
4012.386	-109.88
4014.883	-108.88
4017.377	-110.88
4019.87	-110.54
4022.361	-108.21
4024.85	-108.54
4027.338	-110.88
4029.823	-110.54
4032.307	-108.54
4034.789	-109.21
4037.269	-109.21
4039.747	-110.54
4042.224	-108.54
4044.699	-108.54
4047.172	-109.88
4049.643	-109.21
4052.112	-109.21
4054.58	-107.21
4057.046	-109.54
4059.51	-108.54
4061.972	-108.88
4064.432	-108.21
4066.891	-109.54
4069.348	-107.21
4071.803	-109.21
4074.256	-110.21
4076.708	-111.21
4079.158	-107.21
4081.606	-107.88
4084.052	-107.54
4086.497	-107.88
4088.939	-107.88
4091.38	-109.54
4093.819	-105.21
4096.257	-112.54
4098.693	-113.21
4101.127	-112.54
4103.559	-111.88
4105.989	-71.54
4108.418	-67.21
4110.845	-64.88
4113.27	-59.54
4115.694	-51.88
4118.115	-47.88
4120.535	-107.88
4122.954	-107.54
4125.37	-107.54
4127.785	-106.88
4130.198	-109.21
4132.609	-107.88
4135.019	-112.54
4137.427	-111.88
4139.833	-111.21
4142.237	-112.54
