160.701	-4.25
166.742	1.08
172.777	22.08
178.805	77.42
184.826	218.08
190.841	438.75
196.849	673.08
202.85	822.75
208.845	858.42
214.833	827.75
220.815	796.42
226.789	770.08
232.758	759.08
238.719	743.08
244.674	718.08
250.623	687.75
256.565	664.08
262.5	638.42
268.429	619.75
274.351	600.08
280.267	578.42
286.176	563.42
292.079	553.75
297.975	542.08
303.865	533.08
309.748	522.75
315.625	516.08
321.495	505.42
327.359	510.75
333.217	505.75
339.068	502.42
344.912	509.42
350.751	509.75
356.583	506.42
362.408	512.08
368.227	518.75
374.04	528.42
379.847	540.42
385.647	554.75
391.44	543.75
397.228	541.08
403.009	538.08
408.784	565.75
414.553	615.42
420.315	666.42
426.071	670.08
431.821	615.42
437.565	555.75
443.302	547.75
449.033	529.42
454.758	531.75
460.477	528.75
466.189	519.08
471.896	509.75
477.596	501.75
483.29	509.75
488.978	496.42
494.66	499.42
500.335	480.42
506.005	464.08
511.668	441.75
517.325	419.42
522.977	404.75
528.622	389.42
534.261	377.08
539.894	373.42
545.521	364.75
551.141	362.75
556.756	360.42
562.365	349.08
567.968	352.08
573.565	348.08
579.155	349.08
584.74	342.75
590.319	341.08
595.892	335.08
601.459	335.42
607.02	331.08
612.575	327.08
618.124	321.75
623.667	320.42
629.204	318.75
634.735	319.08
640.261	330.75
645.781	340.08
651.294	354.08
656.802	336.42
662.304	313.42
667.8	301.42
673.29	296.08
678.775	289.42
684.254	286.42
689.726	285.75
695.193	281.42
700.655	278.08
706.11	274.75
711.56	272.42
717.004	271.08
722.442	269.42
727.874	268.75
733.301	266.08
738.722	270.42
744.137	268.08
749.547	274.42
754.951	273.75
760.349	271.75
765.741	266.75
771.128	261.42
776.509	264.42
781.885	263.42
787.254	263.75
792.618	261.08
797.977	258.75
803.33	261.75
808.677	257.08
814.019	248.75
819.355	244.75
824.686	240.42
830.011	241.08
835.33	236.42
840.644	231.75
845.952	229.08
851.255	227.75
856.552	224.75
861.844	216.42
867.13	213.08
872.41	210.42
877.686	203.42
882.955	200.75
888.219	194.42
893.478	192.75
898.731	187.08
903.979	185.42
909.221	186.08
914.458	182.42
919.69	179.42
924.916	180.42
930.136	180.42
935.351	177.75
940.561	173.42
945.766	175.08
950.965	172.08
956.158	170.42
961.347	166.75
966.529	163.42
971.707	158.08
976.879	155.75
982.046	156.42
987.208	155.75
992.364	153.75
997.515	157.08
1002.66	156.75
1007.801	156.42
1012.936	157.42
1018.066	159.42
1023.19	159.75
1028.309	165.42
1033.423	161.08
1038.532	161.08
1043.636	158.75
1048.734	156.08
1053.827	156.08
1058.915	152.08
1063.998	154.42
1069.075	147.75
1074.147	147.08
1079.214	152.42
1084.276	146.08
1089.333	153.75
1094.385	156.08
1099.431	152.08
1104.472	151.75
1109.509	149.75
1114.54	148.75
1119.565	144.08
1124.586	142.42
1129.602	138.75
1134.613	135.75
1139.618	133.42
1144.619	137.08
1149.614	134.75
1154.604	138.08
1159.589	135.42
1164.57	140.08
1169.545	138.08
1174.515	139.75
1179.48	138.42
1184.44	137.42
1189.395	139.08
1194.345	135.08
1199.29	135.75
1204.23	131.42
1209.165	137.08
1214.095	134.42
1219.021	133.42
1223.941	137.08
1228.856	136.08
1233.766	135.75
1238.672	137.08
1243.572	132.42
1248.467	135.42
1253.358	129.75
1258.244	127.75
1263.124	127.75
1268	124.42
1272.871	123.42
1277.737	121.08
1282.599	116.75
1287.455	117.42
1292.306	120.75
1297.153	121.08
1301.995	120.75
1306.832	119.75
1311.664	118.42
1316.491	121.42
1321.314	117.08
1326.132	115.42
1330.945	111.75
1335.753	113.08
1340.556	114.75
1345.354	110.75
1350.148	106.42
1354.937	107.08
1359.722	106.42
1364.501	104.08
1369.276	104.75
1374.046	104.08
1378.811	102.75
1383.572	104.75
1388.327	107.08
1393.079	97.42
1397.825	98.42
1402.567	95.42
1407.304	96.08
1412.036	94.75
1416.764	94.75
1421.487	93.42
1426.205	97.75
1430.919	95.08
1435.628	96.75
1440.333	96.75
1445.032	97.08
1449.727	96.75
1454.418	94.08
1459.104	94.42
1463.785	92.08
1468.462	94.42
1473.134	95.75
1477.802	89.75
1482.465	91.08
1487.123	94.08
1491.777	95.08
1496.426	95.42
1501.071	97.75
1505.711	97.75
1510.347	101.42
1514.978	103.42
1519.604	102.75
1524.226	106.42
1528.844	103.08
1533.457	103.42
1538.065	103.42
1542.669	102.08
1547.269	105.08
1551.864	103.42
1556.454	107.08
1561.041	110.42
1565.622	110.75
1570.199	113.08
1574.772	116.42
1579.34	118.08
1583.904	122.42
1588.464	121.42
1593.019	125.42
1597.569	130.75
1602.115	131.75
1606.657	137.42
1611.195	137.75
1615.728	143.08
1620.256	144.75
1624.78	146.75
1629.3	154.42
1633.816	154.75
1638.327	159.75
1642.834	157.08
1647.336	162.75
1651.834	161.08
1656.328	160.75
1660.817	159.75
1665.302	152.42
1669.783	150.75
1674.259	140.75
1678.732	136.75
1683.199	129.08
1687.663	125.08
1692.122	112.08
1696.577	107.75
1701.028	106.42
1705.474	98.42
1709.917	94.08
1714.355	92.42
1718.788	85.42
1723.218	81.42
1727.643	78.42
1732.064	74.08
1736.481	68.42
1740.893	65.08
1745.301	62.42
1749.705	57.75
1754.105	56.42
1758.501	52.42
1762.893	50.42
1767.28	47.42
1771.663	48.08
1776.042	45.42
1780.417	44.08
1784.787	41.75
1789.154	45.08
1793.516	44.75
1797.874	43.75
1802.228	42.42
1806.578	40.08
1810.924	39.08
1815.266	32.42
1819.603	37.75
1823.937	37.42
1828.266	33.42
1832.591	35.42
1836.913	36.08
1841.23	33.08
1845.543	34.42
1849.852	34.75
1854.156	34.42
1858.457	34.42
1862.754	32.75
1867.047	34.42
1871.335	32.42
1875.62	34.42
1879.9	32.42
1884.177	31.08
1888.449	32.75
1892.718	32.42
1896.982	32.75
1901.243	34.42
1905.499	34.42
1909.752	33.08
1914	32.42
1918.245	34.42
1922.485	32.75
1926.722	32.08
1930.954	35.75
1935.183	38.75
1939.408	32.42
1943.628	36.08
1947.845	35.08
1952.058	35.08
1956.267	34.75
1960.472	31.42
1964.673	32.75
1968.87	35.42
1973.063	31.42
1977.252	32.08
1981.438	30.08
1985.619	32.75
1989.797	25.75
1993.971	27.08
1998.14	30.42
2002.306	27.75
2006.469	30.42
2010.627	28.08
2014.781	31.42
2018.932	30.08
2023.078	31.42
2027.221	30.42
2031.36	30.42
2035.495	30.08
2039.627	30.42
2043.754	31.08
2047.878	32.42
2051.998	32.42
2056.114	29.75
2060.226	31.08
2064.334	32.08
2068.439	34.08
2072.54	32.42
2076.637	31.08
2080.73	34.75
2084.82	35.42
2088.906	33.75
2092.988	33.08
2097.066	33.75
2101.14	34.42
2105.211	36.08
2109.278	33.42
2113.342	34.75
2117.401	33.08
2121.457	31.42
2125.509	33.75
2129.558	33.08
2133.602	31.08
2137.643	28.08
2141.681	29.08
2145.714	28.42
2149.744	28.42
2153.77	26.08
2157.793	29.08
2161.812	26.42
2165.827	26.42
2169.838	24.75
2173.846	23.42
2177.851	23.42
2181.851	23.42
2185.848	22.42
2189.841	21.42
2193.831	17.42
2197.817	20.08
2201.799	17.42
2205.778	19.75
2209.753	17.75
2213.725	18.42
2217.693	17.08
2221.657	17.08
2225.618	17.42
2229.575	15.08
2233.529	16.42
2237.479	13.08
2241.425	14.08
2245.368	13.08
2249.307	10.75
2253.243	14.08
2257.175	12.08
2261.104	12.42
2265.029	10.75
2268.95	8.42
2272.868	9.08
2276.783	8.08
2280.694	8.08
2284.601	4.75
2288.505	5.08
2292.405	5.08
2296.302	4.75
2300.195	3.75
2304.085	2.42
2307.971	4.75
2311.854	2.08
2315.734	2.75
2319.609	1.42
2323.482	3.42
2327.351	1.08
2331.216	0.42
2335.078	0.75
2338.937	-0.25
2342.792	-0.58
2346.643	0.42
2350.492	-3.58
2354.336	-2.92
2358.178	-1.92
2362.015	-0.58
2365.85	-2.25
2369.681	-2.58
2373.508	-2.25
2377.333	-3.58
2381.153	0.42
2384.971	-0.58
2388.785	-1.58
2392.595	-3.58
2396.402	-1.25
2400.206	-1.25
2404.007	-6.58
2407.804	-4.58
2411.597	-4.25
2415.388	-2.92
2419.174	-3.58
2422.958	-4.25
2426.738	-2.92
2430.515	-4.92
2434.289	-5.92
2438.059	-3.58
2441.825	-3.58
2445.589	-4.25
2449.349	-4.58
2453.106	-1.58
2456.859	-3.25
2460.61	-6.92
2464.356	-5.25
2468.1	-6.25
2471.84	-7.58
2475.577	-8.92
2479.311	-5.58
2483.041	-6.92
2486.768	-7.25
2490.492	-6.92
2494.213	-6.25
2497.93	-5.92
2501.644	-6.25
2505.355	-5.92
2509.062	-5.92
2512.766	-5.25
2516.467	-7.25
2520.165	-3.58
2523.859	-9.25
2527.551	-8.58
2531.239	-6.92
2534.923	-8.25
2538.605	-6.58
2542.283	-8.58
2545.958	-6.92
2549.63	-8.92
2553.299	-7.92
2556.964	-7.58
2560.626	-6.92
2564.285	-7.25
2567.941	-6.25
2571.594	-8.58
2575.243	-7.25
2578.89	-9.92
2582.533	-10.25
2586.173	-9.58
2589.809	-12.58
2593.443	-10.25
2597.073	-10.25
2600.701	-12.25
2604.325	-13.25
2607.946	-10.92
2611.564	-11.92
2615.178	-8.25
2618.79	-11.25
2622.398	-11.58
2626.004	-8.25
2629.606	-9.58
2633.205	-9.25
2636.801	-8.25
2640.394	-11.58
2643.983	-11.58
2647.57	-14.25
2651.153	-12.25
2654.734	-12.58
2658.311	-12.25
2661.885	-12.92
2665.456	-11.58
2669.025	-9.92
2672.589	-11.58
2676.151	-10.58
2679.71	-9.92
2683.266	-10.25
2686.819	-11.58
2690.368	-8.92
2693.915	-9.58
2697.458	-10.58
2700.999	-10.92
2704.536	-10.92
2708.071	-11.58
2711.602	-13.58
2715.13	-11.92
2718.656	-11.58
2722.178	-10.58
2725.697	-9.92
2729.214	-9.58
2732.727	-8.92
2736.237	-7.92
2739.744	-9.58
2743.249	-7.58
2746.75	-9.25
2750.248	-6.58
2753.743	-9.25
2757.236	-7.58
2760.725	-7.58
2764.211	-10.25
2767.695	-10.58
2771.175	-8.58
2774.652	-10.25
2778.127	-8.25
2781.598	-8.25
2785.067	-8.25
2788.532	-7.25
2791.995	-6.25
2795.455	-7.58
2798.911	-5.92
2802.365	-6.25
2805.816	-6.58
2809.264	-6.58
2812.709	-4.92
2816.151	-6.58
2819.59	-7.25
2823.026	-5.58
2826.46	-6.92
2829.89	-6.25
2833.318	-5.58
2836.742	-6.92
2840.164	-3.25
2843.583	-4.58
2846.999	-1.58
2850.412	-0.58
2853.822	-0.58
2857.229	-1.92
2860.634	2.75
2864.035	2.08
2867.434	4.75
2870.83	2.75
2874.223	5.08
2877.613	0.75
2881	2.42
2884.385	2.42
2887.766	5.42
2891.145	4.42
2894.521	6.08
2897.894	7.08
2901.264	7.75
2904.631	8.08
2907.996	9.42
2911.358	9.75
2914.717	11.42
2918.073	10.08
2921.426	10.75
2924.777	14.08
2928.124	13.42
2931.469	12.42
2934.811	13.75
2938.15	15.75
2941.487	14.75
2944.821	13.42
2948.152	17.08
2951.48	18.08
2954.805	19.75
2958.128	21.08
2961.447	26.08
2964.765	22.75
2968.079	25.08
2971.39	26.42
2974.699	28.75
2978.005	29.75
2981.308	32.75
2984.609	30.75
2987.907	35.08
2991.202	36.08
2994.494	38.08
2997.784	38.75
3001.07	40.42
3004.355	43.08
3007.636	46.08
3010.915	48.42
3014.191	49.75
3017.464	55.42
3020.734	55.75
3024.002	53.75
3027.267	58.42
3030.53	61.08
3033.789	57.75
3037.046	62.08
3040.301	64.08
3043.552	64.42
3046.801	70.08
3050.048	70.75
3053.291	75.08
3056.532	77.42
3059.771	81.42
3063.006	85.08
3066.239	90.42
3069.469	91.75
3072.697	96.42
3075.922	101.75
3079.144	104.75
3082.364	112.08
3085.581	112.75
3088.795	112.75
3092.007	117.42
3095.216	120.75
3098.423	122.42
3101.627	130.42
3104.828	132.08
3108.026	136.08
3111.222	139.08
3114.416	143.42
3117.607	152.75
3120.795	156.42
3123.98	160.75
3127.163	166.08
3130.344	168.75
3133.521	171.42
3136.696	172.75
3139.869	178.42
3143.039	185.42
3146.206	186.42
3149.371	188.08
3152.533	192.42
3155.693	193.08
3158.85	192.42
3162.005	193.75
3165.157	198.75
3168.306	199.42
3171.453	201.08
3174.597	198.75
3177.739	203.08
3180.878	205.42
3184.014	200.42
3187.149	205.75
3190.28	203.42
3193.409	206.08
3196.536	209.42
3199.659	207.42
3202.781	210.75
3205.9	207.08
3209.016	213.08
3212.13	208.75
3215.241	208.42
3218.35	207.75
3221.456	205.08
3224.56	202.08
3227.661	201.75
3230.76	205.42
3233.856	201.42
3236.95	198.42
3240.041	199.08
3243.13	202.75
3246.216	196.75
3249.3	193.42
3252.382	193.08
3255.46	198.75
3258.537	193.42
3261.611	197.08
3264.682	194.75
3267.751	191.42
3270.818	197.75
3273.882	194.42
3276.943	188.42
3280.002	191.75
3283.059	189.08
3286.113	188.08
3289.165	182.42
3292.214	179.42
3295.261	176.42
3298.306	176.75
3301.348	173.42
3304.387	166.42
3307.425	166.75
3310.459	169.75
3313.492	162.75
3316.521	162.75
3319.549	160.75
3322.574	157.42
3325.597	160.08
3328.617	153.08
3331.635	155.08
3334.65	148.42
3337.663	154.08
3340.674	153.75
3343.682	156.08
3346.688	152.75
3349.691	151.42
3352.692	152.08
3355.691	152.75
3358.687	151.75
3361.681	150.42
3364.673	146.75
3367.662	145.42
3370.649	143.42
3373.633	143.75
3376.615	140.75
3379.595	139.08
3382.572	138.75
3385.547	139.42
3388.52	134.42
3391.49	129.75
3394.458	132.75
3397.424	128.42
3400.387	128.75
3403.348	132.42
3406.307	130.75
3409.263	125.08
3412.217	121.75
3415.168	120.42
3418.118	123.42
3421.065	120.75
3424.009	116.75
3426.951	116.08
3429.891	113.42
3432.829	111.42
3435.764	111.75
3438.697	108.42
3441.628	103.75
3444.557	103.08
3447.483	101.75
3450.407	96.42
3453.328	97.42
3456.247	96.08
3459.164	90.08
3462.079	87.75
3464.991	84.08
3467.902	84.08
3470.809	83.08
3473.715	76.08
3476.618	77.75
3479.519	73.42
3482.418	72.08
3485.315	68.75
3488.209	68.08
3491.101	65.08
3493.99	62.42
3496.878	61.42
3499.763	58.42
3502.646	58.08
3505.527	58.08
3508.405	55.75
3511.281	53.08
3514.155	52.42
3517.027	45.42
3519.897	43.08
3522.764	43.42
3525.629	40.08
3528.492	35.42
3531.352	35.75
3534.211	33.75
3537.067	29.42
3539.921	30.75
3542.773	27.75
3545.622	25.42
3548.469	23.42
3551.315	23.08
3554.157	20.75
3556.998	18.42
3559.837	19.42
3562.673	17.08
3565.507	15.08
3568.339	14.75
3571.169	11.42
3573.996	10.08
3576.822	11.08
3579.645	10.08
3582.466	9.42
3585.285	5.75
3588.101	5.08
3590.916	6.08
3593.728	3.75
3596.538	2.08
3599.346	1.08
3602.152	1.08
3604.956	-0.25
3607.757	1.75
3610.556	-1.92
3613.354	-3.58
3616.149	-3.58
3618.942	-5.25
3621.732	-5.92
3624.521	-6.25
3627.307	-6.92
3630.092	-8.58
3632.874	-7.92
3635.654	-8.25
3638.432	-8.92
3641.208	-9.25
3643.982	-9.25
3646.753	-10.92
3649.523	-11.58
3652.29	-9.25
3655.055	-10.92
3657.818	-12.92
3660.579	-14.25
3663.338	-13.92
3666.095	-15.58
3668.849	-14.92
3671.602	-16.58
3674.352	-16.25
3677.101	-15.92
3679.847	-16.92
3682.591	-16.58
3685.333	-19.25
3688.073	-16.58
3690.811	-17.92
3693.547	-16.92
3696.281	-16.92
3699.013	-18.58
3701.742	-18.58
3704.47	-18.58
3707.195	-16.25
3709.919	-16.92
3712.64	-18.25
3715.359	-18.25
3718.076	-18.92
3720.792	-19.58
3723.505	-20.58
3726.216	-21.92
3728.925	-21.25
3731.632	-21.58
3734.336	-18.92
3737.039	-20.92
3739.74	-19.25
3742.439	-18.58
3745.136	-19.58
3747.83	-20.25
3750.523	-20.92
3753.213	-17.92
3755.902	-20.92
3758.589	-21.92
3761.273	-19.92
3763.956	-22.92
3766.636	-21.58
3769.315	-20.58
3771.991	-22.92
3774.665	-23.92
3777.338	-21.92
3780.008	-20.58
3782.677	-21.25
3785.343	-20.25
3788.007	-23.25
3790.67	-22.58
3793.33	-21.25
3795.989	-21.25
3798.645	-20.92
3801.299	-23.25
3803.952	-21.58
3806.602	-24.92
3809.251	-23.58
3811.897	-23.25
3814.542	-26.25
3817.184	-25.25
3819.825	-22.25
3822.463	-24.25
3825.1	-22.25
3827.735	-23.25
3830.367	-21.25
3832.998	-22.92
3835.627	-22.25
3838.253	-22.58
3840.878	-23.92
3843.501	-25.25
3846.122	-24.92
3848.741	-22.92
3851.358	-24.92
3853.973	-26.92
3856.586	-25.58
3859.197	-22.58
3861.806	-23.92
3864.414	-24.25
3867.019	-23.58
3869.622	-23.25
3872.224	-22.58
3874.823	-18.92
3877.421	-19.58
3880.016	-16.58
3882.61	-14.58
3885.202	-14.25
3887.792	-14.25
3890.38	-17.58
3892.966	-20.58
3895.55	-23.58
3898.132	-24.58
3900.713	-22.58
3903.291	-25.25
3905.868	-25.92
3908.442	-22.92
3911.015	-23.25
3913.586	-23.92
3916.155	-22.25
3918.722	-22.92
3921.287	-22.25
3923.85	-23.58
3926.411	-22.58
3928.971	-22.58
3931.528	-23.92
3934.084	-23.92
3936.638	-22.58
3939.19	-22.92
3941.74	-22.92
3944.288	-24.25
3946.834	-23.92
3949.378	-22.92
3951.921	-22.92
3954.462	-23.25
3957	-20.25
3959.537	-22.92
3962.072	-23.25
3964.606	-21.25
3967.137	-23.25
3969.667	-23.58
3972.194	-22.92
3974.72	-23.92
3977.244	-22.92
3979.766	-22.92
3982.286	-25.58
3984.805	-23.92
3987.321	-25.25
3989.836	-23.58
3992.349	-26.92
3994.86	-22.58
3997.369	-21.25
3999.877	-23.92
4002.382	-24.58
4004.886	-24.92
4007.388	-23.25
4009.888	-23.92
4012.386	-24.92
4014.883	-23.92
4017.377	-24.92
4019.87	-26.58
4022.361	-24.25
4024.85	-24.25
4027.338	-26.25
4029.823	-26.58
4032.307	-24.92
4034.789	-23.58
4037.269	-24.92
4039.747	-23.92
4042.224	-23.58
4044.699	-23.92
4047.172	-23.58
4049.643	-23.92
4052.112	-22.58
4054.58	-21.92
4057.046	-25.58
4059.51	-23.92
4061.972	-25.92
4064.432	-24.58
4066.891	-24.25
4069.348	-22.58
4071.803	-22.92
4074.256	-22.25
4076.708	-24.92
4079.158	-20.92
4081.606	-20.92
4084.052	-21.92
4086.497	-23.25
4088.939	-20.92
4091.38	-22.58
4093.819	-20.92
4096.257	-22.92
4098.693	-22.92
4101.127	-23.25
4103.559	-22.58
4105.989	-10.92
4108.418	-9.92
4110.845	-10.92
4113.27	-10.58
4115.694	-7.92
4118.115	-7.58
4120.535	-24.25
4122.954	-21.92
4125.37	-23.58
4127.785	-24.58
4130.198	-25.25
4132.609	-24.25
4135.019	-23.58
4137.427	-25.58
4139.833	-23.58
4142.237	-23.58
