##TITLE=AAI0552
##FORMAT=SPECTACLE-ASCII V-1.2
##DATA TYPE=ULTRAVIOLET SPECTRUM
##SECOND TYPE=ULTRAVIOLET SPECTRUM
##DATE=10/24/17
##TIME=16:26:51
##SPECTROMETER/DATA SYSTEM=SPECTACLE
##XUNITS=NM EM
##YUNITS=ENERGY
##YFACTOR=1
##FIRSTX=220
##LASTX=410
##NPOINTS=96
##3DDATA=Equidistant
##ZUNITS=NM EX
##FIRSTZ=210
##LASTZ=400
##ZPOINTS=39
##XYDATA=(Y..Y)
##ZVALUE=210
3.055930
3.260970
3.249645
3.711581
3.182888
3.539920
3.658533
3.587604
3.008842
2.935529
2.647638
2.489686
2.575517
2.835989
2.729893
3.064871
2.706647
3.517866
3.537536
3.682971
4.081726
3.375411
4.141927
4.390478
3.945827
4.490614
4.886985
5.175471
4.082918
4.937649
5.224943
5.083680
5.029440
5.942583
5.347729
5.815625
5.998611
6.183982
5.515814
6.457567
5.832911
6.578565
6.280541
6.108880
6.385446
5.911589
6.990433
7.023811
7.114410
6.251931
6.540418
6.707907
6.449819
6.835461
7.180572
6.471872
7.722974
6.814599
6.642938
7.242560
6.569624
7.749796
7.186532
7.567406
7.529855
9.029508
8.709431
9.543896
10.537505
12.380481
14.128685
15.086532
17.493963
19.609928
22.027493
22.614598
23.553967
21.985769
23.657680
19.857883
19.650459
17.389655
15.096664
12.108684
12.696981
11.076927
9.019971
8.051991
7.052422
8.290410
7.193685
7.751584
7.771850
7.594824
7.131696
7.205606
##ZVALUE=215
9.997487
8.738637
8.804798
7.489920
6.676912
6.245971
6.087422
5.706549
6.167889
6.420612
5.819798
6.260872
4.774928
3.865957
3.334880
3.723502
3.070831
3.049970
3.736615
4.159808
4.455447
4.559755
3.823638
4.773736
4.304647
4.994869
4.606843
5.312562
5.631447
4.456639
5.283952
4.888773
5.596876
5.134940
5.567670
6.535649
5.728602
6.275773
5.338788
6.218553
6.820560
6.287694
6.582737
6.721616
6.420612
6.742477
7.357597
6.595850
6.473660
6.626844
6.946921
7.704496
7.252693
8.128881
7.634759
7.568598
7.791519
7.436872
6.989837
7.266998
7.622838
7.268786
9.373426
7.757545
7.578731
7.525682
9.659529
8.516908
9.385943
11.373758
13.172626
15.150905
15.914440
18.237829
19.656420
20.309687
22.419691
21.110773
19.383430
18.416643
17.045736
15.221834
13.326406
11.640787
11.509657
8.726716
9.161830
7.949471
7.820725
6.270409
7.922649
7.287860
6.486773
6.807446
6.639957
7.127523
##ZVALUE=220
26.993752
27.219653
31.080842
32.994747
29.589534
23.651719
19.354820
15.271902
13.340712
11.797547
13.357997
14.006495
12.982488
11.986494
10.993481
8.160472
6.077886
5.480647
4.782677
4.400611
4.553795
4.579425
4.998446
4.505515
5.033612
5.218983
5.131960
5.324483
5.373955
5.659461
5.266666
4.934669
5.526543
6.619692
6.685853
6.680489
6.018877
6.598830
6.448627
7.017851
6.894469
6.607771
6.763935
6.798506
7.506609
7.193685
7.339716
7.340908
6.921887
7.316470
7.085800
7.915497
7.669926
8.230805
8.181930
8.256435
7.429719
7.935762
7.403493
7.387996
8.836985
8.138418
8.513927
7.418990
7.959604
8.189678
9.501576
9.505749
10.551810
10.636449
13.351440
14.517903
16.164780
18.500686
18.562675
20.258427
20.728707
19.600987
20.586848
19.523501
17.477870
16.819835
14.587641
14.644861
12.899637
10.006428
8.647442
8.266568
8.042455
7.374883
7.756948
7.443428
7.667542
6.987453
7.266998
6.210804
##ZVALUE=225
45.124888
48.472881
64.377785
83.243847
89.523792
88.984966
84.821582
70.487857
55.618882
43.148994
29.961467
25.402904
26.999712
27.425885
27.602911
26.132464
23.649931
17.324686
13.175607
9.897947
7.910728
5.737543
5.510449
4.552603
5.328655
5.628467
6.217957
5.591512
6.269813
6.015897
6.309748
5.821586
6.740689
5.905628
6.975532
6.820560
6.034970
7.706881
7.552505
7.857680
8.427501
7.274747
7.242560
7.393956
7.946491
8.242726
8.050799
8.107424
8.054972
8.179545
8.193851
9.167790
8.141994
7.925630
9.806752
8.250475
8.601546
9.087920
9.131432
9.246469
9.542704
9.488463
9.354949
9.891987
9.269714
10.243654
10.703802
8.875728
10.889769
12.730956
14.607906
15.493631
17.623901
18.880963
20.176768
20.581484
20.882487
20.294785
19.524693
17.895699
17.230511
15.202761
13.191700
14.213920
11.340976
10.958910
9.713769
10.654926
8.399487
8.797646
8.926988
8.292794
7.902980
8.336902
8.202791
8.879900
##ZVALUE=230
38.987994
41.644573
68.681836
121.354461
168.214440
212.523937
234.099627
242.690444
225.443840
186.855793
131.851435
95.358491
58.903694
48.368573
47.834516
49.496889
51.521659
52.071810
46.464801
38.434863
29.639602
20.866990
14.685988
9.853840
7.551908
7.373691
6.665587
5.561709
6.325841
6.034970
7.240772
7.391572
6.781816
7.049441
7.763505
7.394552
7.084608
7.808805
8.359551
7.867813
7.817745
9.112954
8.647442
8.202791
8.388758
8.253455
8.928776
9.278655
9.068847
8.623600
9.759665
10.096431
10.258555
9.986758
9.233952
9.996891
9.550452
9.597540
9.853840
10.325909
10.122657
10.297894
10.632873
11.114478
11.256933
12.041926
11.214614
13.594627
12.707710
13.466477
14.910698
19.283891
20.051599
21.448731
22.201538
22.623539
21.903515
21.832585
19.814968
20.830631
18.621683
16.027689
15.773773
13.932586
13.591647
12.393594
11.858940
11.011958
10.315776
10.776520
10.656714
10.381937
9.773970
9.515882
9.945631
10.601878
##ZVALUE=235
12.716651
12.455583
36.374927
71.890950
139.404535
208.304524
314.587951
399.177670
460.241437
468.711853
410.413742
344.632864
253.247023
160.851479
115.572810
81.135631
76.776743
76.476932
83.670616
81.680417
80.530643
67.300797
52.751899
39.303899
25.961995
17.751455
12.174845
8.012652
8.093715
8.165836
7.367730
8.777976
8.311868
7.671714
9.643435
7.661581
7.983446
7.936954
8.704662
8.504987
7.963777
9.748936
8.646846
8.902550
8.651614
8.830428
8.830428
8.650422
10.052919
9.828806
8.843541
8.504987
8.872747
9.676814
11.152625
9.332895
9.017587
10.416508
10.913610
9.626746
10.778904
11.492968
11.282563
11.458993
12.235641
12.100935
12.421608
13.824701
13.842583
15.946627
17.210841
18.009543
21.102428
21.563768
23.761988
22.578835
23.265481
22.242665
22.708774
20.863414
19.264817
19.466877
18.163919
15.733838
14.777780
13.575554
12.550950
12.357831
11.875629
12.257695
12.900829
13.666749
11.908412
12.186766
11.968613
11.807680
##ZVALUE=240
2.158880
2.702475
4.735589
16.368628
41.656494
96.480846
177.637935
318.600535
444.039702
568.685532
674.505830
703.729987
638.301969
542.418957
401.069522
276.935697
171.768665
123.838782
95.723867
97.453594
105.803609
114.707947
117.291808
101.863742
87.294579
65.710545
48.082471
31.109452
23.995638
15.355945
11.223555
9.491444
9.565949
9.430647
9.448528
9.375811
8.605719
8.584857
8.405447
8.610487
9.297729
8.803606
8.594990
9.354949
9.758472
9.573698
8.656979
10.533929
10.043979
9.354949
9.527802
9.572506
10.039806
9.657741
10.321736
10.074973
9.282827
11.463761
10.533929
12.788773
11.263490
12.635589
11.592507
12.323856
12.711883
12.543797
13.237000
14.112592
14.342666
15.997887
16.595721
18.744469
20.891428
22.251606
24.214983
23.628473
23.824573
24.092793
22.340417
21.067858
20.214915
18.884540
16.488433
16.925931
15.935898
15.533566
15.765429
15.145540
13.721585
13.759732
13.281703
13.017654
14.165640
13.843775
13.912916
12.885928
##ZVALUE=245
2.242923
1.963973
2.238750
1.722574
4.159808
11.749864
37.071705
78.900456
184.415579
299.528837
494.747758
631.174445
747.447014
807.473660
786.286592
672.428012
553.194880
375.963449
262.684822
154.822469
114.336610
102.834702
111.987591
121.751428
129.678845
127.770901
111.797452
98.179579
71.591735
54.768920
39.149523
25.249720
16.551614
10.744929
9.531975
9.047985
8.377433
8.517504
9.142756
8.972883
8.257627
8.085966
8.201599
8.180737
7.861853
8.638501
8.899570
7.735491
8.007884
8.344650
8.692741
9.190440
8.670688
9.121895
9.238720
9.350777
9.416938
9.794831
9.714961
10.935664
9.122491
10.298491
10.930896
10.914803
11.542439
11.223555
12.676716
13.316870
12.420416
14.649630
16.264915
16.927719
17.866492
18.609762
20.541549
18.964410
19.349456
18.194914
19.239783
17.992854
17.853975
15.867949
15.683770
15.364885
13.569593
13.548732
14.244914
12.884736
13.818741
12.513995
12.344718
12.800694
12.860894
13.060570
12.908578
12.780428
##ZVALUE=250
1.911521
1.681447
1.964569
1.975894
2.202988
2.043843
2.782941
7.375479
29.585958
63.087940
165.144801
291.509628
450.709462
685.598850
873.704553
1015.797853
1015.797853
1009.859443
883.391500
647.357702
436.882973
279.357433
144.974589
106.051564
103.827715
117.641687
132.868886
138.946772
136.334896
123.696923
103.222728
80.796480
60.699582
36.796927
26.126504
14.926791
11.545420
7.874966
8.747578
8.462667
7.753968
7.387996
7.674694
7.410645
7.687807
6.927848
7.710457
7.832646
7.547736
8.104444
7.969737
7.135868
7.818937
8.855462
8.047819
8.354783
8.158684
8.623600
9.566545
8.408427
8.436441
8.140802
8.522868
8.464456
9.696484
9.434819
9.990931
10.897517
10.613799
12.776852
13.697743
15.423894
16.125441
16.523600
17.865896
17.919540
16.523600
17.005801
16.508698
14.949441
14.660954
13.955832
13.485551
12.456775
12.682676
11.694431
11.372566
11.326671
10.686517
10.508895
11.061430
11.417866
11.761785
11.343956
12.264848
11.920929
##ZVALUE=255
1.402497
1.187921
1.529455
1.388788
1.459718
1.554489
1.794696
2.270937
2.554655
3.801584
17.535686
46.867728
126.566887
227.873921
424.428582
639.096498
935.319662
1015.793681
1015.793681
1015.793681
1015.793681
820.195675
585.281849
327.682495
195.255876
108.724833
92.684627
105.116963
121.434927
137.819648
146.206617
140.407681
128.268003
104.898810
83.871484
57.720542
38.484931
23.443699
15.692711
9.009838
7.502437
6.988645
7.131696
7.163882
6.926656
6.910563
6.519556
6.742477
6.918907
6.914735
7.469654
7.429719
7.229447
6.728768
6.644726
7.111430
7.867813
7.259846
7.411838
7.538795
8.087754
8.166432
7.677674
8.427501
7.928610
7.595420
8.569956
8.357763
8.519888
10.966659
11.345744
11.851788
12.706518
14.454722
14.617443
14.324784
14.312863
12.990832
12.871623
13.043880
11.400580
11.501908
10.885000
11.144876
10.380745
10.473728
9.973645
10.443926
9.622574
10.730624
9.046793
9.153485
9.861588
9.320974
9.961724
8.749962
##ZVALUE=260
1.325607
1.301765
1.684427
1.500845
1.287460
1.819730
1.725554
1.548529
1.658797
1.889467
2.317429
3.068447
9.191632
37.353635
82.369447
195.246935
331.625938
578.517914
792.132616
1015.793681
1015.793681
1015.793681
1015.793681
990.247726
689.156651
475.561619
266.601443
159.564614
89.581609
84.757805
101.336837
120.297670
144.267678
151.280761
146.368742
131.395459
107.787848
86.554885
57.572722
40.828586
23.220778
15.545487
9.323955
7.452965
6.465912
6.354451
6.653666
6.319880
6.262660
5.890727
6.231666
6.333590
6.569624
7.096529
6.660819
6.455779
6.197691
5.931854
5.796552
6.519556
6.494522
6.414652
6.590486
6.422997
7.109642
6.769896
7.335544
7.785559
8.483529
8.513927
9.190440
9.808540
10.563731
11.266470
11.528730
11.261702
10.962486
10.980964
10.461807
10.338426
9.543896
9.669662
9.266734
8.963943
8.809566
8.789897
8.099675
8.402467
7.983446
8.314848
7.776618
7.996559
8.505583
8.126497
8.072853
7.828474
##ZVALUE=265
1.270771
1.012683
1.274943
1.319647
1.402497
1.545548
1.337528
1.354814
1.640916
1.672506
1.787543
1.775622
1.981854
1.938939
4.296899
22.790432
58.098435
152.851939
269.645452
508.337617
727.424622
936.902761
1015.793681
1015.793681
1015.793681
1012.855768
775.756836
567.325950
326.384902
197.080970
116.858482
75.698495
77.673793
108.801723
128.714442
146.429539
153.346658
146.210790
133.952498
106.833577
84.435940
58.844686
38.626790
22.774935
14.132857
8.057952
6.445646
6.479621
5.348921
5.747676
5.511642
5.642772
5.921721
5.886555
6.153584
5.736947
6.352663
5.741715
5.644560
5.629659
5.747676
5.707741
6.093979
6.326437
5.846620
6.087422
6.340742
6.532669
6.698966
7.359982
7.690787
8.080602
8.464456
8.962750
9.754896
9.079576
9.314418
9.078979
8.605719
8.195639
7.585883
8.065701
7.504821
7.958412
7.011890
7.271767
7.407665
6.854534
7.155538
7.180572
7.167459
7.027984
7.378459
6.969571
6.782413
7.304549
##ZVALUE=270
1.108646
1.008511
1.011491
0.992417
1.110435
1.090765
1.071692
1.297593
1.270771
1.453757
1.489520
1.513958
1.382828
1.490712
1.557469
1.686811
2.354980
10.400414
33.424497
110.908747
216.618776
368.436575
663.251877
914.070010
1015.793681
1015.793681
1015.793681
1015.793681
949.204564
737.414956
457.906723
284.274817
162.421465
77.786446
62.353611
81.641674
102.692842
130.368471
145.680904
152.008533
148.755908
130.549669
111.572742
82.184672
58.599710
37.106872
24.818778
13.746619
9.288788
6.483793
6.014705
5.732775
5.349517
5.699992
5.529523
5.154610
5.398989
5.566478
5.449653
5.794764
6.235838
5.638599
5.410910
5.477667
5.548596
5.782843
5.735755
5.855560
6.288886
7.003546
6.995797
8.007884
7.864833
8.294582
8.482933
8.489490
8.444786
8.142591
7.947683
7.737875
6.983876
6.812811
7.252693
6.234646
6.083846
6.356835
6.157756
6.579757
6.302595
6.306767
6.632805
5.993843
6.286502
6.168485
6.097555
5.642772
##ZVALUE=275
0.994802
0.831485
0.903606
0.905991
1.067519
0.959635
0.902414
1.051426
1.346469
1.320839
1.386404
1.296997
1.243949
1.385808
1.705885
1.434684
1.655817
1.764894
2.123713
4.647970
19.154549
58.385730
181.219578
331.198573
623.780489
854.767561
1015.793681
1015.793681
1015.793681
1015.793681
1015.793681
944.604874
696.575642
383.265018
224.683881
99.874735
60.085654
57.988763
74.831843
102.425814
124.623775
144.174695
147.923827
146.346688
131.769776
104.337931
86.182952
59.728622
42.047501
23.557544
14.906526
9.159446
6.953478
5.575418
5.490780
5.235672
5.288720
5.473495
5.284548
5.073547
6.034970
5.560517
5.323887
5.671978
5.499721
5.685687
5.775690
5.836487
5.884767
6.344914
6.771684
7.487535
7.482767
7.986426
8.211732
7.658601
7.783771
7.588863
7.272959
6.896853
7.000566
6.600618
6.418824
6.123781
6.046891
6.119609
6.071925
5.647540
5.956888
5.870461
5.911589
5.772710
5.651712
6.026626
6.035566
5.603433
##ZVALUE=280
0.871420
0.939965
0.742674
0.864863
0.882745
0.898838
0.743866
1.093745
1.192689
1.138449
1.218915
0.974536
1.210570
1.179576
1.447797
1.374483
1.212955
1.461506
1.658797
1.803637
2.033710
2.279878
12.210608
44.010878
148.406625
276.772976
523.443818
763.351917
1015.793681
1015.793681
1015.793681
1015.793681
1015.793681
1013.469696
812.086463
480.279922
292.904973
134.888887
68.816543
43.430924
51.757693
76.875687
98.209977
123.686790
138.504505
148.118734
143.116713
126.226544
109.671950
81.627965
59.914589
38.328767
25.933981
14.241934
9.438992
6.437898
6.097555
5.416870
5.252957
5.620718
5.711913
5.374551
5.616546
5.426407
5.171895
5.453825
5.187988
5.631447
5.918741
5.942583
6.514788
7.138848
7.383823
7.328987
7.260442
7.748604
6.921887
7.007718
7.183552
6.419420
6.373525
5.890727
6.337762
5.480647
5.536675
5.415678
5.688667
5.761981
5.752444
5.389452
5.569458
4.990697
5.156994
4.894733
5.631447
5.347729
##ZVALUE=285
0.889897
0.886917
0.794530
0.923872
0.726581
0.908971
1.009703
0.836849
0.925660
0.922680
0.998974
1.040697
1.198649
1.025796
1.256466
1.255870
1.254678
1.218915
1.201630
1.462698
1.626611
1.802444
2.123713
2.296567
6.058812
21.245480
83.606839
184.587836
403.273702
626.204610
895.090699
1015.789509
1015.789509
1015.789509
1015.789509
1015.789509
979.610682
645.827651
415.322781
205.998421
106.916428
44.774413
35.875440
52.156448
70.837736
99.771619
118.028522
136.344433
144.749880
140.492916
128.709674
107.574463
87.215900
60.568452
41.943789
23.964643
14.921427
9.076595
6.772876
5.683899
5.382895
5.137920
5.142689
5.355477
5.439520
5.323887
5.423427
5.343556
5.895495
5.828738
6.433725
6.381869
7.003546
6.992817
6.878972
7.162690
6.743670
6.584525
6.211996
6.357431
5.710721
5.887747
5.538464
5.499721
5.228519
5.309582
5.266666
4.782677
5.222559
4.957914
4.896522
4.892945
5.107522
4.848838
4.918575
5.011559
##ZVALUE=290
0.749826
0.801682
0.809431
0.549555
0.697970
0.874996
0.705719
0.766516
0.903606
0.877976
0.983477
0.970960
1.174808
0.945926
1.014471
1.003742
1.065731
1.243949
1.124740
1.496673
1.332760
1.332760
1.662970
1.865625
1.828671
2.229810
2.837777
7.596612
40.849447
106.788874
221.917629
478.091836
740.377903
1015.795469
1015.795469
1015.795469
1015.795469
1015.795469
1015.795469
798.354745
543.566942
285.122991
155.693889
60.044527
31.286478
33.358932
46.520829
69.027543
87.072849
113.284588
130.118728
139.885545
138.764977
126.462579
107.695460
80.225468
59.408545
38.366914
25.832653
14.974475
10.451674
7.111430
5.826950
5.393624
5.525947
4.992485
5.241632
5.454421
5.520582
6.019473
6.078482
6.465912
6.465912
6.361604
6.676912
6.739497
6.406903
5.794764
6.049871
5.668998
5.698800
5.433559
5.233884
5.295873
5.222559
4.934669
4.761815
4.992485
4.968643
4.930496
4.667640
4.756451
4.333854
4.493594
4.681945
4.427433
##ZVALUE=295
0.755787
0.746846
0.683665
0.636578
0.900626
0.798702
0.732541
0.812411
0.936985
0.919700
0.938773
0.963807
0.866652
0.895858
0.796914
0.879765
0.877976
1.066923
1.174808
1.115799
1.114607
1.218915
1.242757
1.443624
1.677871
1.655817
1.768470
1.902580
2.406836
3.784895
19.720793
61.960816
155.101418
383.427739
630.496740
991.473794
1015.794873
1015.794873
1015.794873
1015.794873
1015.794873
952.080488
675.945878
364.640951
209.404826
80.791712
37.183762
22.217631
27.805567
43.216944
61.026812
87.196827
105.672479
124.793649
133.602619
132.026672
121.037960
98.637938
81.167817
56.251884
40.582418
23.818612
15.757680
9.617805
6.978512
5.785823
5.698800
5.403757
5.690455
5.224943
5.891919
5.997419
6.456971
6.461740
6.408691
6.443858
6.160736
5.891919
5.678535
5.374551
5.233884
4.972816
5.052686
4.733801
4.680753
4.755855
4.543662
4.696846
4.694462
4.679561
4.244447
4.866719
4.620552
4.718900
4.718900
4.365444
##ZVALUE=300
0.610948
0.619888
0.549555
0.586510
0.612736
0.655651
0.820756
0.760555
0.694990
0.700951
0.707507
0.803471
0.537634
0.934601
0.834465
0.823736
0.714660
0.903606
0.900626
1.019835
1.069903
1.141429
1.262426
1.130700
1.305938
1.228452
1.298785
1.775622
1.741648
1.892447
2.112985
2.720952
5.927682
37.309527
99.446774
273.538828
474.232435
838.647485
1015.794873
1015.794873
1015.794873
1015.794873
1015.794873
1015.794873
829.809904
491.886735
302.230716
140.868425
65.410733
22.566915
17.176867
26.479959
37.769675
56.928992
75.357556
100.630522
116.028786
125.306845
124.929547
114.351511
100.223422
75.855851
58.362484
38.964748
26.897788
15.268922
10.257959
7.038713
5.961657
5.960464
5.393624
5.705953
5.778670
6.258488
5.854964
5.766749
5.753636
5.537868
5.377531
5.473495
5.163550
5.001426
4.873872
4.846454
4.835725
4.675984
4.777908
4.454851
4.661679
4.486442
4.298687
4.206896
4.132986
4.253983
4.102588
4.188418
##ZVALUE=305
0.598431
0.579953
0.580549
0.578761
0.768900
0.723600
0.610948
0.496507
0.663996
0.568628
0.817776
0.710487
0.652671
0.693798
0.658631
0.683665
0.801682
0.769496
0.822544
1.079440
1.041889
0.960827
0.906587
1.029968
1.233816
1.344681
1.382828
1.353621
1.301765
1.471639
1.464486
1.994967
1.956820
2.283454
3.570914
20.736456
62.275529
181.213617
335.461497
630.265474
903.438926
1015.807986
1015.807986
1015.807986
1015.807986
1015.807986
974.262953
640.562773
407.918692
190.325975
95.270872
30.755401
15.503764
16.798973
23.071766
37.304759
53.316951
75.780749
92.909932
112.024546
119.601488
117.981434
110.684633
93.937516
76.180696
53.406954
38.611889
23.712516
16.670823
9.874701
7.366538
6.318688
6.060600
5.989671
5.868673
5.607605
5.470514
4.952550
5.137920
4.910827
4.699826
4.822612
4.818439
4.818439
4.971623
4.409552
4.649758
4.713535
4.383922
4.269481
4.187822
4.594922
4.514456
3.988743
4.168749
4.369617
##ZVALUE=310
0.603795
0.555515
0.620484
0.577569
0.540614
0.602603
0.592470
0.461936
0.589490
0.555515
0.497699
0.704527
0.510812
0.626445
0.633597
0.617504
0.672936
0.730753
0.729561
0.977516
1.053810
1.043677
0.791550
0.794530
0.815988
0.843406
1.067519
1.137853
1.271963
1.211762
1.251698
1.424551
1.666546
1.653433
1.661777
2.168417
2.408624
8.832812
30.482411
109.411478
222.224593
471.586585
737.756491
1015.821695
1015.821695
1015.821695
1015.821695
1015.821695
1015.821695
871.936679
594.491959
309.157968
167.864561
58.426857
23.424625
12.277961
14.198422
22.210479
31.126738
49.734712
65.111518
87.643862
102.012753
111.595988
112.696886
105.238557
93.352795
72.425604
56.378841
36.673546
25.884509
16.310811
10.757446
7.746816
6.457567
5.618930
5.425811
5.370975
4.945993
4.781485
4.714727
4.596710
4.668832
4.640818
4.566908
4.626513
4.475713
4.436970
4.613996
4.267693
4.291534
4.326701
4.216433
4.230738
4.028678
4.369617
##ZVALUE=315
0.429749
0.510812
0.481606
0.475645
0.406504
0.566840
0.593662
0.552535
0.580549
0.639558
0.546575
0.468493
0.415444
0.599623
0.661612
0.693798
0.572801
0.653863
0.596642
0.825524
0.645518
0.670552
0.846982
0.761747
0.691414
0.839829
0.953674
0.946522
1.006722
0.934601
1.155734
1.105666
1.239777
1.252890
1.337528
1.309514
1.712441
1.786947
1.831651
4.102588
15.254617
67.354441
154.081583
362.524986
602.536798
984.531641
1015.781760
1015.781760
1015.781760
1015.781760
1015.781760
987.360477
729.810596
403.360724
223.719478
83.933473
33.424497
12.189746
9.779930
13.494492
18.800497
30.899644
42.786002
61.620474
77.658892
96.094608
103.884935
106.654763
100.973845
85.331798
70.782900
51.756501
38.369894
22.963881
16.196966
9.399652
7.357597
5.515814
4.873872
4.653931
4.361868
4.659891
4.378557
4.395843
4.328489
4.260540
4.249811
4.617572
4.608631
4.477501
4.253983
4.237890
4.052520
4.037619
3.948808
3.870726
##ZVALUE=320
0.416636
0.604987
0.379682
0.565648
0.510812
0.490546
0.464916
0.552535
0.640750
0.434518
0.527501
0.579953
0.520945
0.427961
0.704527
0.602603
0.630617
0.758767
0.593662
0.778437
0.758767
0.558496
0.563860
0.846982
0.870824
0.880957
0.927448
0.872612
1.036525
0.738502
0.880957
1.113415
1.219511
0.960827
1.233816
1.187921
1.294613
1.383424
1.467466
1.647472
1.845956
2.549887
6.974936
38.243532
103.375912
280.553699
475.004911
810.028911
1015.791893
1015.791893
1015.791893
1015.791893
1015.791893
1015.791893
914.971828
531.816483
313.420892
137.485862
59.326887
16.820431
9.341836
9.421706
11.273623
17.061830
25.094748
41.106939
54.526925
73.583722
87.186694
98.254681
101.172924
94.292760
84.902644
66.189766
51.335692
33.767819
23.814440
14.775991
10.058880
6.335974
5.257726
4.711747
4.485846
4.628897
4.354715
4.450679
4.122853
4.211664
4.497766
4.248619
4.124641
4.158616
4.051924
4.139543
4.133582
3.897548
##ZVALUE=325
0.362992
0.348687
0.494719
0.546575
0.469685
0.511408
0.502467
0.652671
0.492930
0.606775
0.510812
0.579953
0.486970
0.727773
0.479817
0.542998
0.534654
0.591874
0.498891
0.688434
0.725985
0.654459
0.730753
0.452995
0.757575
0.616908
0.557899
0.668764
0.810623
0.873804
0.718832
0.942945
0.877976
1.113415
0.866652
1.056790
1.148582
1.216531
1.163483
1.320839
1.492500
1.671910
1.859665
2.082586
5.050898
20.398498
83.683729
180.230737
404.073596
656.222701
1011.464596
1015.790701
1015.790701
1015.790701
1015.790701
1015.790701
958.936810
680.691004
372.380614
211.119652
78.647733
32.378435
10.606647
8.072853
8.393526
10.589957
16.343594
24.103522
40.237904
53.358674
73.257685
83.808899
93.865991
95.497966
89.856982
79.086423
62.485933
47.963858
31.229854
21.530986
12.767911
8.935928
6.233454
5.272627
4.689693
4.432797
3.729463
4.061460
4.188418
3.935695
3.928542
4.018545
3.887415
3.600717
3.781915
3.859997
##ZVALUE=330
0.463724
0.408888
0.471473
0.284910
0.387430
0.495911
0.435710
0.484586
0.414848
0.457764
0.456572
0.493526
0.535846
0.531673
0.426769
0.595450
0.434518
0.492930
0.702739
0.625849
0.527501
0.653863
0.716448
0.630617
0.760555
0.763535
0.540614
0.796914
0.689626
0.660419
0.744462
0.728965
0.803471
0.822544
0.979900
0.894666
0.877976
0.947714
1.063943
1.209974
1.189709
1.328588
1.329780
1.684427
1.677871
1.870990
2.486706
12.196898
40.720701
133.973956
259.248018
525.678992
784.701705
1015.793681
1015.793681
1015.793681
1015.793681
1015.793681
1015.793681
774.380565
509.727597
242.739916
124.369860
44.489503
16.490817
7.898808
7.050633
8.082986
10.264516
15.759468
22.922754
35.773516
48.180819
66.223741
77.786446
87.467432
88.307858
83.337426
73.298812
57.367682
44.115782
28.736591
20.351410
12.888908
8.934736
6.050467
5.035996
4.431605
4.164577
3.831983
3.922582
3.846884
3.843904
3.501773
3.730655
3.729463
##ZVALUE=335
0.344515
0.465512
0.411868
0.456572
0.485778
0.369549
0.370741
0.384450
0.392795
0.517964
0.470877
0.520945
0.506639
0.556707
0.444651
0.490546
0.512600
0.454783
0.427961
0.641942
0.370741
0.457764
0.419617
0.710487
0.541806
0.512600
0.604987
0.667572
0.705719
0.743866
0.657439
0.602603
0.714660
0.771880
0.688434
0.875592
0.941753
1.011491
0.890493
0.990629
1.066923
1.126528
1.121759
1.288652
1.319647
1.582503
1.721978
1.967549
2.005696
4.842877
18.556714
77.930689
168.769956
386.465788
637.162924
1001.276970
1015.793681
1015.793681
1015.793681
1015.793681
1015.793681
883.044600
618.669391
332.623720
178.008676
62.585473
24.503469
9.222627
7.042885
7.204413
7.396936
10.420680
13.913512
23.179650
32.746792
48.861504
60.228705
73.350668
80.274940
82.250834
76.957941
65.314770
55.747628
41.385889
31.513572
20.161867
14.070868
8.740425
6.547570
4.906654
4.315972
3.696680
3.882647
3.893971
3.762841
3.570914
##ZVALUE=340
0.355840
0.310540
0.279546
0.200868
0.275970
0.332594
0.342727
0.341535
0.247955
0.329614
0.286698
0.290871
0.266433
0.227690
0.489950
0.345707
0.348687
0.240803
0.299811
0.312924
0.495911
0.531673
0.396967
0.506639
0.452995
0.554919
0.372529
0.425577
0.456572
0.505447
0.660419
0.641942
0.399947
0.575781
0.583529
0.622869
0.770688
0.720620
0.674725
0.650883
0.817776
0.829697
0.978708
1.084805
0.873804
1.141429
1.064539
1.406670
1.370907
1.578927
1.755953
2.588630
8.520484
47.574639
118.257403
302.480459
518.129468
875.936747
1015.709639
1015.709639
1015.709639
1015.709639
1015.709639
1005.082726
750.581622
404.303670
229.326487
95.605850
37.628412
10.406971
7.266998
6.686449
6.962419
7.772446
9.591579
14.578700
20.752549
32.083988
43.401718
58.674812
68.340898
76.001883
77.036619
72.063804
65.232515
52.761436
41.875839
28.552413
20.621419
13.011694
9.042621
6.094575
4.814863
3.935695
3.875494
3.531575
##ZVALUE=345
0.407696
0.363588
0.348687
0.631809
0.318885
0.205636
0.419617
0.400543
0.277758
0.390410
0.280738
0.389814
0.432730
0.366569
0.450611
0.545979
0.429749
0.518560
0.412464
0.423789
0.452995
0.421405
0.384450
0.495911
0.467896
0.459552
0.502467
0.501871
0.580549
0.646710
0.639558
0.727773
0.560880
0.503659
0.756979
0.857711
0.603795
0.820756
0.757575
0.888705
0.784993
0.813603
0.737906
0.885725
0.993609
0.857711
1.258850
1.178980
1.237988
1.288652
1.714826
1.650453
1.755953
2.182722
3.915429
26.751757
75.383782
209.094882
383.620858
739.149451
1013.243794
1015.763879
1015.763879
1015.763879
1015.763879
1015.763879
974.918008
582.258701
334.484577
132.532716
58.899522
17.444491
9.155869
7.596612
6.678700
6.519556
6.606579
8.804798
11.969805
19.753575
28.351545
41.532516
51.048994
62.598586
68.031549
70.486665
68.268776
60.294867
51.953793
39.795637
30.387640
19.425750
13.734698
8.554459
6.259680
4.871488
##ZVALUE=350
0.344515
0.327826
0.375509
0.436902
0.420809
0.235438
0.480413
0.587702
0.525713
0.385642
0.518560
0.307560
0.428557
0.386834
0.498891
0.372529
0.396967
0.410676
0.399947
0.465512
0.425577
0.331998
0.457764
0.535846
0.492930
0.423789
0.531673
0.396967
0.474453
0.515580
0.642538
0.667572
0.517964
0.653863
0.573993
0.740886
0.580549
0.616908
0.610948
0.785589
0.607967
0.706911
0.813603
0.907779
0.890493
0.896454
1.025796
0.919700
1.279712
1.082420
1.103878
1.408458
1.381636
1.637936
1.714826
1.957417
2.729893
12.343526
41.780472
135.131478
265.048742
557.608604
840.167999
1015.794873
1015.794873
1015.794873
1015.794873
1015.794873
1015.794873
684.152842
423.790812
195.266604
89.018941
24.355650
10.364652
7.062554
6.260872
5.716681
5.953908
6.279945
7.657409
11.939406
17.072558
25.614500
34.106970
46.854615
54.114461
63.134432
65.214634
63.339472
58.129430
47.922730
38.336515
27.508736
20.110607
12.651682
##ZVALUE=355
0.501871
0.419617
0.399947
0.244975
0.311732
0.449419
0.297427
0.358820
0.368953
0.437498
0.256896
0.413656
0.480413
0.541806
0.504851
0.508428
0.419617
0.548959
0.515580
0.545979
0.506639
0.441670
0.486970
0.547767
0.483990
0.507832
0.538826
0.533462
0.645518
0.552535
0.452995
0.548959
0.530481
0.630617
0.605583
0.674725
0.739694
0.743866
0.710487
0.667572
0.590682
0.688434
0.825524
0.843406
0.703931
0.977516
0.791550
0.955462
1.039505
0.981688
1.164675
1.292825
1.283884
1.156926
1.409650
1.602769
1.783967
2.060533
2.419949
6.368756
23.264885
92.147589
196.719766
434.328914
706.028938
1015.793681
1015.793681
1015.793681
1015.793681
1015.793681
1015.793681
876.746774
562.578440
249.174833
118.816495
35.261512
13.239980
6.981492
6.246567
5.763769
5.760789
5.470514
5.957484
7.172823
9.520650
15.212893
21.290779
30.991435
39.176941
49.129725
55.186749
58.925748
58.427453
52.670836
46.367645
36.685467
##ZVALUE=360
0.513792
0.273585
0.403523
0.378489
0.439882
0.511408
0.420809
0.359416
0.359416
0.493526
0.420809
0.519753
0.317693
0.437498
0.329614
0.561476
0.516772
0.419617
0.429749
0.666976
0.471473
0.460744
0.624657
0.457764
0.482798
0.454783
0.485778
0.567436
0.629425
0.619888
0.682473
0.626445
0.640750
0.822544
0.722408
0.597835
0.738502
0.768900
0.729561
0.786781
0.724792
0.765920
0.799894
0.760555
0.683665
0.913739
0.864863
0.941753
1.007915
0.924468
1.133680
1.173615
1.178980
1.250505
1.280904
1.385808
1.330972
1.555681
1.791716
2.046824
2.263784
3.229976
10.201931
48.222542
122.993588
313.616991
538.626909
935.688019
1015.794873
1015.794873
1015.794873
1015.794873
1015.794873
1003.596783
703.949928
340.350866
173.902512
61.290860
23.096800
7.730722
6.350875
5.904436
5.461574
5.236864
4.906654
5.313754
6.079674
8.141994
11.396408
17.529726
24.251938
34.280419
41.841865
49.263835
53.275824
53.682923
##ZVALUE=365
0.394583
0.349879
0.441670
0.414848
0.398755
0.455976
0.459552
0.594854
0.451803
0.570416
0.325441
0.329614
0.469685
0.499487
0.317693
0.400543
0.501871
0.410676
0.469685
0.442863
0.491738
0.376701
0.494719
0.564456
0.496507
0.435710
0.461936
0.591874
0.608563
0.680685
0.569820
0.535846
0.721812
0.705719
0.632405
0.669956
0.865459
0.746846
0.735521
0.664592
0.709891
0.654459
0.720620
0.681877
0.763535
0.746846
0.774860
0.863671
0.927448
0.962615
0.960827
1.054406
1.083612
1.336932
1.409650
1.370907
1.279712
1.384616
1.463890
1.738667
1.816750
1.997948
2.239943
2.771616
4.568696
27.417541
77.143908
209.410787
397.886038
784.024596
1015.793681
1015.793681
1015.793681
1015.793681
1015.793681
1015.793681
906.940699
502.172709
273.183584
95.163584
36.880970
10.066628
6.640553
5.716681
5.401969
4.988909
4.952550
4.566908
4.401803
5.127788
6.517768
10.095835
13.863444
21.023750
27.491450
36.997795
##ZVALUE=370
0.340939
0.332594
0.450611
0.272989
0.232458
0.262856
0.462532
0.469685
0.498891
0.308752
0.361800
0.319481
0.369549
0.366569
0.391603
0.490546
0.596642
0.464916
0.451803
0.498891
0.348687
0.513792
0.608563
0.377893
0.425577
0.462532
0.537634
0.468493
0.418425
0.571609
0.572801
0.467896
0.648499
0.692606
0.591874
0.546575
0.774860
0.575781
0.866652
0.680685
0.701547
0.773668
0.716448
0.668764
0.733733
0.653863
0.842810
0.651479
0.806451
0.720620
0.952482
0.987649
0.916719
1.106858
1.062751
1.042485
1.150966
1.119971
1.262426
1.278520
1.349449
1.560450
1.771450
1.950860
2.081990
2.265573
3.183484
14.851689
53.770542
179.211497
339.422822
669.488907
981.640816
1015.794873
1015.794873
1015.794873
1015.794873
1015.794873
1015.794873
612.697601
339.204669
127.725005
55.689812
17.392635
7.657409
5.255938
5.027652
4.887581
4.337430
4.131794
4.085898
4.116893
4.380941
5.950928
8.047819
12.589693
##ZVALUE=375
0.365973
0.419617
0.322461
0.486970
0.199676
0.337958
0.457764
0.306964
0.348687
0.376701
0.502467
0.322461
0.445843
0.362992
0.304580
0.512600
0.411868
0.437498
0.423789
0.486970
0.494719
0.486970
0.343919
0.348687
0.426769
0.391603
0.476837
0.452995
0.381470
0.377893
0.354648
0.579953
0.547767
0.636578
0.662804
0.658631
0.534654
0.788569
0.624657
0.664592
0.714660
0.618696
0.646710
0.540614
0.751615
0.596642
0.681877
0.653863
0.734925
0.771880
0.732541
0.835657
0.810623
0.794530
0.843406
0.903606
0.765920
0.934601
1.048446
1.102686
1.164675
1.163483
1.239777
1.318455
1.455545
1.576543
1.745820
2.110600
2.576709
7.098913
28.497577
114.107728
247.356892
551.954508
872.286558
1015.784740
1015.784740
1015.784740
1015.784740
1015.784740
1015.784740
843.465924
525.282621
234.786868
111.554861
33.035874
11.775494
5.349517
4.929900
4.486442
4.495978
3.830791
3.585815
3.512502
3.445745
3.736615
##ZVALUE=380
0.161529
0.249743
0.243783
0.286698
0.264645
0.257492
0.441670
0.270605
0.209808
0.389814
0.336766
0.265837
0.225902
0.202656
0.406504
0.347495
0.273585
0.233650
0.395775
0.307560
0.152588
0.296831
0.299811
0.346899
0.186563
0.358820
0.315905
0.438690
0.337958
0.439882
0.400543
0.361800
0.574589
0.468493
0.324845
0.467896
0.372529
0.416636
0.362992
0.455976
0.400543
0.504851
0.403523
0.471473
0.448823
0.549555
0.595450
0.564456
0.614524
0.647902
0.391603
0.601411
0.672936
0.565648
0.491738
0.686646
0.695586
0.753999
0.587702
0.802875
0.756979
0.868440
0.913739
1.095533
1.238585
1.078844
1.218915
1.529455
1.835823
1.799464
2.284646
3.809929
12.721419
68.094730
164.935589
395.908952
655.571818
1010.918617
1015.713811
1015.713811
1015.713811
1015.713811
1015.713811
972.328782
677.974820
341.696739
172.608495
55.564642
20.136833
6.421804
4.720688
4.220605
4.006624
3.468990
3.364682
3.380775
##ZVALUE=385
0.413656
0.209808
0.209808
0.307560
0.220537
0.274777
0.393987
0.335574
0.296831
0.401735
0.391603
0.235438
0.315905
0.420809
0.326633
0.266433
0.240803
0.245571
0.409484
0.416636
0.403523
0.308752
0.497699
0.473857
0.483990
0.360608
0.335574
0.569820
0.386834
0.353456
0.401735
0.484586
0.366569
0.367761
0.438690
0.478625
0.432730
0.248551
0.487566
0.565648
0.500679
0.498891
0.703931
0.516772
0.644922
0.431538
0.539422
0.665784
0.512600
0.568628
0.616908
0.543594
0.509620
0.605583
0.664592
0.607967
0.962615
0.842810
0.782609
0.748634
0.786781
0.861883
0.898838
1.027584
0.725985
1.031756
1.092553
1.286864
1.533628
1.547933
1.710653
1.918674
2.203584
2.509952
6.077886
37.325621
101.980567
272.268057
497.373939
905.689597
1015.794873
1015.794873
1015.794873
1015.794873
1015.794873
1013.337970
766.618848
426.452756
240.911841
97.678900
39.049983
9.376407
4.917979
4.008412
3.908873
3.617406
##ZVALUE=390
0.262856
0.314713
0.332594
0.490546
0.227690
0.257492
0.311732
0.175834
0.231862
0.315905
0.259876
0.411868
0.235438
0.169873
0.405908
0.454783
0.144839
0.376701
0.429749
0.274777
0.250936
0.301600
0.308752
0.411868
0.332594
0.314713
0.409484
0.255704
0.449419
0.557899
0.333786
0.335574
0.301600
0.350475
0.491738
0.392795
0.361800
0.559688
0.401735
0.475645
0.459552
0.349879
0.502467
0.431538
0.496507
0.480413
0.442863
0.559688
0.463724
0.559688
0.444651
0.540614
0.681877
0.550747
0.501871
0.556707
0.614524
0.649691
0.626445
0.744462
0.916719
0.733733
0.559688
0.834465
0.877976
0.827909
1.099706
1.236796
1.396537
1.438856
1.525879
1.591444
1.803637
1.963973
1.824498
2.302527
3.840923
15.864968
80.228448
188.358426
432.582498
711.396933
1015.793681
1015.793681
1015.793681
1015.793681
1015.793681
1015.793681
926.770568
618.822575
299.408436
151.384473
51.155686
19.345880
5.930662
4.368424
##ZVALUE=395
0.337958
0.205636
0.242591
0.164509
0.213981
0.310540
0.391603
0.171661
0.398755
0.355840
0.192523
0.296831
0.262856
0.367761
0.394583
0.303984
0.329614
0.275970
0.268817
0.304580
0.391603
0.230670
0.276566
0.253916
0.331998
0.394583
0.296831
0.419617
0.456572
0.452995
0.550747
0.331998
0.284910
0.368953
0.393987
0.358820
0.373721
0.351667
0.456572
0.517964
0.482798
0.452995
0.441670
0.437498
0.353456
0.460744
0.487566
0.452995
0.417829
0.434518
0.448823
0.505447
0.724792
0.656843
0.575781
0.724792
0.615716
0.582933
0.586510
0.767708
0.670552
0.781417
0.714660
0.726581
0.911951
0.902414
1.018643
0.989437
1.306534
1.375675
1.594424
1.465678
1.598597
1.673698
1.742840
1.776814
1.924634
2.109408
2.553463
8.570552
57.886839
145.370960
346.711874
585.247874
980.712771
1015.793681
1015.793681
1015.793681
1015.793681
1015.793681
1015.793681
807.433724
427.315831
228.907466
83.032846
34.396648
##ZVALUE=400
0.262856
0.178814
0.253916
0.300407
0.310540
0.178814
0.220537
0.305772
0.339746
0.274777
0.192523
0.310540
0.262856
0.323653
0.206828
0.362992
0.364780
0.476837
0.382662
0.392795
0.254512
0.288486
0.355840
0.205636
0.116825
0.295639
0.338554
0.575781
0.467896
0.445843
0.380874
0.291467
0.398755
0.502467
0.392795
0.363588
0.411868
0.315905
0.290871
0.441670
0.408888
0.310540
0.541806
0.365973
0.524521
0.507832
0.371933
0.502467
0.489950
0.618696
0.488758
0.824928
0.501871
0.427961
0.711679
0.644922
0.612736
0.500679
0.655651
0.645518
0.671744
0.609756
0.608563
0.629425
0.808835
0.794530
0.866652
1.048446
1.290441
1.417994
1.332760
1.415610
1.378655
1.328588
1.553893
1.367927
1.479983
1.636744
1.645684
1.823902
2.376437
5.791783
23.274422
96.395612
217.530727
500.032902
813.075900
1015.793681
1015.793681
1015.793681
1015.793681
1015.793681
1015.793681
931.302905
615.612864
310.332775
##END
