##TITLE=AAI0551
##FORMAT=SPECTACLE-ASCII V-1.2
##DATA TYPE=ULTRAVIOLET SPECTRUM
##SECOND TYPE=ULTRAVIOLET SPECTRUM
##DATE=10/24/17
##TIME=16:23:27
##SPECTROMETER/DATA SYSTEM=SPECTACLE
##XUNITS=NM EM
##YUNITS=ENERGY
##YFACTOR=1
##FIRSTX=220
##LASTX=410
##NPOINTS=96
##3DDATA=Equidistant
##ZUNITS=NM EX
##FIRSTZ=210
##LASTZ=400
##ZPOINTS=39
##XYDATA=(Y..Y)
##ZVALUE=210
2.834797
2.802610
2.990961
3.343821
3.454685
3.101826
3.307462
3.768802
3.573895
3.217459
3.057718
3.036857
2.631545
3.208518
2.816916
3.149509
3.305674
3.505945
3.392696
3.337860
3.374815
3.988743
3.256798
3.822446
4.641414
4.117489
3.950596
4.720688
4.771948
4.565716
5.234480
4.955530
5.806684
6.249547
5.033612
5.338788
4.746914
5.081892
5.392432
5.495548
5.588531
6.073713
6.031990
5.855560
6.480813
6.480813
6.987453
6.513000
6.857514
6.311536
6.992817
6.309748
6.511807
6.742477
6.407499
6.639957
6.984472
7.715821
6.391406
6.558895
7.473826
7.104874
6.455779
7.040501
7.930994
8.031726
8.025765
9.455681
9.556413
10.109544
13.662577
13.968945
17.254949
19.687414
21.169782
22.320747
23.265481
20.502806
19.691586
20.121932
16.822815
14.327765
12.547970
12.174845
10.518432
9.347796
6.972551
7.131696
7.054806
6.757975
6.510615
7.657409
7.292628
7.414818
7.343888
7.405877
##ZVALUE=215
10.377765
10.258555
9.820461
8.725524
7.598996
7.427931
7.053614
7.777810
8.769631
7.833838
6.228685
7.221699
6.049871
4.670620
4.811883
4.769564
4.017949
4.265904
4.457831
4.758835
5.341768
4.444718
4.817843
5.358458
5.324483
5.403757
5.446672
6.154776
6.056428
6.444454
5.794764
6.111860
6.015897
5.957484
6.502867
7.236600
8.039474
6.662607
6.344914
7.017851
7.178783
7.975698
7.714629
7.548928
7.818937
7.777810
8.674860
7.427931
7.792711
8.346438
8.341670
8.798838
9.399652
8.466840
8.415580
9.075999
8.529425
8.096695
8.170605
8.953810
8.498430
8.058548
8.428693
9.201765
8.539557
9.500980
8.827448
10.517836
10.394454
12.411475
13.577938
16.538501
16.255975
18.985868
21.085739
22.170544
19.208789
20.347834
20.135641
19.344687
16.205907
15.670657
13.177991
13.201833
11.117458
10.017753
9.256601
9.196997
8.136630
8.057952
7.817745
7.737875
8.003712
7.838607
8.267760
8.617640
##ZVALUE=220
29.606819
30.969977
31.099916
32.402873
31.397939
22.681952
18.232465
15.190840
13.761520
11.273623
13.254881
14.813542
13.053417
11.790991
11.153817
8.402467
6.653666
5.564690
4.954934
4.407763
4.271865
4.045963
3.912449
4.575849
4.950762
4.992485
5.331635
5.557537
5.316734
5.101562
5.816817
5.833507
5.906820
5.487800
6.109476
6.457567
6.407499
6.153584
6.696582
6.401539
5.881786
6.728768
7.058978
7.035732
7.593632
7.444620
7.429719
8.131862
8.082986
7.265806
7.829666
7.916689
7.304549
7.284880
8.342862
7.811785
8.014441
8.426905
7.626414
8.356571
8.066893
7.861853
8.750558
8.752942
9.146929
9.049773
8.618832
9.767413
10.396838
11.699796
13.894439
14.655590
17.125607
19.707680
20.328760
19.374490
21.618605
19.891858
19.716620
17.305613
15.352964
14.365911
14.531612
12.364984
11.213422
9.581447
8.017421
8.504987
7.408857
8.418560
6.397963
7.248521
7.790923
7.338524
6.951690
6.465912
##ZVALUE=225
50.195456
53.316951
65.922737
83.917975
91.346502
90.164542
81.589818
66.988468
53.820610
38.817525
27.854443
25.059581
27.050972
27.879477
27.241707
27.397871
21.710992
17.314553
13.629794
10.027885
6.982684
5.903840
5.238652
4.490614
4.328489
5.843639
4.824996
6.438494
5.801916
5.583763
6.503463
5.394816
5.979538
6.767511
6.855726
6.768703
6.987453
8.135438
7.221699
7.093549
6.999969
8.077621
8.406639
8.097887
7.217526
6.842613
7.963777
7.954836
8.401871
8.696914
8.307695
8.671880
8.374453
9.045601
7.959604
7.807612
8.400679
8.290410
9.573698
9.202957
9.330511
9.091496
9.105802
8.567572
9.054542
9.348989
10.006428
10.737777
10.918975
12.043715
12.568831
14.508963
16.486645
18.983483
19.499660
19.103885
20.672679
18.039942
15.570521
15.699863
14.147758
14.468431
12.584925
12.422800
11.081696
10.550618
9.211898
9.240508
10.035634
8.981824
8.414984
8.487701
8.352995
9.319782
8.124709
7.879734
##ZVALUE=230
41.829944
48.804879
75.081587
125.641823
157.721639
199.228525
213.525891
211.817622
190.784931
164.560676
114.146471
79.562664
54.174662
49.021840
47.551990
49.614906
52.729845
53.078532
49.873590
36.556721
30.521750
18.270612
13.309717
9.038448
7.279515
6.251931
5.670786
6.463528
6.901622
6.448627
6.715655
6.788969
8.097887
7.368922
7.772446
6.825924
6.924868
7.609725
7.887483
7.995963
7.710457
8.891821
8.035898
8.364916
8.381605
7.844567
9.186864
7.882714
8.180737
8.311868
8.272529
8.546710
8.955598
10.003448
9.117723
10.643601
9.759665
10.690689
9.284616
10.476708
10.559559
8.975863
10.846853
10.703802
10.964870
9.803772
11.986494
13.030767
12.608767
14.413595
15.789866
18.094778
17.474890
20.679832
20.270944
21.035671
18.900633
18.870831
18.886924
18.209815
16.849637
14.919639
14.536977
12.288690
11.274815
12.512803
11.093616
11.054873
10.596514
10.491610
10.500550
9.535551
10.557771
11.301637
10.430813
9.539723
##ZVALUE=235
13.953447
16.079545
41.019917
81.011653
128.736496
222.305655
297.099948
384.962559
421.958566
409.958959
371.542573
286.093950
215.687752
138.665438
106.359720
79.497695
72.723627
79.648495
84.700584
85.443854
76.531768
68.616867
50.277710
39.868951
26.453733
18.749833
11.928678
9.731650
8.075833
8.525848
7.114410
8.048415
8.336902
8.179545
7.497668
7.685423
7.535815
8.143783
7.685423
9.228587
8.109808
9.427667
9.477735
8.459687
8.835793
9.152889
8.505583
9.665489
10.153651
10.466576
9.678602
9.674430
10.920763
10.071993
10.551810
11.258721
10.356903
11.079907
11.204481
11.072755
12.350678
11.758804
12.956858
11.657476
12.994409
11.684895
13.464689
13.997555
14.774799
16.906857
19.021630
19.643903
20.008683
23.150444
25.437474
24.041533
23.335814
23.843646
21.024942
20.988584
18.452406
19.448996
17.445683
17.240644
14.707446
14.809966
14.379621
12.136698
12.786984
11.763573
12.580752
12.032986
11.867881
12.244582
12.257695
12.592673
##ZVALUE=240
2.615452
2.955794
5.002618
20.393729
46.686530
108.758807
186.292529
330.751538
438.023806
554.355979
638.830662
644.123554
573.566556
491.433740
355.694890
254.024863
155.776739
117.033720
97.482800
97.299814
104.343891
115.235448
111.701488
98.509789
83.078742
62.916875
47.859550
32.877922
21.909475
14.305711
9.790659
8.965731
8.663535
8.802414
8.969903
9.024739
9.955764
8.964539
9.753704
9.049773
8.613467
9.109974
8.236766
9.510517
9.787679
9.476542
9.520650
8.996725
9.122491
9.628534
10.148883
10.338426
10.005832
11.242628
10.723472
11.825562
9.924769
10.097623
10.648966
11.043549
11.118650
11.597872
11.701584
12.620687
12.148619
12.377501
13.649464
15.440583
16.295910
18.133521
17.738938
19.583702
21.937490
22.160411
24.438500
22.094846
23.109913
22.535920
22.657514
21.004677
20.585656
19.836426
17.217994
16.056895
16.710758
14.949441
13.767481
14.249682
15.661716
14.865994
13.184547
14.387965
15.477538
13.369918
13.680458
14.234781
##ZVALUE=245
2.101660
1.643896
1.356602
2.078414
4.324913
10.303855
41.865706
92.378855
207.579732
328.768492
519.190431
648.946762
747.080445
798.117518
768.236518
640.988946
533.401966
358.674526
241.446495
140.455961
107.868910
99.222660
108.409524
121.310949
127.372742
126.409531
111.519694
93.493462
72.669983
53.238869
39.228797
22.886992
15.307665
10.959506
9.300709
8.462667
8.079410
9.022951
7.621646
8.481741
8.180737
8.083582
8.567572
7.993579
7.571578
7.876754
7.892847
8.456707
8.535981
8.446574
8.690953
9.482503
8.900762
9.170771
9.916425
10.484457
9.469986
10.116696
10.063648
9.498000
10.493994
10.519624
10.814667
10.575652
12.076497
11.917949
12.196898
12.315512
13.528466
14.630556
15.601516
16.400814
18.193722
20.238757
21.047592
21.745563
20.564795
19.780993
18.993616
17.470717
16.767979
14.842749
14.737844
13.974905
14.739633
14.060736
13.654828
13.151765
12.431741
11.967421
12.907982
13.031960
11.601448
12.114644
11.795759
12.953877
##ZVALUE=250
1.837611
1.649857
1.857877
1.677871
2.152920
1.735687
2.536774
9.557605
26.793480
66.402555
173.412561
308.586955
522.552729
674.452782
849.789977
920.800567
920.642614
842.219591
716.120005
506.974459
346.077681
192.486644
129.001737
98.349452
100.411773
121.893883
132.816434
134.853721
130.880475
118.968487
100.755692
76.686740
55.738688
34.119487
24.865866
13.402700
10.270476
9.156466
7.345676
7.448792
7.622838
7.910728
7.954836
8.095503
7.260442
8.122921
7.448792
7.216930
7.478595
7.741451
8.016825
8.227825
8.621812
8.593798
8.207560
8.667707
8.796453
9.256601
9.593964
9.247661
8.567572
9.422898
10.539889
9.955764
9.304881
10.161996
10.647774
11.053681
11.943579
12.341738
13.757944
15.360713
16.188622
16.111732
17.793775
16.758442
17.517805
17.207861
16.884804
15.309453
15.569925
14.349818
12.968779
13.045669
11.580586
12.150407
12.016892
11.852980
11.847615
11.334419
11.256933
11.697412
10.907650
10.960698
11.214614
10.625720
##ZVALUE=255
1.913905
1.972914
1.906753
1.690984
2.101660
2.094507
2.104640
2.034903
2.669692
5.247593
17.527938
64.505935
134.494901
290.523767
446.955562
685.749650
860.148668
1011.446714
1016.050577
1001.253724
869.156718
709.833503
445.124507
284.698606
151.395798
104.747415
91.321468
100.848675
123.046637
134.180784
145.060420
143.230557
129.075646
102.875829
84.295869
56.949854
40.968657
23.846626
15.411973
10.163784
8.301735
7.440448
7.211566
7.469654
6.900430
7.730722
7.515550
7.563829
7.406473
7.984638
8.256435
6.999969
7.686615
7.452965
6.998777
7.355809
8.355975
8.323789
8.248687
8.266568
7.908940
8.044839
8.693933
8.285642
8.902550
9.008646
9.350777
8.932948
10.776520
11.317730
10.952950
13.273954
14.027953
14.886856
14.811754
15.295744
15.066862
14.406443
13.503432
13.176799
12.682676
12.676716
11.957884
11.389852
11.455417
9.643435
10.630488
10.146499
10.858774
10.652542
10.236502
9.997487
10.580420
9.816885
10.137558
9.270906
##ZVALUE=260
1.327991
1.573563
1.327991
1.557469
1.572967
1.525879
1.740456
1.636744
1.857877
2.392530
2.191663
2.529621
7.945895
35.585761
85.934997
220.718980
370.133519
629.130602
831.854939
1015.794873
1015.794873
1015.794873
1015.794873
863.849521
581.924915
398.086905
223.141909
138.340592
86.858869
82.812905
102.083683
122.002959
139.052868
148.064494
146.625638
128.752589
108.694434
80.402493
61.024427
37.694573
25.678873
14.369488
9.914637
7.170439
6.527901
6.203651
5.900860
6.616712
6.415844
6.752610
6.330609
7.356405
7.018447
6.939769
6.990433
6.878972
6.877780
6.882548
7.145405
7.631779
6.890893
7.920861
8.234978
7.458925
7.071495
7.347465
7.828474
8.098483
8.435845
9.189844
9.917617
11.015534
11.361837
11.772513
11.722445
12.589693
12.073517
11.908412
11.331439
10.992885
10.698438
9.895563
9.114742
9.568930
9.962916
9.133816
8.870959
9.500980
8.357763
8.260608
8.519888
8.057952
8.594990
8.309484
8.306503
8.715987
##ZVALUE=265
1.285672
1.352429
1.156926
1.325607
1.214743
1.324415
1.388788
1.280904
1.491904
1.612902
1.802444
1.922846
2.315640
2.249479
4.298687
25.333762
64.335465
173.018575
309.143662
588.105917
832.690597
1015.793681
1015.793681
1015.793681
1015.793681
1015.793681
775.848627
557.811856
310.478806
185.649991
111.292005
74.064732
79.223514
107.921958
129.127502
145.911574
152.765512
145.942569
131.204724
106.838942
83.316565
55.149794
38.311481
22.014976
14.054775
8.832812
6.815791
6.590486
6.479621
6.065965
6.430745
6.016493
6.445646
6.357431
6.597638
6.338954
6.547570
6.306767
6.717443
6.264448
6.652474
6.156564
6.895661
7.160902
7.155538
6.572604
7.167459
7.276535
8.083582
8.034706
8.193851
9.193420
9.762645
9.545684
10.242462
10.410547
10.393858
10.725856
9.801984
8.822680
8.893609
8.523464
8.684993
8.084774
7.921457
8.135438
7.922649
7.390976
7.497668
7.693768
7.131696
7.872581
7.236600
7.746816
7.284880
7.438660
##ZVALUE=270
1.057982
1.089573
1.046658
1.061559
1.099706
1.067519
1.122952
1.293421
1.212955
1.387596
1.306534
1.584888
1.703501
1.834631
1.866817
2.038479
2.489686
10.621548
35.300851
120.339990
249.993801
440.877676
778.685808
1006.315947
1015.751958
1015.751958
1015.751958
1015.751958
990.758538
752.560496
509.045720
265.910625
149.844885
73.058605
62.266588
81.847906
102.902651
130.212903
141.781569
153.598785
147.106647
130.523443
109.722614
80.460906
59.768558
35.618544
23.673773
14.229417
9.222627
7.056594
6.241798
6.366968
6.642938
6.068945
6.040931
6.272793
6.198883
6.013513
5.982518
6.215572
6.250739
6.320477
5.998611
6.151795
6.474853
6.513000
6.350875
6.995797
6.970763
7.708669
8.279681
8.995533
9.412766
8.947849
9.439588
9.408593
9.630919
9.425879
8.814931
8.066893
7.512569
7.807612
7.707477
7.193685
7.229447
6.866455
6.973743
6.725788
7.012486
6.867647
6.603599
6.895661
6.412864
6.757975
7.162690
6.594658
##ZVALUE=275
1.139641
0.997782
0.975728
0.992417
1.047850
1.030564
1.091957
1.092553
1.187921
1.291633
1.303554
1.308918
1.340508
1.387596
1.404881
1.595616
1.973510
1.994967
2.305508
5.204678
21.555424
66.091418
200.086832
377.271771
707.956553
968.560576
1015.793681
1015.793681
1015.793681
1015.793681
1015.793681
949.456096
675.259829
356.159806
200.183988
86.530447
55.057406
59.152842
76.223612
105.701685
124.864578
144.866705
150.147676
144.288540
129.890442
103.834867
83.462000
58.432817
39.446950
23.363829
15.266538
9.448528
7.630587
6.285906
5.963445
6.064773
6.269813
6.111860
6.241798
6.243587
5.940795
5.861521
5.963445
5.943775
5.904436
5.981922
5.855560
6.326437
6.756783
7.019639
7.861853
8.212924
8.404851
9.096861
8.872747
9.469986
9.095669
8.477569
8.011460
7.485747
7.485747
7.270575
7.111430
7.065535
7.095933
6.498694
6.179810
6.604791
5.920529
6.242990
6.182790
6.213784
6.478429
6.261468
5.954504
6.108880
##ZVALUE=280
0.944734
0.877976
0.907779
1.078844
1.040697
1.000762
0.973940
1.011491
0.950694
0.970960
1.329780
1.218915
1.193881
1.526475
1.394749
1.451969
1.589656
1.308918
1.796484
2.005696
1.978874
2.515912
13.392568
48.631430
161.637664
299.651623
569.787621
828.943849
1015.793681
1015.793681
1015.793681
1015.793681
1015.793681
1015.793681
808.599591
458.372831
271.256566
118.783712
63.218474
43.659806
52.252412
77.856779
99.090934
125.701427
138.798952
148.544908
142.852664
126.839876
107.200742
80.238581
59.396625
37.625432
25.778413
14.437437
10.067821
6.999969
5.947948
5.850792
5.905628
5.631447
5.959868
5.882978
5.994439
6.095767
5.874634
6.255507
6.264448
6.620884
6.356835
7.325411
7.233620
7.958412
8.198619
8.136630
7.875562
8.431673
8.123517
7.997751
7.330775
7.383823
6.623864
6.701946
6.266832
6.080866
5.976558
6.415844
6.287694
6.184578
6.067753
5.761981
5.951524
5.727410
6.199479
5.717874
5.639791
5.599856
##ZVALUE=285
0.911951
0.640750
0.823736
0.848770
0.934601
0.969768
0.870824
0.936985
0.930429
0.925660
1.037717
0.843406
1.109838
1.226664
1.256466
1.222491
1.369715
1.439452
1.550913
1.587868
1.646876
1.863837
1.939535
2.480745
6.444454
24.831891
93.943477
197.503567
427.899361
682.368875
967.676640
1015.793681
1015.793681
1015.793681
1015.793681
1015.793681
989.484787
638.154745
399.248600
187.126994
94.315410
40.968657
34.900904
52.043796
71.552992
101.464987
120.010972
136.297941
144.648552
139.819980
129.013658
105.540752
85.810423
58.437586
40.804744
23.174882
15.651584
9.744763
7.185936
6.307960
6.046891
5.541444
6.032586
5.548596
5.426407
6.014705
6.215572
6.044507
6.251931
6.884933
6.611943
7.179976
6.905794
8.172989
7.953644
7.568598
7.452965
7.577538
6.890893
6.689429
6.911755
6.551743
5.844831
5.556941
5.728602
5.894899
5.683899
5.563498
5.713701
5.528927
5.633831
5.190969
5.375743
5.302429
5.141497
5.277991
##ZVALUE=290
0.634789
0.686646
0.587702
0.849962
0.771880
0.823736
0.771880
0.925660
0.738502
0.803471
0.925660
1.086593
1.020432
0.953674
1.052618
0.887513
1.148582
1.191497
1.020432
1.339912
1.307726
1.538992
1.576543
1.924634
1.926422
2.294779
2.962947
12.865663
42.826533
139.674544
275.023580
568.239689
848.062634
1015.793681
1015.793681
1015.793681
1015.793681
1015.793681
1015.793681
796.068907
528.825521
262.729526
137.723684
52.270889
29.513836
33.157468
46.929717
70.049763
90.554953
115.338564
131.232738
139.844418
138.768554
123.650432
105.551481
78.515410
59.494972
38.700700
24.957657
14.850497
9.956956
7.124543
5.868673
5.896688
5.395412
5.429983
5.914569
5.528927
6.196499
6.666780
6.499887
6.876588
7.022619
6.965995
7.279515
7.014871
6.761551
6.480813
6.102920
6.224513
5.772710
5.769730
5.629659
5.475879
5.397797
5.618930
5.179644
5.014539
5.298853
5.024672
4.988909
5.221963
5.049706
5.100965
5.227923
4.714727
##ZVALUE=295
0.876784
0.556707
0.627637
0.812411
0.698566
0.772476
0.853539
0.646710
0.886917
0.819564
0.702739
0.924468
0.792742
0.724792
0.754595
0.971556
0.981688
0.840425
1.143813
1.192689
1.205802
1.262426
1.355410
1.482964
1.524687
1.652837
2.040863
2.022982
2.500415
4.357696
25.903583
77.400804
181.605816
428.160429
689.041615
1015.793681
1015.793681
1015.793681
1015.793681
1015.793681
1015.793681
972.653031
675.887465
352.574587
194.453001
72.416663
36.155581
22.958517
28.309822
45.946836
62.339902
87.223649
105.774999
125.154853
131.345987
131.813884
120.305419
98.455548
80.456734
54.808855
39.970875
23.028851
16.006827
9.835958
7.688999
5.799532
5.440712
5.266666
5.511642
5.956888
5.682707
6.525517
6.595850
6.971955
6.670952
6.834865
6.588697
5.943775
6.297827
5.760789
6.040931
5.441904
5.528927
5.529523
5.322695
5.365610
5.410910
5.157590
5.258918
4.921556
4.811883
4.507899
4.964471
4.812479
4.775524
4.696846
##ZVALUE=300
0.689626
0.651479
0.669956
0.711679
0.706911
0.709891
0.697970
0.689626
0.698566
0.742674
0.796914
0.739694
0.869632
0.752807
0.736713
0.987649
0.754595
0.878572
0.967979
1.041889
0.936985
1.126528
1.110435
1.541972
1.247525
1.488924
1.680851
1.593828
1.675487
1.934767
2.284646
2.848506
10.831952
40.885806
146.152973
288.555026
582.332611
884.694457
1015.793681
1015.793681
1015.793681
1015.793681
1015.793681
1015.793681
819.084644
539.786816
274.867415
147.374868
54.594874
24.403930
18.714666
25.703907
41.123629
56.273937
80.351830
99.361539
118.775964
125.256777
125.886798
117.590427
97.928643
78.882575
56.949854
40.949583
24.638772
16.188622
10.323524
7.273555
6.051660
5.882978
6.083846
6.404519
6.400943
6.404519
6.563663
6.500483
6.016493
6.299615
6.047487
5.718470
5.766749
5.472898
5.382895
5.116463
5.138516
5.329847
5.239844
5.017519
4.718900
4.816651
4.564524
4.830956
4.929900
4.798770
4.821420
4.797578
##ZVALUE=305
0.692606
0.659823
0.572801
0.502467
0.494719
0.636578
0.592470
0.781417
0.582933
0.704527
0.690818
0.775456
0.774860
0.849962
0.727773
0.948906
1.056790
0.675917
0.900626
0.903606
0.962615
1.037717
1.079440
1.086593
1.147985
1.338720
1.184940
1.318455
1.389980
1.746416
1.948476
1.862645
2.167821
2.354980
5.779862
23.061633
98.874569
217.641592
479.984879
751.083493
1015.794873
1015.794873
1015.794873
1015.794873
1015.794873
1015.794873
981.522799
709.382892
377.779603
204.958916
76.111555
32.775998
14.910698
16.754866
25.545955
36.188960
56.957006
75.075626
96.638799
109.243989
118.654966
119.680762
109.344721
96.002817
73.747635
56.074858
36.975741
25.256872
14.926791
10.082722
7.260442
6.857514
6.186962
6.511807
5.982518
6.007552
5.961657
5.411506
5.469918
5.374551
5.214810
5.297661
5.088449
4.963875
4.912615
5.338788
4.856586
4.921556
4.887581
4.910827
4.815459
4.701614
4.636645
4.428625
4.489422
4.473925
##ZVALUE=310
0.805855
0.854731
0.784993
0.771880
0.797510
0.720620
0.974536
0.848770
0.909567
0.916719
0.943542
0.980496
0.997782
0.829697
0.799894
0.840425
0.958443
1.012683
1.078844
1.102686
1.121759
1.126528
1.145601
1.160502
1.245737
1.230836
1.381636
1.342893
1.453757
1.404881
1.488924
1.659989
1.852512
2.101660
2.175570
2.380610
3.245473
9.242892
54.139495
132.339597
319.893956
547.969937
962.712765
1016.013622
1016.013622
1016.013622
1016.013622
1016.013622
1016.013622
907.016993
517.848730
310.885906
132.866502
61.272979
19.539595
12.824535
15.784502
21.512508
33.638477
47.868490
68.772435
84.999800
103.308558
112.945437
113.817453
107.554793
91.577768
75.525641
53.098798
37.862659
23.605824
16.441941
10.867715
8.358955
7.210970
6.581545
5.976558
5.504489
5.416870
5.041957
5.079508
5.086660
5.172491
5.171895
5.166531
5.165935
5.021691
4.701614
4.959702
5.058646
4.927516
4.905462
4.722476
4.859567
4.741549
4.645586
##ZVALUE=315
0.594854
0.627637
0.583529
0.670552
0.518560
0.597835
0.594854
0.529885
0.730753
0.727773
0.715852
0.746846
0.710487
0.593662
0.684857
0.608563
0.676513
0.656843
0.754595
0.786781
0.852942
0.879765
0.863671
0.865459
1.071692
0.891685
1.066923
1.158714
1.076460
0.969768
1.189709
1.125932
1.314878
1.515746
1.484752
1.796484
1.796484
2.166629
2.358556
5.458593
21.975636
96.110702
211.370587
471.754670
771.424770
1015.793681
1015.793681
1015.793681
1015.793681
1015.793681
1015.793681
996.498466
728.797913
388.897657
211.013556
76.584816
30.596852
11.796951
10.555983
13.848543
19.282699
31.479001
43.763518
63.319802
80.331564
95.955729
104.463696
106.574893
100.413561
85.629821
69.897771
51.505566
38.204789
23.395419
15.705824
9.677410
7.713437
5.481839
5.421638
5.140901
4.923940
4.872680
4.883409
4.910827
4.754663
4.509687
4.862547
4.825592
4.644990
4.749894
4.813671
4.472733
4.493594
4.657507
4.545450
4.528761
##ZVALUE=320
0.455976
0.423789
0.493526
0.522733
0.380874
0.491738
0.599623
0.617504
0.430942
0.535846
0.654459
0.568628
0.701547
0.662804
0.735521
0.640750
0.498891
0.603795
0.643730
0.699759
0.690818
0.809431
0.781417
0.759959
0.875592
0.878572
0.934601
0.842810
1.057982
1.091957
1.154542
1.036525
1.046658
1.277924
1.295805
1.461506
1.516938
1.630783
1.668930
2.058744
2.190471
2.780557
8.880496
53.045750
136.628747
354.967713
589.519739
973.936915
1015.788913
1015.788913
1015.788913
1015.788913
1015.788913
1015.788913
911.383033
505.859852
287.327766
119.327903
51.137805
15.756488
9.572506
9.623766
11.780858
17.737746
25.995970
42.184591
56.296587
75.457692
87.869763
99.185705
101.093650
95.251799
85.184574
66.480637
51.213503
33.581853
23.473501
14.439821
9.831786
6.543994
5.502701
5.059838
5.046725
4.941821
4.831553
4.685521
4.710555
4.605651
4.445910
4.696846
4.542470
4.388690
4.441738
4.606843
4.554987
4.293919
##ZVALUE=325
0.565648
0.621676
0.378489
0.518560
0.372529
0.440478
0.501871
0.458956
0.711679
0.695586
0.625849
0.730753
0.822544
0.540614
0.592470
0.637770
0.685453
0.653863
0.700951
0.661612
0.787973
0.865459
0.792742
0.799894
0.857711
0.772476
0.755787
0.873804
0.946522
0.916719
0.787973
1.042485
1.170635
1.216531
1.179576
1.360774
1.371503
1.384616
1.563430
1.879930
1.800656
1.926422
2.004504
2.456903
4.777908
34.156442
91.116428
240.383744
431.408882
804.335475
1015.884876
1015.884876
1015.884876
1015.884876
1015.884876
1015.884876
985.308886
616.801977
376.973748
165.487528
77.054501
23.539662
10.547638
8.222461
8.544922
11.650920
16.338825
26.196837
37.445426
57.073832
70.990920
86.614490
93.071461
95.511675
89.030862
75.075626
63.697696
45.012832
32.778978
20.187497
13.395548
8.300543
6.562471
5.384684
4.924536
4.793406
4.704595
4.671812
4.594922
4.508495
4.307628
4.383922
4.324913
4.334450
4.225969
4.201531
##ZVALUE=330
0.524521
0.635982
0.585914
0.564456
0.629425
0.576973
0.646710
0.685453
0.778437
0.645518
0.642538
0.689626
0.834465
0.756979
0.741482
0.685453
0.665784
0.795722
0.869632
0.696778
0.802875
0.608563
0.951886
0.876784
0.902414
0.872612
0.618696
0.985861
0.994802
0.930429
1.050830
1.125932
1.101494
1.243949
1.109838
1.152754
1.191497
1.426935
1.435876
1.272559
1.461506
1.582503
1.522899
1.931787
2.082586
2.465844
3.042817
14.889836
51.458478
169.085860
324.960947
648.635626
964.487791
1015.972495
1015.972495
1015.972495
1015.972495
1015.972495
1015.972495
765.010715
486.986637
227.026939
114.731789
40.288568
15.649796
8.010864
7.438660
8.182526
10.319948
16.707778
24.368763
36.818981
49.299598
67.881942
79.667568
88.311434
88.934898
82.141757
73.406696
56.579709
43.005943
28.366446
20.585656
12.989640
9.677410
6.841421
5.690455
5.037785
4.809499
4.378557
4.324913
4.443526
4.286766
4.449487
4.197955
4.391670
##ZVALUE=335
0.407696
0.363588
0.443459
0.461936
0.357628
0.656843
0.545979
0.399947
0.515580
0.453591
0.448823
0.409484
0.514984
0.458956
0.463724
0.441670
0.616908
0.503659
0.644922
0.575781
0.588894
0.570416
0.664592
0.535846
0.685453
0.761747
0.644922
0.738502
0.784993
0.887513
0.980496
0.774860
0.828505
0.928640
0.983477
0.912547
0.921488
1.137853
1.095533
1.280904
1.160502
1.329780
1.449585
1.365542
1.638532
1.456738
1.997948
1.951456
2.163649
6.295443
24.480820
102.707744
217.479467
481.333733
775.407553
1015.851498
1015.851498
1015.851498
1015.851498
1015.851498
1015.851498
951.495767
645.884871
331.981778
171.477795
56.348443
21.870732
8.963943
7.938743
7.321835
7.840991
10.723472
14.549494
23.601651
33.134818
48.847795
60.666800
75.068474
81.226826
82.430840
77.691674
64.867735
54.811835
41.520596
31.162500
20.077825
14.386773
9.079576
6.668568
5.228519
4.580617
4.294515
3.789663
4.109740
4.350543
3.970861
##ZVALUE=340
0.548959
0.638962
0.653863
0.450611
0.561476
0.537634
0.670552
0.625849
0.435710
0.422597
0.579953
0.515580
0.580549
0.456572
0.529885
0.588894
0.642538
0.506639
0.669956
0.606775
0.608563
0.731945
0.674725
0.672936
0.630617
0.723600
0.809431
0.740886
0.816584
0.883937
0.816584
0.856519
0.811815
0.891685
0.882745
1.014471
0.969768
0.756979
1.057982
1.023412
0.950694
1.106858
1.227856
1.407862
1.383424
1.558661
1.350641
1.647472
1.782775
2.009869
2.312660
3.650784
12.395978
68.290830
167.203546
405.079722
668.860674
1015.902758
1015.902758
1015.902758
1015.902758
1015.902758
1015.902758
1015.902758
791.143775
407.595634
222.456455
88.120699
33.440590
10.371804
7.968545
7.430911
7.597804
8.165836
9.888411
15.213490
21.101832
33.070445
43.677688
60.228705
69.549680
76.929927
77.437758
72.125793
65.397620
52.613616
41.515827
28.811693
20.982623
13.470650
9.451509
6.402731
5.339980
4.491806
4.420877
4.158616
##ZVALUE=345
0.359416
0.482798
0.376701
0.413656
0.428557
0.380874
0.559688
0.294447
0.297427
0.360608
0.436902
0.368953
0.233650
0.403523
0.505447
0.463724
0.626445
0.336766
0.574589
0.309944
0.534654
0.440478
0.585914
0.518560
0.619888
0.581741
0.628829
0.609756
0.596642
0.744462
0.803471
0.863671
0.556707
0.668764
0.666976
0.780821
0.621676
0.851750
0.841618
0.881553
0.863671
0.868440
1.048446
0.910759
0.989437
1.039505
1.119971
1.442432
1.281500
1.314878
1.465678
1.750588
2.182722
2.438426
5.150437
35.403967
101.594925
272.306800
485.216975
878.949761
1015.793681
1015.793681
1015.793681
1015.793681
1015.793681
1015.793681
952.780843
561.344624
313.153863
123.014450
53.725839
16.482472
8.895993
7.498860
6.959438
6.884933
6.997585
9.086728
12.619495
19.927621
28.969646
42.744875
52.523613
62.869787
68.498850
72.275996
69.439411
60.935616
52.927732
40.605664
30.070543
19.240975
14.152527
8.796453
6.800890
5.327463
##ZVALUE=350
0.255704
0.387430
0.470877
0.239611
0.461936
0.451803
0.226498
0.272989
0.512600
0.331998
0.416636
0.416636
0.259876
0.384450
0.526905
0.418425
0.399947
0.459552
0.552535
0.503659
0.470877
0.591874
0.488758
0.625849
0.623465
0.535846
0.658631
0.749826
0.498891
0.669956
0.753999
0.477433
0.524521
0.721812
0.604987
0.755787
0.720620
0.723600
0.935793
0.853539
0.789762
0.854731
0.914931
0.975728
1.012683
1.144409
1.067519
1.149774
1.075864
1.348853
1.352429
1.498461
1.597404
1.499653
1.835823
2.125502
3.037453
17.076731
56.282878
176.112652
333.083868
666.268468
972.886682
1015.793681
1015.793681
1015.793681
1015.793681
1015.793681
1015.793681
668.216944
407.727957
183.708668
85.234642
22.920966
9.933710
7.108450
6.544590
6.037951
5.731583
6.369948
8.201599
12.731552
17.883778
26.237965
34.612417
47.338605
55.274963
62.974691
65.166950
63.157678
57.901740
47.049522
38.520694
26.963949
20.110607
13.173819
##ZVALUE=355
0.332594
0.481606
0.467896
0.415444
0.462532
0.420809
0.385642
0.464916
0.264645
0.518560
0.557899
0.323653
0.402927
0.497699
0.451803
0.510812
0.435710
0.448823
0.473857
0.443459
0.506639
0.435710
0.549555
0.461936
0.412464
0.557899
0.586510
0.469685
0.531673
0.559688
0.498891
0.443459
0.630617
0.561476
0.534654
0.677705
0.704527
0.775456
0.778437
0.809431
0.866652
0.849962
0.788569
0.699759
0.899434
1.071692
0.937581
0.874996
0.947714
1.129508
1.278520
1.382828
1.020432
1.345873
1.473427
1.646876
1.944900
2.043843
2.416968
8.004904
31.870604
121.914744
247.938633
509.800911
808.174014
1015.793681
1015.793681
1015.793681
1015.793681
1015.793681
1015.793681
852.130651
546.255708
243.684649
115.120411
34.102798
12.631416
6.972551
6.479621
5.916953
5.395412
5.446672
5.854964
7.505417
9.868741
15.679598
21.364689
31.091571
39.364696
49.373507
55.406690
59.246421
58.162808
52.370429
45.437813
36.009550
##ZVALUE=360
0.349879
0.376701
0.362992
0.587702
0.432730
0.478625
0.611544
0.600815
0.472665
0.523925
0.522733
0.333786
0.468493
0.471473
0.337958
0.434518
0.359416
0.408888
0.531673
0.517964
0.433922
0.629425
0.591874
0.495911
0.357628
0.757575
0.366569
0.540614
0.518560
0.496507
0.609756
0.502467
0.533462
0.659823
0.801682
0.734925
0.563860
0.686646
0.884533
0.724792
0.807643
0.844598
0.792742
0.794530
0.916719
1.024604
0.922680
1.144409
1.008511
0.963807
0.993609
0.880957
1.126528
1.283884
1.212955
1.517534
1.475811
1.714826
1.748800
1.950860
2.360940
3.752708
13.302565
65.090656
158.548951
383.832455
631.999969
994.739532
1015.763879
1015.763879
1015.763879
1015.763879
1015.763879
989.500880
684.270859
340.330005
177.780986
64.284801
23.780465
7.609725
6.465912
5.757809
5.649924
5.395412
5.084872
5.364418
6.112456
8.555651
11.780858
17.799735
25.038719
35.169721
42.472482
49.915910
53.246617
53.589940
##ZVALUE=365
0.444651
0.434518
0.233650
0.364780
0.340939
0.471473
0.406504
0.575781
0.526905
0.461936
0.488758
0.452995
0.382662
0.338554
0.493526
0.412464
0.443459
0.531673
0.494719
0.590682
0.416636
0.623465
0.610948
0.676513
0.477433
0.538826
0.630617
0.517964
0.572801
0.664592
0.668764
0.512600
0.547767
0.570416
0.484586
0.691414
0.587702
0.654459
0.820756
0.653863
0.660419
0.807643
0.700951
0.683665
0.947714
0.702739
0.933409
0.894666
0.940561
0.908971
1.030564
1.068711
0.953674
1.198649
1.278520
1.438856
1.278520
1.427531
1.364946
1.675487
1.593828
1.986623
2.220869
2.720952
5.627871
33.347607
95.019937
259.881616
462.456942
826.005936
1015.793681
1015.793681
1015.793681
1015.793681
1015.793681
1015.793681
811.156631
459.982753
261.218548
98.167658
38.412809
9.696484
6.337762
5.795956
5.636811
5.098581
4.587770
4.885793
4.830956
5.136728
6.939769
10.648966
14.266968
21.266937
28.104782
36.535859
##ZVALUE=370
0.406504
0.371933
0.309944
0.429749
0.354648
0.391603
0.334978
0.321865
0.492930
0.467896
0.355840
0.413656
0.533462
0.480413
0.387430
0.301600
0.455976
0.435710
0.401735
0.468493
0.452995
0.500679
0.561476
0.418425
0.575781
0.473857
0.629425
0.483990
0.480413
0.473857
0.602603
0.542998
0.602603
0.633597
0.672936
0.619888
0.604987
0.565648
0.609756
0.707507
0.624657
0.630617
0.785589
0.738502
0.743866
0.796914
0.842810
0.919700
0.731945
0.761747
0.809431
0.827909
0.894666
0.944734
1.055598
1.149774
1.394749
1.188517
1.180768
1.427531
1.431704
1.605749
1.752973
1.668930
2.117753
2.498627
3.630519
18.558502
62.492490
192.091465
352.641940
674.190521
975.144506
1015.794873
1015.794873
1015.794873
1015.794873
1015.794873
959.520936
542.842746
307.191610
122.463703
55.058599
17.277598
7.609725
5.442500
5.039573
4.601479
4.463792
4.146695
3.958941
4.012585
4.616976
6.453991
8.569956
13.132691
##ZVALUE=375
0.301600
0.187755
0.407696
0.304580
0.365973
0.429749
0.346899
0.307560
0.537634
0.382662
0.514984
0.491738
0.484586
0.284910
0.332594
0.333786
0.488758
0.435710
0.401735
0.467896
0.420809
0.371933
0.360608
0.377893
0.386834
0.479817
0.330806
0.509620
0.542998
0.407696
0.462532
0.516772
0.533462
0.487566
0.569820
0.612736
0.662804
0.595450
0.490546
0.573993
0.467896
0.454783
0.661612
0.534654
0.617504
0.655651
0.628829
0.661612
0.661612
0.765920
0.784993
0.661612
0.622869
0.781417
0.880957
0.974536
0.971556
1.046658
0.957847
1.033545
1.127720
1.111627
1.238585
1.217723
1.376867
1.727939
1.715422
1.978874
2.664924
8.197427
31.871796
118.060708
246.872902
536.493659
834.260583
1015.793681
1015.793681
1015.793681
1015.793681
1015.793681
1015.793681
693.454742
427.928567
193.988681
97.572803
30.451417
10.885596
5.463958
4.948974
4.604459
4.245639
3.872514
3.819466
3.802776
3.745556
4.037619
##ZVALUE=380
0.317693
0.291467
0.381470
0.278950
0.320673
0.274777
0.296831
0.402927
0.422597
0.364780
0.277758
0.290871
0.539422
0.269413
0.196695
0.505447
0.236630
0.360608
0.472665
0.464916
0.277758
0.387430
0.573993
0.450611
0.512600
0.477433
0.339746
0.366569
0.510812
0.327826
0.475645
0.434518
0.444651
0.451803
0.615716
0.485778
0.476837
0.427961
0.465512
0.568628
0.589490
0.563860
0.456572
0.571609
0.462532
0.560880
0.749826
0.668764
0.600815
0.575781
0.714660
0.602603
0.719428
0.770688
0.780821
0.816584
0.894666
0.814795
0.762939
0.907779
0.865459
0.969768
1.115799
1.105666
1.161695
1.274943
1.436472
1.616478
1.807809
2.179742
2.305508
4.339814
16.506910
81.430674
187.292695
431.433916
696.422458
1015.794873
1015.794873
1015.794873
1015.794873
1015.794873
1015.794873
921.431780
615.601540
300.734639
151.578784
50.570965
19.037724
6.260872
4.906654
4.295707
4.035830
3.779531
3.458858
3.642440
##ZVALUE=385
0.351667
0.341535
0.345707
0.402927
0.271797
0.382662
0.249743
0.202656
0.267625
0.295639
0.359416
0.286698
0.393987
0.223517
0.302792
0.323653
0.274777
0.339746
0.393987
0.257492
0.234842
0.420809
0.160933
0.431538
0.394583
0.327826
0.459552
0.509620
0.374913
0.399947
0.425577
0.397563
0.357628
0.385642
0.581741
0.424981
0.346899
0.483990
0.459552
0.418425
0.430942
0.460744
0.309944
0.531673
0.579953
0.439882
0.617504
0.268817
0.460744
0.578761
0.628829
0.490546
0.606775
0.747442
0.630617
0.651479
0.654459
0.738502
0.569820
0.705719
0.678897
0.864863
0.921488
1.012683
1.023412
1.149774
1.193881
1.265407
1.500845
1.705885
1.806617
2.157688
2.260804
2.735853
8.096695
50.659776
130.444765
320.860744
560.732484
967.831016
1015.793681
1015.793681
1015.793681
1015.793681
1015.793681
1015.793681
794.036984
431.753993
239.673853
94.949603
36.641955
9.102821
4.962683
4.215837
3.806949
3.640652
##ZVALUE=390
0.276566
0.241995
0.343919
0.163913
0.417829
0.340939
0.257492
0.312924
0.210404
0.257492
0.419617
0.266433
0.226498
0.362992
0.440478
0.373721
0.261664
0.235438
0.325441
0.407696
0.446439
0.205636
0.534654
0.303984
0.486970
0.530481
0.351667
0.287890
0.358820
0.320673
0.563860
0.380874
0.443459
0.457764
0.454783
0.393987
0.454783
0.476837
0.489950
0.524521
0.483990
0.427961
0.455976
0.406504
0.441670
0.476837
0.505447
0.565648
0.525713
0.517964
0.468493
0.611544
0.536442
0.463724
0.602603
0.702739
0.683665
0.781417
0.717640
0.763535
0.798702
0.870824
0.751615
0.916719
0.912547
0.838637
1.156926
1.262426
1.421571
1.563430
1.764894
1.935959
1.874566
1.914501
2.112985
2.326965
4.364848
34.678578
111.540556
304.053426
530.714989
910.562873
1015.794873
1015.794873
1015.794873
1015.794873
1015.794873
1015.794873
977.281928
607.506633
352.448821
141.223669
62.131882
15.473962
6.110668
4.214644
##ZVALUE=395
0.369549
0.212789
0.325441
0.425577
0.247955
0.178814
0.234842
0.417829
0.255704
0.230670
0.289679
0.139475
0.276566
0.226498
0.337958
0.318885
0.468493
0.290871
0.252724
0.371933
0.317693
0.329614
0.257492
0.267625
0.390410
0.371933
0.469685
0.466704
0.499487
0.481606
0.318885
0.447631
0.348687
0.398755
0.313520
0.448823
0.341535
0.420809
0.369549
0.382662
0.389814
0.419617
0.489950
0.421405
0.447631
0.428557
0.483990
0.614524
0.506639
0.340939
0.433922
0.533462
0.520945
0.601411
0.542998
0.555515
0.566840
0.674725
0.564456
0.732541
0.723600
0.675917
0.791550
0.817776
0.822544
1.000762
1.070499
0.998974
1.148582
1.257658
1.456738
1.594424
1.460910
1.557469
1.796484
1.685619
1.984835
1.926422
2.614856
13.454556
53.274632
197.512507
389.604568
743.216872
1010.470986
1015.786529
1015.786529
1015.786529
1015.786529
1015.786529
1015.786529
754.770637
477.680564
220.279694
102.214813
31.098723
##ZVALUE=400
0.270605
0.256896
0.348687
0.291467
0.244975
0.354648
0.287890
0.235438
0.215769
0.193715
0.304580
0.264645
0.307560
0.235438
0.266433
0.410676
0.341535
0.265837
0.365973
0.194907
0.315905
0.425577
0.383854
0.433922
0.299811
0.342727
0.285506
0.188947
0.260472
0.357628
0.199676
0.239611
0.271797
0.510812
0.424981
0.352859
0.447631
0.364780
0.419617
0.511408
0.411868
0.438690
0.522733
0.422597
0.345707
0.504851
0.362992
0.503659
0.385642
0.471473
0.554919
0.726581
0.594854
0.591874
0.584722
0.590682
0.586510
0.682473
0.691414
0.454783
0.639558
0.696778
0.586510
0.795722
0.851750
0.977516
0.893474
1.067519
1.105666
1.466870
1.465678
1.419783
1.535416
1.554489
1.549721
1.529455
1.530647
1.538992
1.729727
2.017617
2.286434
7.075667
27.364492
106.026530
233.938694
523.490906
830.404758
1015.779972
1015.779972
1015.779972
1015.779972
1015.779972
1015.779972
931.414962
614.725947
302.614570
##END
