##TITLE=FAAI0801
##FORMAT=SPECTACLE-ASCII V-1.2
##DATA TYPE=ULTRAVIOLET SPECTRUM
##SECOND TYPE=ULTRAVIOLET SPECTRUM
##DATE=10/24/17
##TIME=16:51:53
##SPECTROMETER/DATA SYSTEM=SPECTACLE
##XUNITS=NM EM
##YUNITS=ENERGY
##YFACTOR=1
##FIRSTX=220
##LASTX=410
##NPOINTS=96
##3DDATA=Equidistant
##ZUNITS=NM EX
##FIRSTZ=210
##LASTZ=400
##ZPOINTS=39
##XYDATA=(Y..Y)
##ZVALUE=210
4.205704
4.086494
3.462434
3.394485
4.065633
3.492832
4.062653
3.563762
4.024506
3.385544
3.859997
3.620982
3.164411
3.110766
2.928972
2.816916
3.305674
3.571510
3.568530
3.934503
4.175901
4.689693
5.007982
5.012751
4.891753
5.366802
5.450845
6.479621
5.723834
6.335974
7.168651
7.056594
6.848574
6.835461
7.358789
7.123947
7.783771
7.349849
6.719828
7.464886
7.713437
8.438826
7.484555
8.642673
8.302927
8.322597
8.219481
8.135438
8.165836
8.880496
8.183718
9.584427
8.702874
9.450912
8.708835
9.234548
7.696748
7.641912
8.735657
8.449554
9.095669
9.266734
9.132624
9.095669
8.364916
10.185838
10.686517
10.412931
11.213422
13.844967
15.685558
18.389821
17.150640
20.601749
20.977855
23.347735
23.571849
21.450520
20.951629
20.089746
19.297600
16.951561
14.625788
14.164448
11.052489
11.141896
8.586645
8.249879
8.458495
8.603930
7.635951
8.123517
8.753538
8.264780
8.666515
9.907484
##ZVALUE=215
15.501976
15.591979
12.272596
11.967421
7.576942
7.443428
6.949902
7.054806
7.743835
7.544756
6.377697
6.619692
5.444884
5.069971
3.913641
3.977418
3.396869
3.485680
3.718734
4.722476
4.474521
5.203485
4.970431
5.155802
5.410910
6.211996
6.207824
6.389618
7.676482
7.709861
7.325411
8.175969
7.310510
8.223653
8.757710
9.012818
7.872581
9.797812
8.735657
8.001924
8.984804
9.771585
8.691549
9.331703
9.003878
8.379817
9.077787
8.868575
9.679794
10.193586
9.713769
8.490682
9.506941
9.028912
10.603666
9.039640
10.175705
9.171963
9.766817
8.854866
8.874536
10.076761
9.453893
9.742975
9.970665
9.644628
10.174513
11.074543
12.002587
12.392998
13.625622
15.625954
15.887618
18.852949
19.279718
19.844770
19.939542
19.463897
19.500852
18.636584
17.904639
15.983582
15.960932
13.646483
11.843443
9.595752
10.140538
8.452535
8.852482
8.984804
8.483529
7.748604
7.922649
8.194447
8.465648
7.869601
##ZVALUE=220
45.516491
45.895576
49.425960
43.497682
37.884712
31.417608
25.203824
18.083453
14.510751
13.678670
12.853742
12.874603
15.234947
13.130903
10.752678
10.292530
6.404519
5.552769
4.750490
4.972816
4.401803
4.425645
5.062819
5.716681
5.282760
6.113648
6.519556
6.912947
7.943511
9.154677
8.564591
8.882880
8.986592
10.518432
10.264516
10.767579
11.780858
12.065768
11.010766
10.865927
12.262464
12.824535
11.934638
11.520982
10.797977
11.783838
11.883974
10.856986
11.237860
11.900663
11.462569
12.085438
12.670755
11.468530
11.780858
12.451410
12.636781
12.182593
12.032986
11.880994
10.730624
12.223721
12.975931
11.532903
11.527538
13.088584
13.117790
13.466477
12.799501
16.808510
16.015768
18.390417
19.818544
21.066666
20.856857
22.634864
21.596551
22.110939
21.073818
20.397902
18.081665
18.022656
17.327666
14.893413
14.108419
12.686849
11.846423
11.741519
10.855794
11.138916
12.263656
10.723472
11.105537
10.054708
10.259748
10.363460
##ZVALUE=225
73.390603
80.007911
95.882416
118.562579
121.865869
117.672682
105.878711
80.103874
59.149861
44.206977
31.878948
28.202534
29.552579
30.434728
29.207468
25.823712
22.251606
17.790794
14.536977
10.456443
7.912517
5.451441
5.754828
6.021857
5.708933
7.384419
6.480813
7.414818
8.247495
9.578466
8.916855
9.715557
10.724664
12.454987
12.594461
12.699962
13.165474
13.237596
13.096929
13.381839
15.248656
14.091730
14.842749
13.326406
14.783740
15.366673
16.276836
15.116930
16.487837
16.631484
16.017556
16.281605
16.369820
17.251968
18.550754
16.783476
18.493533
17.009974
17.272830
17.779469
17.120838
17.578602
17.289519
17.083883
18.976927
19.234419
18.071532
18.392801
19.717813
21.145940
22.969842
24.428964
25.877953
25.076866
26.227832
26.920438
27.133822
26.983619
25.503635
23.022890
20.135641
20.573735
20.969510
20.022988
19.301772
18.689632
16.879439
16.329885
16.047955
16.053915
14.082789
14.460683
15.771985
14.951825
14.724731
14.922619
##ZVALUE=230
60.450435
67.440867
99.367499
166.425705
207.837820
249.303579
265.764594
261.713862
228.305459
171.086788
125.694871
90.031624
58.351755
49.662590
49.636960
52.644610
50.688982
50.874949
43.475628
38.768649
26.476979
19.903779
12.666583
9.674430
6.509423
7.357597
7.029772
7.081628
8.680820
8.225441
8.063912
9.814501
9.932518
9.783506
10.985732
12.023449
13.743639
14.292598
14.170408
15.303493
16.093850
15.864968
17.312765
18.615723
18.589497
19.976497
20.180941
21.719933
23.578405
23.515821
24.903417
25.812984
24.987459
26.390553
27.107596
26.033521
26.090741
27.061701
25.071502
28.972626
28.491616
27.735829
28.055906
29.200912
27.242899
29.635429
28.518438
29.278994
31.194687
31.424761
33.489466
31.826496
33.888817
39.145947
36.737919
36.127567
35.919547
34.424663
35.980940
33.778548
31.854510
32.755733
30.707717
29.466748
26.700497
26.957989
26.066899
23.038983
23.324490
23.730993
21.798611
23.004413
22.621751
21.134615
21.965504
20.908713
##ZVALUE=235
19.367933
22.470951
45.535564
110.133886
181.406736
275.198817
357.587934
451.363921
486.853719
484.077930
424.476862
353.024602
236.488581
170.085430
111.195445
85.752606
77.471733
80.436468
84.051490
86.763501
78.961849
67.732930
50.560832
36.754608
25.521517
18.246770
13.577938
9.212494
9.444952
9.249449
9.453893
8.331537
10.325909
10.669827
10.821819
12.109876
13.248920
13.418794
15.524626
15.878677
18.294454
18.531680
20.897985
26.025772
27.041435
28.026700
29.697418
31.363964
32.220483
33.857822
36.208630
39.066672
39.615631
41.813850
39.983988
39.901733
39.667487
41.114688
44.475794
43.891668
44.521689
43.487549
45.230985
43.198466
42.943954
45.359731
45.269728
44.995546
47.171712
45.214891
49.915910
49.075484
50.994754
50.965548
53.346753
52.963495
51.468611
49.178600
51.976442
48.221946
47.032833
45.311451
44.423938
39.759874
39.617419
40.369630
35.934448
36.202669
36.401749
34.003854
33.015609
33.095479
30.563474
29.557943
32.395720
31.501651
##ZVALUE=240
2.216697
3.320575
9.179711
20.599961
65.901875
120.810866
246.064663
373.265743
545.436740
659.036636
740.431547
740.305781
682.850480
533.206463
411.649942
262.308717
179.400444
118.498802
102.447867
101.904869
108.900666
112.472773
111.965537
102.122426
83.729625
67.289472
47.916770
36.047697
22.339821
16.962886
13.866425
11.815429
11.893511
10.168552
12.043715
12.411475
12.670755
16.102791
17.379522
20.486712
21.901727
24.526715
27.979612
31.442642
34.398437
36.699772
43.765903
46.969652
46.463609
48.215985
53.510666
54.316521
56.934953
57.462454
58.399439
59.051514
57.527423
57.263970
59.096813
59.844851
56.988001
58.069825
60.345531
59.176683
59.338808
59.664845
59.075952
58.703423
63.539743
60.628653
61.843991
64.938664
65.240860
63.856840
65.227747
64.514875
63.102841
61.839819
61.230659
56.517720
57.580471
56.015849
54.226518
50.897002
49.827695
49.135685
50.573945
43.471456
45.975447
41.612983
42.671561
41.305423
39.907694
36.871433
36.806464
37.076473
##ZVALUE=245
2.338886
2.051592
2.255440
2.892613
5.250573
14.360547
50.637722
106.644630
246.956944
377.289653
587.139726
741.418600
857.058764
905.028582
854.521990
709.898472
574.706793
380.675793
255.481005
152.933002
112.935901
100.137591
111.369491
124.710798
126.275420
124.897957
112.599730
100.706816
73.690414
58.098435
43.509603
26.836991
19.925833
15.040636
14.921427
14.379621
14.622808
15.296936
17.676950
22.047758
24.814606
29.711723
31.995773
37.189722
39.313436
44.752955
49.965978
52.787662
55.946708
60.828924
61.823726
64.725876
64.449906
67.096949
69.029927
68.990588
70.678592
67.582726
67.023635
66.312551
65.272450
65.554976
66.522956
64.426661
64.217448
65.845847
63.329935
61.957836
59.480667
60.786605
61.273575
65.630674
63.714981
61.805844
64.607859
62.762499
61.272979
60.126781
62.171817
56.749582
56.991577
51.911473
51.252842
51.072836
49.517751
46.507716
45.727491
43.282509
44.643879
44.709444
43.532848
41.061640
40.171742
39.492846
38.201809
37.667751
##ZVALUE=250
1.714826
2.109408
1.939535
2.159476
2.409816
2.408624
3.358722
9.902716
39.518476
87.505579
215.131640
354.660749
532.943010
771.548748
927.623510
1015.793681
1013.662815
912.122726
759.677887
529.685616
348.377824
220.896006
127.899647
100.877881
105.736852
119.310617
135.111809
140.071511
136.185884
128.274560
107.907653
81.922412
60.637593
41.521788
29.817820
22.064447
17.816424
16.630888
19.196868
21.730661
24.988651
30.056834
33.626556
39.137602
42.922497
48.807859
52.342415
55.361986
57.964921
62.901974
65.801740
68.335533
67.760944
71.084499
69.053769
68.328977
70.371628
69.458485
68.711638
65.807700
65.723658
63.016415
61.746836
61.357617
60.894489
60.742497
57.215691
57.154894
55.091977
56.708455
54.421425
56.001544
56.017637
54.833889
53.299665
55.172443
53.484440
51.046610
51.675439
48.894882
48.615932
46.806931
44.107437
44.106841
43.359995
42.467713
43.032765
40.291548
39.813519
38.079619
37.836432
35.987496
36.670566
34.656525
34.401417
33.981800
##ZVALUE=255
1.478791
1.163483
1.392961
1.352429
1.293421
1.237988
1.483560
1.978874
2.489686
4.436970
25.524497
65.581799
135.345459
299.128890
475.815535
755.286813
939.978957
1015.526652
1015.526652
1015.526652
956.469774
759.299994
471.837521
294.293761
153.802633
106.567740
92.103481
103.668571
129.189491
143.617988
149.130821
141.695738
131.453872
106.936693
85.100532
61.063766
45.325756
31.207800
26.282668
24.343729
24.912953
27.792454
32.652617
37.035942
41.120648
44.233799
45.406818
50.828457
55.255890
56.436658
58.248639
62.853694
62.864423
62.142611
63.860416
63.689947
61.724782
62.281489
60.774684
60.513616
57.725906
56.868792
54.477453
52.618980
52.945614
50.858855
49.418807
49.178600
48.496723
48.635602
46.776533
47.499537
47.092438
48.519969
45.339465
46.188831
43.778419
43.993592
43.033957
42.151809
41.344762
40.334463
38.888454
37.662983
37.966967
37.535429
35.424829
35.617948
33.961535
33.561587
32.766461
32.527447
32.511950
32.156706
32.256842
29.770732
##ZVALUE=260
1.447797
1.541972
1.472831
1.656413
1.531839
1.494884
1.393557
1.666546
1.881719
1.943707
2.602935
2.861619
8.640885
38.925409
92.563629
237.892866
396.075845
667.254925
894.762874
1015.793681
1015.793681
1015.793681
1015.793681
942.878723
625.463724
415.569544
231.262445
142.323971
90.357661
86.179972
103.693604
129.019618
144.264698
154.675841
150.578618
136.832595
117.884874
87.818503
68.889856
48.897862
41.295886
34.014583
31.875968
33.954978
36.409497
39.074421
42.233467
43.152571
45.955777
48.211813
49.875975
52.286983
51.016808
51.158667
51.848888
50.764680
51.521659
49.587488
49.885511
47.837496
47.799945
44.348836
43.733716
43.730736
42.670965
41.558743
40.838718
40.308833
39.809942
38.932562
39.181709
40.229559
39.455891
39.232969
40.430427
38.393736
38.389564
38.003922
37.965775
36.603808
35.008788
34.431815
35.366416
33.022761
32.402873
31.258464
32.607913
31.588674
31.531453
31.046867
30.717850
28.698444
27.716756
27.655959
27.220845
27.668476
##ZVALUE=265
1.439452
1.256466
1.169443
1.243949
1.403689
1.380444
1.520514
1.651645
1.771450
1.761913
2.027750
1.968741
2.022982
2.480745
5.668402
18.378496
69.055557
151.275396
353.785753
570.716858
904.469490
1015.793681
1015.793681
1015.793681
1015.793681
1015.793681
865.615606
541.483760
342.174768
175.045729
105.973482
78.120828
83.134770
114.237666
133.136511
154.814720
161.556602
154.787898
141.786933
119.670630
100.150704
74.143410
58.439970
45.727491
38.186908
36.236644
36.544800
39.382577
38.668513
40.363669
42.087436
41.844845
42.104721
43.633580
41.711926
41.511655
39.796829
39.505959
39.358735
37.890673
38.070679
36.850572
36.630630
35.312772
35.526752
34.615993
34.086704
33.251643
33.769608
33.771992
34.359694
33.295751
35.107732
33.647418
34.022927
33.047795
34.060478
33.916831
32.052994
32.637715
32.564998
30.392408
29.318929
29.599667
29.824972
28.977990
28.581619
28.312802
27.310848
26.356578
26.790500
25.761724
25.325418
25.353432
24.637580
26.125908
##ZVALUE=270
1.284480
1.237988
1.118779
1.294613
1.323819
1.131892
0.995994
1.200438
1.473427
1.297593
1.774430
1.556873
1.500845
1.683831
1.663566
2.169609
2.702475
11.650920
36.628842
121.103525
251.259804
452.011824
816.826820
1015.793681
1015.793681
1015.793681
1015.793681
1015.793681
1014.164686
779.277682
528.210402
268.871784
151.938796
78.472495
67.021847
90.392828
111.341476
140.693784
156.259537
164.979696
162.129998
144.859552
127.895474
102.102757
82.372427
60.476661
49.804449
41.706562
38.087964
36.379695
35.985708
37.459731
37.584901
37.609935
36.625862
36.197901
35.590529
35.033822
34.261942
33.350587
32.528639
32.722950
31.813979
31.930804
30.915737
30.511618
29.272437
30.484796
29.414892
29.899478
31.206608
30.153990
32.594800
31.295419
31.200647
30.804873
30.557513
29.935837
30.212998
29.254556
28.612614
27.807951
26.907921
27.119517
26.835799
26.608706
26.853681
26.589632
24.767518
25.130510
24.493933
23.500919
23.177862
23.743510
23.930669
23.231506
##ZVALUE=275
1.022816
1.024604
1.025796
1.059771
1.052618
0.974536
1.042485
1.136661
1.112819
1.266599
1.296997
1.485944
1.540780
1.784563
1.688600
1.901984
1.853704
2.242923
2.350807
5.589724
22.360682
65.377951
196.704865
378.043652
721.325874
984.746814
1015.789509
1015.789509
1015.789509
1015.789509
1015.789509
962.374806
675.119758
352.883935
200.537443
91.059804
62.649846
66.127777
86.843967
118.473768
139.115453
160.040855
167.112947
163.898468
151.264668
126.127005
105.166435
81.218481
64.702630
48.893690
42.370558
36.408901
34.214854
34.025908
33.470988
32.785535
31.818748
31.274557
31.270981
31.075478
30.844808
30.593872
30.710697
30.645728
30.704737
29.494762
28.896928
29.173493
29.212832
29.468536
30.068755
29.376745
30.809641
31.441450
31.865835
30.187964
30.264854
29.566884
29.478669
28.294921
27.625561
27.721524
26.393533
26.372671
26.241541
25.363564
25.336742
24.690628
24.305582
24.077892
23.116469
23.641586
22.804737
23.099780
22.690892
21.692514
##ZVALUE=280
0.878572
0.901818
0.998974
0.858903
1.065731
0.949502
1.090765
1.107454
1.042485
1.178980
1.094937
1.241565
1.339912
1.397729
1.088977
1.493692
1.529455
1.744628
1.931787
1.937747
2.640486
2.860427
15.235543
50.322413
160.608888
301.959515
569.193959
842.914581
1015.793681
1015.793681
1015.793681
1015.793681
1015.793681
1015.793681
808.035731
449.950695
267.812610
119.353533
67.587495
51.849484
65.893531
90.737939
113.290548
140.258670
156.374574
164.189935
162.183642
146.150589
129.718781
102.284551
81.858635
60.754418
48.247576
37.933588
33.074617
30.913949
29.383898
28.977990
28.527975
28.601885
28.494000
28.067827
28.321743
28.208494
29.166937
27.979612
28.390884
28.965473
28.142929
29.140711
29.616952
29.030442
28.922558
29.690862
30.154586
29.338598
29.887557
28.498769
28.299689
28.256774
26.831627
26.708841
26.679635
25.950670
25.596619
25.610924
24.656653
24.839640
24.340749
23.555756
22.775531
23.350716
22.593737
21.811724
21.584630
22.066832
##ZVALUE=285
0.899434
0.814795
0.933409
1.015663
0.764728
0.854731
0.857711
0.858903
0.951886
0.879765
0.895858
1.241565
1.056790
1.016855
1.079440
1.394749
1.330972
1.447797
1.502633
1.643896
1.730919
1.954436
2.461672
2.361536
7.548928
26.818514
92.603564
196.339488
430.036783
670.156479
937.104821
1015.788913
1015.788913
1015.788913
1015.788913
1015.788913
979.687572
611.479878
382.540822
175.997615
92.399716
46.706796
44.118762
63.005686
83.560944
113.609433
132.257938
152.573586
158.279538
156.361461
144.237876
122.141838
102.588534
76.003671
59.695840
41.396618
33.589602
28.125644
26.139617
25.122762
25.128722
24.249554
25.186539
25.446415
25.171638
25.448799
25.360584
26.335716
26.026964
27.063489
27.161837
27.368665
28.016567
28.018951
27.752519
27.674437
27.904510
27.977824
27.101636
27.899742
27.123690
26.077628
26.362538
25.504827
25.420785
24.871826
24.327636
23.931861
24.055839
23.430586
23.152828
22.556782
22.497773
22.081733
21.140575
21.697879
##ZVALUE=290
0.678897
0.721812
0.749826
0.842810
0.973940
0.850558
0.755787
0.731945
0.797510
0.948906
0.870824
0.953674
1.108646
1.024604
1.294613
1.277924
1.258850
1.280904
1.451969
1.298785
1.466870
1.485944
1.707673
2.003908
2.079606
2.264977
2.938509
13.826489
43.329000
135.462880
263.070464
546.180606
824.693441
1015.793681
1015.793681
1015.793681
1015.793681
1015.793681
1015.793681
779.780746
509.430766
253.948569
131.842494
53.594708
34.211874
40.530562
55.160522
79.518557
100.176930
126.204491
140.543580
151.908994
150.308609
136.966705
116.980672
91.624856
71.840882
50.569773
39.840937
29.503703
24.399757
22.218823
21.117926
21.455884
21.475554
22.146702
22.549629
22.894740
23.132563
23.445487
23.973584
24.943948
24.918914
26.057959
25.400519
25.739670
26.167631
25.037527
25.161505
24.905801
25.084615
25.108457
25.143623
24.281740
25.259852
24.226904
23.897886
23.693442
23.024678
23.258924
22.741556
22.403598
21.754503
21.819472
21.237731
20.657778
##ZVALUE=295
0.799894
0.778437
0.639558
0.781417
0.723600
0.766516
0.972748
0.913739
0.882745
0.767708
0.749826
0.816584
0.775456
0.967979
0.965595
1.090765
1.213551
1.081824
1.107454
1.162887
1.230836
1.313686
1.171827
1.449585
1.755953
1.823902
2.221465
2.101660
2.621412
4.280806
16.133785
72.897673
170.496702
412.207842
670.008659
1015.797853
1015.797853
1015.797853
1015.797853
1015.797853
1015.797853
935.325027
645.021796
338.327885
183.399916
68.093538
35.442710
26.219487
33.039451
51.234961
69.688559
94.712973
114.362836
133.382678
141.468644
139.824748
128.616691
109.082460
88.757873
64.360499
49.980879
33.593774
26.799440
21.135807
18.884540
18.622875
18.471479
18.820763
20.036697
20.183921
20.397902
21.452904
21.844506
21.990538
22.164583
22.643805
23.551583
23.473501
23.131967
23.461580
22.979975
23.379922
23.739934
23.373961
23.431778
23.665428
23.907423
23.650527
23.090839
22.313595
22.368431
22.232533
21.891594
21.354556
21.193624
20.638704
##ZVALUE=300
0.561476
0.547767
0.617504
0.637770
0.732541
0.705719
0.686646
0.839829
0.697970
0.674725
0.760555
0.862479
1.031756
0.758767
0.864863
0.806451
0.944734
0.834465
0.831485
1.014471
1.208782
1.042485
1.010895
1.419783
1.306534
1.438856
1.734495
1.688600
1.789927
2.156496
2.136827
2.862811
10.786653
37.839413
130.599737
257.881880
539.084673
828.085542
1015.793681
1015.793681
1015.793681
1015.793681
1015.793681
1015.793681
770.937800
499.075651
247.966647
131.462812
49.507618
24.691820
21.610856
28.669834
45.065880
59.555769
84.463954
103.081465
125.021935
130.695701
129.838586
122.434497
103.076696
86.807609
62.631965
47.498941
32.987595
24.704933
19.904971
17.940998
17.326474
17.072558
18.453598
19.048452
19.311905
20.112991
20.279884
21.011829
21.846890
22.007823
22.365451
22.604465
22.915602
22.819638
23.086667
23.027658
23.487806
23.392439
23.438931
23.329854
23.589730
22.836924
23.154616
22.385716
22.046566
21.814704
21.699667
21.720529
##ZVALUE=305
0.600815
0.681877
0.621676
0.609756
0.644922
0.646710
0.757575
0.447631
0.659823
0.715852
0.643730
0.851750
0.829697
0.620484
0.718832
0.731945
0.732541
0.844598
0.827909
0.765920
0.717640
0.836849
0.957847
1.130700
1.242757
1.063943
1.434684
1.325607
1.361966
1.582503
1.507998
1.829863
2.047420
2.526641
4.302859
26.341677
73.858500
210.919976
384.688377
716.561675
990.183949
1015.780568
1015.780568
1015.780568
1015.780568
1015.780568
960.390568
602.637529
369.505882
164.654851
80.335736
28.266907
16.803741
19.318461
26.627779
42.276978
58.615804
81.500411
97.902417
117.307901
125.332475
123.035908
115.235448
98.867416
81.043839
58.740973
45.494437
32.755733
25.481582
20.307899
18.820763
18.611550
19.130707
19.779801
20.254850
21.333694
21.636486
22.155643
22.846460
22.837520
23.145676
24.492741
23.859739
24.433732
24.507642
24.482608
24.817586
24.349689
24.035573
23.868680
23.511648
23.319721
23.090839
22.788644
22.626519
22.298694
##ZVALUE=310
0.766516
0.721812
0.573993
0.696778
0.689626
0.829697
0.698566
0.737906
0.789762
0.795722
0.743866
0.778437
0.749826
0.791550
0.739694
0.929832
0.889897
0.966787
0.915527
0.988841
0.819564
0.872612
1.173615
1.308918
1.117587
1.190901
1.460910
1.357794
1.377463
1.565814
1.644492
1.691580
1.662970
1.960993
2.003908
2.267957
2.691746
11.696815
38.836598
128.743649
255.468488
533.156991
814.355612
1015.951633
1015.951633
1015.951633
1015.951633
1015.951633
1015.951633
788.476467
519.583821
259.006619
134.320855
48.146844
20.460486
13.648868
16.601682
25.799870
36.142468
54.071546
71.174502
92.014670
107.529759
118.049979
120.439529
109.779835
100.370646
81.089735
65.047741
45.594573
35.696626
28.261542
23.930669
21.167994
20.463467
20.946860
21.889806
22.780895
23.009777
23.848414
24.009943
24.859905
25.398731
25.106668
25.390983
25.997758
26.058555
25.753975
25.753975
25.683641
25.023818
24.919510
24.437904
23.987889
23.817420
23.723841
##ZVALUE=315
0.701547
0.486970
0.397563
0.640750
0.561476
0.496507
0.697970
0.575781
0.697970
0.722408
0.426769
0.738502
0.644922
0.646710
0.687838
0.688434
0.881553
0.733733
0.822544
0.592470
0.870824
0.927448
0.838637
0.857711
0.926852
0.938773
0.944734
1.044869
0.998974
1.085997
1.091957
1.224875
1.219511
1.524687
1.554489
1.545548
1.700521
2.017617
2.455711
5.479455
20.819902
83.154440
182.447433
414.311886
669.274926
1015.793681
1015.793681
1015.793681
1015.793681
1015.793681
1015.793681
940.767527
656.399727
346.271992
185.635686
66.760778
28.044581
12.738705
12.680888
16.485453
22.620559
36.025643
48.902631
68.386793
83.701611
103.195906
112.253428
114.912987
108.784437
93.124509
80.868602
62.178969
49.007535
36.293864
30.615926
25.483966
23.671985
23.383498
23.511648
24.074912
25.079846
25.181770
25.602579
26.006699
25.528669
25.820732
26.379824
26.465654
26.347637
25.844574
25.718808
25.864840
25.101900
25.301576
25.019646
24.585724
##ZVALUE=320
0.470877
0.435710
0.460744
0.561476
0.496507
0.584722
0.539422
0.525713
0.537634
0.536442
0.397563
0.455976
0.535846
0.517964
0.619888
0.685453
0.758767
0.635982
0.536442
0.759959
0.771880
0.674725
0.730753
0.731945
0.606775
0.773668
0.760555
0.803471
0.888705
0.924468
0.950694
1.014471
1.153946
1.249909
1.275539
1.439452
1.456738
1.593828
1.874566
1.852512
2.115965
2.590418
11.530519
38.905740
135.198832
269.110799
538.416505
806.336999
1015.794873
1015.794873
1015.794873
1015.794873
1015.794873
1015.794873
781.216621
499.582887
228.870511
117.602944
42.621493
18.801689
11.509657
12.086630
15.859604
20.655990
32.109618
44.557452
64.089894
80.029964
98.379850
108.128786
109.756589
105.315447
93.310475
80.359578
62.788725
51.200986
38.604736
32.731891
27.070642
25.435686
25.276542
25.371909
25.842786
26.289821
26.123524
26.571751
26.794672
26.580691
26.578903
25.992990
25.957823
26.657581
25.298595
25.599599
24.825931
24.838448
##ZVALUE=325
0.431538
0.428557
0.436902
0.583529
0.450611
0.389814
0.368953
0.526905
0.608563
0.590682
0.610948
0.619888
0.529885
0.407696
0.449419
0.737906
0.577569
0.512600
0.629425
0.647902
0.532866
0.581741
0.547767
0.614524
0.622869
0.811815
0.679493
0.842810
0.748634
0.875592
0.988841
0.936985
0.922680
1.106858
1.096725
1.092553
1.088977
1.337528
1.196861
1.422763
1.613498
1.690984
1.896620
2.488494
4.708767
31.257868
81.710815
214.162469
387.813449
720.439553
988.572836
1015.793681
1015.793681
1015.793681
1015.793681
1015.793681
915.315747
549.785495
330.886841
143.242478
69.011450
22.448897
12.673736
11.454821
12.435913
16.484857
21.517873
32.623410
45.446754
65.308809
79.327822
96.089840
103.516579
106.113553
102.129579
89.982748
77.106953
60.350895
49.769878
37.950873
32.283664
28.064847
26.689768
25.944710
25.845766
26.009679
26.054978
26.115775
25.830865
25.632977
25.438666
25.665760
25.135875
25.337934
25.359988
24.983883
##ZVALUE=330
0.370741
0.326633
0.375509
0.496507
0.527501
0.553727
0.623465
0.541806
0.442863
0.388622
0.506639
0.522733
0.588894
0.466704
0.570416
0.395775
0.468493
0.537634
0.554919
0.478625
0.570416
0.754595
0.483990
0.760555
0.624657
0.650883
0.625849
0.727773
0.817776
0.728965
0.732541
0.803471
0.899434
0.909567
0.964999
0.843406
0.994802
1.035929
1.045465
1.262426
1.436472
1.383424
1.597404
1.661777
1.905560
1.930594
3.154874
10.793805
54.095984
128.246546
308.594704
514.346957
880.564451
1015.793681
1015.793681
1015.793681
1015.793681
1015.793681
990.445018
736.202598
403.839946
228.408575
92.466474
41.283965
15.657544
11.584759
12.008548
13.543963
17.668605
23.477674
34.251809
45.253634
62.190890
76.022744
91.924667
99.182725
102.254748
97.830892
85.658431
74.593425
57.885647
47.594905
37.412643
32.313466
28.287768
26.443601
25.660992
24.967790
24.775863
24.820566
24.418831
24.178624
23.866892
23.866892
23.585558
24.073720
##ZVALUE=335
0.406504
0.368953
0.451803
0.541806
0.358820
0.209808
0.326633
0.377893
0.350475
0.504851
0.470877
0.408888
0.628829
0.489950
0.501871
0.528693
0.601411
0.419617
0.596642
0.490546
0.557899
0.394583
0.632405
0.708699
0.570416
0.665784
0.638962
0.581741
0.658631
0.709891
0.706911
0.706911
0.705719
0.833869
0.743866
0.826716
0.786781
0.870824
0.985861
0.814795
1.032948
0.988841
1.087785
1.444817
1.414418
1.380444
1.779795
2.005696
2.189875
5.956888
22.519827
89.469552
188.280940
418.909788
671.616793
1013.365984
1015.793681
1015.793681
1015.793681
1015.793681
1015.793681
798.351765
542.099476
278.827548
146.865845
51.434636
23.324490
12.340546
11.953712
12.922883
13.805628
17.805696
22.669435
32.611489
43.828487
60.607791
73.318481
86.977482
93.811750
95.766783
90.964437
80.209970
70.111752
57.462454
48.023462
37.409663
31.490922
27.007461
24.905801
23.173690
23.238659
22.831559
22.569895
22.188425
22.769570
22.350550
##ZVALUE=340
0.423789
0.270605
0.540614
0.200868
0.352859
0.323653
0.374913
0.463724
0.272989
0.318885
0.471473
0.419617
0.331998
0.480413
0.383854
0.371933
0.455976
0.361800
0.517964
0.474453
0.403523
0.465512
0.506639
0.464916
0.523925
0.422597
0.583529
0.588894
0.616908
0.623465
0.611544
0.544786
0.651479
0.633597
0.671744
0.719428
0.849962
0.835657
0.844598
0.851750
0.789762
0.926852
0.955462
1.162887
1.202822
1.246929
1.347661
1.328588
1.481771
1.898408
1.965761
3.065467
10.979772
55.170655
133.943558
326.991677
549.186468
896.912813
1015.774012
1015.774012
1015.774012
1015.774012
1015.774012
926.823020
651.049614
337.083936
187.330842
75.832605
31.868815
13.685822
11.850595
11.574626
12.591481
14.595985
16.801953
22.737980
30.166507
42.503476
54.060817
71.307421
81.516504
88.530779
89.795589
84.992647
79.127550
66.371560
55.883527
43.733716
36.333799
29.121637
25.111437
22.395849
21.276474
20.703673
20.419955
20.353794
##ZVALUE=345
0.386834
0.423789
0.332594
0.405908
0.329614
0.185966
0.390410
0.396967
0.406504
0.279546
0.423789
0.359416
0.442863
0.272989
0.450611
0.383854
0.404716
0.432730
0.308752
0.415444
0.540614
0.581741
0.548959
0.495911
0.526905
0.560880
0.550747
0.412464
0.540614
0.614524
0.650883
0.587702
0.721812
0.695586
0.819564
0.648499
0.724792
0.664592
0.717640
0.778437
0.797510
0.892878
0.813603
0.744462
1.026988
1.022816
1.193881
1.246929
1.113415
1.357794
1.449585
1.516938
1.637936
2.194643
5.921721
24.889708
101.259947
204.633474
428.841710
662.669539
995.947719
1015.793681
1015.793681
1015.793681
1015.793681
1015.793681
742.102861
488.726497
223.724842
111.416578
37.858486
17.874837
11.662841
11.050701
11.529922
11.837482
13.136864
15.362501
20.986795
27.731657
39.750934
49.707890
63.631535
73.050857
81.152916
83.033442
79.500675
73.779821
62.908530
53.226948
41.134953
33.762455
26.624799
23.044944
20.368695
19.553900
##ZVALUE=350
0.417829
0.400543
0.225902
0.368953
0.169873
0.420809
0.422597
0.373721
0.392795
0.426769
0.299811
0.268817
0.479817
0.316501
0.337958
0.446439
0.408888
0.390410
0.482798
0.436902
0.435710
0.406504
0.456572
0.521541
0.510812
0.441670
0.535846
0.560880
0.486970
0.647902
0.264645
0.457764
0.366569
0.766516
0.621676
0.600815
0.685453
0.792742
0.614524
0.633597
0.696778
0.699759
0.691414
0.815988
0.801682
0.922680
1.013875
1.096725
1.064539
0.975728
1.149774
1.296997
1.490712
1.605749
1.563430
1.955628
2.827644
15.789866
50.639510
155.673623
289.069414
569.264889
822.518468
1015.793681
1015.793681
1015.793681
1015.793681
1015.793681
883.110762
525.216460
321.173668
145.102739
68.264604
21.313429
11.528730
10.158420
10.216832
10.484457
10.824800
12.596846
14.235973
19.851923
25.072694
34.344792
43.122768
56.076646
65.272450
73.295832
75.022578
73.136687
68.205595
57.969689
49.619675
38.960576
31.883717
25.449991
##ZVALUE=355
0.269413
0.161529
0.155568
0.363588
0.421405
0.368953
0.355840
0.513792
0.253916
0.511408
0.372529
0.424981
0.524521
0.389814
0.420809
0.405908
0.448823
0.362992
0.494719
0.411868
0.439882
0.561476
0.587702
0.392795
0.522733
0.548959
0.451803
0.551939
0.467896
0.498891
0.446439
0.415444
0.517964
0.483990
0.689626
0.553727
0.481606
0.722408
0.517964
0.664592
0.700951
0.649691
0.627637
0.749826
0.742674
0.840425
0.969768
1.007915
1.085997
1.009703
1.194477
1.000762
1.173615
1.232624
1.416802
1.477599
1.591444
1.866817
2.136827
5.232692
31.373501
83.941817
221.574903
392.566919
708.348751
965.204835
1015.794873
1015.794873
1015.794873
1015.794873
905.721784
657.773614
370.692611
202.148557
78.277588
34.087896
12.725592
9.642839
9.651780
9.627938
9.724498
10.157824
11.355877
12.918711
16.637444
21.239519
30.076504
38.170815
49.482584
57.566762
65.410733
68.145990
67.057610
63.068867
54.375529
46.778917
##ZVALUE=360
0.200868
0.391603
0.340939
0.245571
0.557899
0.304580
0.370741
0.472665
0.310540
0.287890
0.463724
0.414848
0.408888
0.465512
0.379682
0.488758
0.281930
0.340939
0.343919
0.479817
0.559688
0.405908
0.394583
0.494719
0.488758
0.406504
0.501871
0.458956
0.655651
0.452995
0.452995
0.483990
0.507832
0.578761
0.606775
0.519753
0.586510
0.430942
0.696778
0.641942
0.657439
0.813603
0.740886
0.750422
0.783801
0.832677
0.721812
0.859499
0.986457
0.974536
0.904799
0.855923
1.085997
1.111627
1.311898
1.178980
1.260638
1.354814
1.645684
1.828671
1.966953
3.426671
11.790991
52.831769
127.239823
311.567783
507.887006
825.137496
1015.793681
1015.793681
1015.793681
1015.793681
1015.793681
770.444870
513.922572
251.088738
130.594969
48.411489
20.172000
9.665489
8.824468
8.980632
9.130836
9.411573
9.798408
10.233521
11.397600
14.288425
17.785430
24.775863
31.598806
42.301416
49.751997
57.731867
60.973763
61.974525
##ZVALUE=365
0.297427
0.356436
0.488758
0.353456
0.345707
0.383854
0.416636
0.349879
0.462532
0.404716
0.412464
0.381470
0.297427
0.357628
0.386834
0.531673
0.375509
0.332594
0.428557
0.418425
0.310540
0.401735
0.363588
0.357628
0.404716
0.430942
0.428557
0.379682
0.460744
0.489950
0.517964
0.586510
0.507832
0.606775
0.611544
0.571609
0.509620
0.606775
0.779629
0.578761
0.668764
0.765920
0.729561
0.829697
0.697970
0.669956
0.749826
0.682473
0.886917
0.796914
0.889897
0.850558
1.045465
1.002550
0.931621
1.106858
1.119971
1.217723
1.324415
1.352429
1.492500
1.691580
1.921654
2.335906
5.180836
30.305982
80.513954
209.084749
380.952954
695.286989
935.512781
1015.794873
1015.794873
1015.794873
1015.794873
845.263004
597.321987
330.250859
178.240538
64.943433
26.498437
10.127425
8.578897
8.558631
8.398890
8.474588
8.466840
8.645654
9.175539
10.029674
11.968613
15.945435
20.198822
28.710961
35.334826
44.489503
##ZVALUE=370
0.296831
0.233650
0.276566
0.283718
0.197887
0.391603
0.453591
0.427961
0.322461
0.289679
0.280738
0.436902
0.352859
0.418425
0.412464
0.440478
0.168681
0.269413
0.444651
0.466704
0.358820
0.464916
0.547767
0.479817
0.532866
0.383854
0.655651
0.472665
0.515580
0.462532
0.481606
0.431538
0.456572
0.550747
0.626445
0.753999
0.697970
0.532866
0.497699
0.544786
0.510812
0.558496
0.703931
0.683665
0.529885
0.733733
0.807643
0.780821
0.912547
0.950694
0.620484
0.815988
0.709891
0.879765
0.881553
0.856519
0.902414
0.957847
0.960827
1.049638
1.204610
1.280904
1.373887
1.497865
1.822710
1.943707
3.206730
12.501478
64.053535
149.305463
343.477726
542.147756
854.208469
1015.793681
1015.793681
1015.793681
1015.793681
982.049704
658.496618
428.912640
199.599862
102.747679
38.725734
16.447902
8.144975
7.520914
7.492900
7.584691
7.455945
7.547736
7.963777
8.174777
9.316802
10.477901
14.097691
17.746687
##ZVALUE=375
0.326633
0.462532
0.392795
0.370741
0.402927
0.332594
0.312924
0.483990
0.313520
0.192523
0.377893
0.403523
0.267625
0.369549
0.399947
0.329614
0.330806
0.422597
0.379682
0.426769
0.351667
0.346899
0.345707
0.247955
0.470877
0.331998
0.481606
0.416636
0.404716
0.565648
0.389814
0.436902
0.494719
0.484586
0.375509
0.489950
0.608563
0.546575
0.470877
0.626445
0.321865
0.533462
0.578761
0.503659
0.636578
0.649691
0.691414
0.699759
0.875592
0.634789
0.740886
0.785589
0.557899
0.743866
0.665784
0.730753
0.746846
0.809431
1.043677
0.897646
0.905991
1.102686
1.056790
1.146793
1.340508
1.448989
1.602769
1.911521
2.348423
8.635521
32.338500
115.334988
234.548450
493.918657
734.217763
1015.686989
1015.802622
1015.802622
1015.802622
1014.166474
808.436871
491.063595
309.798717
151.257515
75.855851
24.668574
10.916591
7.266998
6.593466
6.711483
6.823540
6.896853
7.073879
7.165670
7.580519
8.282661
##ZVALUE=380
0.196695
0.113845
0.310540
0.130534
0.254512
0.221729
0.237823
0.276566
0.294447
0.330806
0.396967
0.308752
0.299811
0.308752
0.178814
0.316501
0.309944
0.162721
0.128746
0.198483
0.354648
0.189543
0.157952
0.256896
0.293851
0.289679
0.362992
0.343919
0.425577
0.354648
0.387430
0.411868
0.262856
0.448823
0.327826
0.344515
0.437498
0.341535
0.571609
0.434518
0.450611
0.541806
0.485778
0.353456
0.410676
0.544786
0.312924
0.596642
0.467896
0.531673
0.473857
0.571609
0.518560
0.460744
0.580549
0.593662
0.763535
0.623465
0.715852
0.730753
0.724792
0.819564
0.899434
0.996590
0.814795
1.101494
1.177788
1.452565
1.548529
1.807809
2.341866
3.904700
15.895963
80.783963
184.638500
415.116549
649.896860
982.164741
1015.736461
1015.736461
1015.736461
1015.736461
930.806398
640.164018
424.478650
208.503604
106.207728
37.018657
15.520453
7.420778
6.109476
6.146431
6.281734
6.435513
6.502867
6.917715
##ZVALUE=385
0.249743
0.180602
0.358820
0.107884
0.164509
0.268817
0.352859
0.326633
0.213981
0.228882
0.293851
0.439882
0.428557
0.241995
0.316501
0.253916
0.378489
0.444651
0.372529
0.123978
0.290871
0.443459
0.374913
0.270605
0.331998
0.361800
0.341535
0.363588
0.421405
0.431538
0.295639
0.345707
0.384450
0.276566
0.366569
0.518560
0.526905
0.501871
0.431538
0.584722
0.528693
0.509620
0.556707
0.502467
0.547767
0.699759
0.436902
0.424981
0.519753
0.503659
0.587702
0.348687
0.619888
0.654459
0.694990
0.629425
0.480413
0.725985
0.621676
0.617504
0.699759
0.785589
0.868440
0.817776
0.875592
1.014471
0.910759
1.249909
1.320839
1.482964
1.451969
1.805425
1.954436
2.525449
7.094741
44.039488
118.407607
296.977758
514.764786
884.385705
1015.794873
1015.794873
1015.794873
1015.794873
1015.794873
788.944960
551.903844
293.847919
165.079832
67.822933
27.372837
8.747578
6.280541
5.866885
5.748868
6.165504
##ZVALUE=390
0.213981
0.113845
0.188947
0.370741
0.183582
0.208616
0.288486
0.239611
0.250936
0.230670
0.305772
0.110865
0.164509
0.324845
0.330806
0.288486
0.174642
0.417829
0.225902
0.363588
0.260472
0.302792
0.058413
0.274777
0.179410
0.329614
0.230670
0.164509
0.385642
0.274777
0.354648
0.238419
0.265837
0.417829
0.367761
0.279546
0.331998
0.368953
0.263453
0.456572
0.492930
0.407696
0.316501
0.546575
0.383854
0.580549
0.409484
0.573993
0.457764
0.494719
0.386834
0.432730
0.553727
0.459552
0.504851
0.672936
0.517964
0.515580
0.670552
0.580549
0.552535
0.574589
0.632405
0.828505
0.681877
0.773668
1.010895
1.121759
1.163483
1.191497
1.460910
1.378655
1.516938
1.528859
1.883507
1.845956
3.475547
20.564795
66.909790
211.212635
398.148894
738.430023
987.393856
1015.743613
1015.743613
1015.743613
1015.743613
966.175795
716.055632
420.303941
237.928629
95.891953
42.936802
12.513995
6.547570
5.455613
##ZVALUE=395
-0.006557
0.049472
0.224710
0.034571
0.187755
0.141859
0.165701
0.148416
0.088811
0.061989
0.119805
0.251532
0.074506
0.147820
0.097752
0.095963
0.085831
0.151992
0.067949
0.078678
0.153780
0.126958
0.065565
0.259876
0.335574
0.224710
0.206828
0.375509
0.178814
0.221729
0.080466
0.221729
0.260472
0.251532
0.265837
0.318885
0.372529
0.286698
0.183582
0.228882
0.386834
0.182986
0.347495
0.266433
0.426769
0.296831
0.361800
0.335574
0.294447
0.152588
0.308752
0.316501
0.358820
0.306964
0.476837
0.413656
0.507832
0.469685
0.581741
0.476837
0.458956
0.541806
0.614524
0.521541
0.661612
0.676513
0.744462
0.757575
0.834465
1.205802
1.191497
1.357794
1.187921
1.195669
1.349449
1.266599
1.246929
1.507998
2.023578
11.090636
42.382479
144.858956
274.611712
520.306826
764.251947
1015.658975
1015.658975
1015.658975
1015.658975
1015.658379
841.990709
505.394936
316.078663
144.834518
67.973733
22.654533
##ZVALUE=400
0.116825
0.045896
0.064969
0.151992
0.121593
0.159740
0.092983
0.261664
0.202656
-0.043511
-0.008941
0.137687
-0.008941
0.018477
0.141859
0.281930
0.061989
0.128746
0.137687
0.026822
0.037551
0.144839
0.133514
0.233650
0.174642
0.162721
0.226498
0.146627
0.188947
0.155568
0.380874
0.315905
0.236630
0.115633
0.196695
0.180602
0.058413
0.171661
0.279546
0.253916
0.321865
0.052452
0.321865
0.425577
0.341535
0.228882
0.247955
0.302792
0.498891
0.334978
0.341535
0.420809
0.390410
0.334978
0.386834
0.332594
0.387430
0.398755
0.459552
0.506639
0.428557
0.534654
0.560880
0.522733
0.590682
0.686646
0.628829
0.722408
0.876784
0.898838
1.159906
1.084805
1.184940
1.224875
1.093745
1.133680
1.318455
1.213551
1.309514
1.623631
1.969934
5.835891
21.684766
81.067681
172.989964
388.194919
627.482533
976.143479
1015.650630
1015.650630
1015.650630
1015.650630
964.697599
613.180995
390.817523
189.121962
##END
