##TITLE=FDW1
##FORMAT=SPECTACLE-ASCII V-1.2
##DATA TYPE=ULTRAVIOLET SPECTRUM
##SECOND TYPE=ULTRAVIOLET SPECTRUM
##DATE=10/24/17
##TIME=12:47:02
##SPECTROMETER/DATA SYSTEM=SPECTACLE
##XUNITS=NM EM
##YUNITS=ENERGY
##YFACTOR=1
##FIRSTX=220
##LASTX=410
##NPOINTS=96
##3DDATA=Equidistant
##ZUNITS=NM EX
##FIRSTZ=210
##LASTZ=400
##ZPOINTS=39
##XYDATA=(Y..Y)
##ZVALUE=210
58.242679
52.112937
36.158562
20.335913
16.384721
14.252663
14.454722
12.129545
12.083650
11.591911
10.560751
9.448528
9.481907
9.713769
9.243488
11.209846
11.141896
12.440681
13.881922
14.234781
15.465617
15.505552
18.213987
18.762946
18.973947
22.040606
22.156835
23.350716
27.360916
26.709437
27.126670
29.115677
29.514432
28.742552
30.800700
29.442906
30.808449
30.356646
31.059980
32.909513
31.409860
32.812953
32.691956
34.746528
36.738515
36.421418
36.229491
38.714409
39.087534
39.254427
40.781498
40.653944
39.581656
40.108562
41.038990
41.397810
42.341948
42.137504
40.715933
43.727756
45.320988
45.444965
45.278668
43.907762
47.288537
47.796965
50.991774
56.011677
61.847568
72.226524
81.886649
98.551512
118.617415
131.319761
149.688721
164.204836
182.227492
187.416673
193.970799
184.435844
173.882842
157.111883
136.784911
118.841529
89.182854
75.592995
57.719946
49.617887
48.158765
53.007603
63.418746
81.333518
106.571913
124.238729
159.774423
185.019970
##ZVALUE=215
199.851990
186.801553
146.705508
93.355775
63.808560
38.540959
28.630495
18.579960
20.964742
19.846559
16.878843
16.226768
13.372898
11.633635
11.347532
10.957718
11.403561
12.135506
12.448430
13.738871
13.500452
16.267896
15.129447
15.189648
17.030835
17.936826
20.534992
20.402670
23.810863
23.277998
24.505854
25.895834
27.952790
26.965737
29.109716
30.147433
29.027462
29.518604
30.848980
29.752851
29.926896
32.415986
29.008985
31.502843
31.150579
30.899644
30.836463
31.265616
30.869842
33.321977
35.380721
35.661459
35.455823
35.183430
35.841465
34.624934
35.258532
35.212636
36.130548
37.658811
36.943555
39.496422
39.807558
40.779710
40.427446
40.415525
41.198730
42.891502
48.444867
54.262877
64.636469
69.891810
89.417696
96.651912
109.298825
121.788979
126.960874
134.130716
133.137703
130.481720
124.978423
109.090805
94.324946
82.220435
65.411925
56.000948
42.006969
36.128759
32.148957
28.335452
28.753877
29.652715
31.259656
33.852458
46.641827
56.318641
##ZVALUE=220
368.720889
371.209979
352.856517
302.760005
237.060785
167.580843
112.430453
66.349506
42.565465
32.984614
29.263496
29.389858
25.337934
24.127960
19.179583
17.081499
14.580488
12.313724
11.250973
13.104677
12.996793
14.290810
13.686419
14.868975
16.819835
17.779469
19.606948
19.933581
21.661520
22.405982
23.914576
26.014447
26.759505
26.495457
26.208758
26.970506
28.872490
29.218793
28.779507
27.420521
28.850436
28.613806
28.997660
28.152466
29.045939
26.440620
26.486516
27.791858
27.598739
31.313896
30.562878
31.645894
32.664537
32.465458
31.348467
32.545924
36.126971
33.408999
32.751560
34.721494
33.801794
34.267902
34.944415
34.258962
33.420920
34.359694
35.399795
39.613843
40.484667
46.540499
51.786900
56.631565
65.332651
75.520873
81.523657
87.629557
92.851520
94.123483
94.735622
98.103881
86.609721
77.729821
70.034862
58.065653
49.494505
38.638711
32.318830
29.062629
25.348663
23.949742
23.135543
22.438765
23.354888
22.383928
23.406744
21.574497
##ZVALUE=225
370.771885
378.560424
429.826975
465.455651
444.942713
389.742851
323.129892
213.341713
142.360926
94.775558
56.359768
44.423938
43.260455
42.681694
37.885904
35.720468
31.630993
25.741458
20.039678
16.677976
13.742447
10.091662
11.891723
12.805462
12.858510
12.039542
13.722777
14.637709
15.330911
17.545819
19.898415
18.806458
20.269752
19.723773
21.162629
21.488667
22.080541
21.734834
20.868778
22.229552
21.498799
22.325516
24.948716
22.459626
23.800731
24.159551
23.658872
23.184419
24.864674
25.927424
27.631521
25.912523
30.559897
28.682947
28.654933
29.925704
31.299591
29.475689
30.876994
31.713843
31.515956
32.399893
31.962991
32.123923
32.742620
31.520724
33.491850
33.000708
34.566522
37.869811
39.936900
42.294860
45.942664
49.278736
55.014491
55.248737
57.694912
60.482621
53.363442
55.029988
47.264695
44.328570
38.369894
36.884546
29.758811
26.911497
23.483634
23.942590
19.505620
20.022988
19.843578
18.900633
17.750859
17.852783
17.873645
17.725825
##ZVALUE=230
196.715593
211.025476
303.572416
422.931910
496.743917
552.884936
539.342761
477.920771
392.716527
302.640796
189.186931
124.836564
77.981949
66.266656
59.106946
62.009692
63.487887
60.103536
50.996542
43.389797
33.941865
25.193691
18.282533
13.715625
12.040734
11.236668
12.382865
12.101531
13.101697
13.694763
14.720559
16.146898
16.427636
16.281605
16.463995
18.070936
18.580556
18.485785
19.572973
19.234419
19.947886
19.943714
20.022988
23.503900
20.177960
22.205710
21.411777
23.104548
24.853945
25.180578
28.360486
28.719902
30.233860
31.456947
31.746626
35.041571
32.364726
37.574768
35.493970
38.466454
35.966635
39.005876
37.579536
36.879778
40.320754
38.283467
39.538741
40.402412
38.691759
40.826797
40.184855
45.016408
46.888590
49.130917
50.626993
50.920844
52.379966
50.223470
50.866604
50.457716
42.823553
39.805770
36.281943
31.476617
28.858781
26.389956
23.038983
23.112893
21.129847
19.352436
19.345880
18.640757
19.009709
16.535521
18.135905
18.450618
##ZVALUE=235
43.496490
54.779649
104.267597
230.603814
344.587564
499.289632
626.688600
740.639567
768.835545
734.072924
611.366630
462.249517
300.824642
201.751590
130.895972
96.891522
85.503459
86.819530
93.425512
89.323521
84.656477
67.426562
59.739947
38.970709
30.498505
19.880533
16.189814
12.679696
11.427999
11.493564
11.545420
12.615919
13.471842
14.075637
13.673902
15.073419
14.652610
16.177893
17.369986
18.625855
19.062757
18.963814
19.240975
20.875931
22.764802
25.076866
24.888515
27.140975
30.203462
30.468702
34.106970
35.695434
38.754940
38.704872
39.808750
42.916536
45.048594
46.163797
48.917532
47.917962
49.269795
48.770905
49.011707
49.055815
49.274564
49.530864
52.628517
48.551559
48.204660
50.828457
50.615668
51.549673
54.171681
55.917501
57.175756
56.085587
58.274865
57.379603
56.377649
54.637790
48.288703
42.547584
41.913986
38.480759
34.222603
29.767752
28.865933
26.984811
25.518537
26.007891
24.394989
22.781491
22.286773
20.934939
20.701885
19.564629
##ZVALUE=240
3.978610
4.282594
14.630556
37.769675
101.697445
184.451938
356.381536
526.036620
757.125616
901.880860
1006.047726
997.633934
895.273685
714.758635
541.696548
333.288908
225.545764
143.346786
110.186934
109.021664
113.704801
125.187635
117.977858
106.372833
85.086823
71.921945
51.019788
36.741495
24.609566
17.732978
15.270710
13.958812
13.323426
14.241934
14.957786
14.822483
15.034676
16.776919
17.153621
19.142628
20.844936
20.736456
22.201538
25.070906
26.650429
29.319525
30.143857
33.722520
37.974715
40.624738
45.408607
47.296882
49.115419
51.915646
53.683519
56.279898
58.378577
61.267614
61.816573
61.541796
63.181520
64.595938
62.649846
61.749816
63.344836
61.575770
60.588717
63.646436
58.777928
64.078569
63.243508
64.724684
67.356825
68.200827
67.479610
67.679882
66.378713
66.817999
62.307715
58.979988
53.605437
51.653981
45.598745
42.271614
38.806796
37.929416
33.803582
31.324625
31.455755
30.808449
28.914809
26.591420
25.238991
24.032593
23.993850
22.658706
##ZVALUE=245
3.242493
3.611445
4.399419
3.600717
8.095503
32.054782
79.180598
205.214620
357.247591
564.109683
894.757509
1015.793681
1015.793681
1015.793681
1015.793681
1015.793681
837.416649
614.763498
441.752672
232.214928
144.878626
109.065771
111.890435
131.865740
134.969950
126.258731
116.341710
96.079707
78.093410
56.170821
42.431951
27.743578
22.616982
17.777681
16.268492
17.168522
18.321872
18.846989
19.546747
20.384789
21.959543
24.225712
24.122000
27.265549
28.281808
31.300783
34.450889
38.670897
40.668845
44.144988
48.544407
52.496791
53.324699
55.045485
57.212710
56.848526
60.097575
63.454509
61.993599
65.357685
65.805912
66.998601
62.057972
63.226819
62.499642
62.400699
60.921907
59.983730
59.672594
60.770512
57.459474
63.050985
63.175559
64.187646
67.026615
65.791607
66.617727
65.611601
62.662959
60.095787
52.817464
48.630834
43.336749
39.418936
35.548806
33.867955
31.549931
29.006600
28.040409
26.591420
26.249886
25.614500
23.701787
23.024678
23.973584
21.882653
##ZVALUE=250
2.583861
2.541542
2.544522
2.763867
3.079772
3.051758
4.917979
16.536713
74.530840
172.997713
419.899821
686.030984
972.259641
1015.362740
1015.362740
1015.362740
1015.362740
1015.362740
1015.362740
829.494596
543.925762
330.487490
163.649917
113.393664
105.964541
121.175647
140.738487
140.501857
139.164925
126.354694
111.116767
85.988641
65.002441
42.208433
30.930638
23.018718
18.759966
17.904639
18.012524
20.742416
21.052957
23.708940
25.021434
27.357936
28.755665
30.858517
32.264590
36.757588
38.760900
42.027831
43.316483
47.947764
46.393871
49.595833
51.927567
54.241419
54.852962
53.092837
55.380464
56.448579
53.299665
54.391623
55.266619
54.276586
51.722527
52.877665
50.723553
51.110983
50.857663
52.231550
50.214529
51.545501
50.855875
53.639412
53.261518
53.386688
52.432418
49.917698
48.678517
46.116710
42.139888
38.996935
35.562515
33.486485
28.945804
28.349757
25.183558
23.604631
23.008585
23.930669
21.596551
20.583868
18.777847
18.999577
18.053651
18.372536
##ZVALUE=255
2.626777
2.636909
2.651811
2.845526
2.771616
3.134608
3.424883
3.395677
3.872514
8.342862
41.536689
102.750659
217.837691
461.261868
715.026855
1015.793681
1015.793681
1015.793681
1015.793681
1015.793681
1015.793681
1011.003852
653.625727
409.865975
202.129483
131.478906
97.950697
108.996630
131.245852
142.200589
152.272582
145.493746
137.136579
113.334656
87.259412
61.550736
45.625567
32.709837
24.364591
19.954443
20.245910
20.760894
22.489429
23.837686
25.075674
27.502775
29.486418
31.418800
33.478737
36.153793
37.063956
39.568543
41.120648
41.930676
41.420460
43.707490
44.588447
44.062734
44.374466
43.790936
46.776533
45.150518
45.278668
42.738914
43.595433
40.083528
38.480759
39.121509
40.007830
39.720535
38.663745
37.953854
40.196776
37.754774
38.634539
40.348768
39.768815
38.946867
34.432411
34.061670
32.444596
30.333996
27.542710
23.775697
23.036599
21.732450
20.322800
19.881725
18.712878
17.955899
17.596483
17.112494
16.329885
14.953613
14.900565
14.292598
##ZVALUE=260
2.074838
2.495646
2.082586
2.093911
2.395511
2.453923
2.616644
2.587438
2.770424
3.204942
3.440976
5.420446
19.448996
68.816543
145.694613
332.629681
531.767607
861.600637
1015.793681
1015.793681
1015.793681
1015.793681
1015.793681
1015.793681
871.952772
590.706468
328.282714
190.306902
104.212761
91.347694
106.736422
129.592419
146.032572
153.804421
152.009726
136.511922
119.076967
88.801980
69.153905
48.098564
36.642551
27.465820
23.720860
22.702813
22.633672
22.865534
25.981665
27.136803
28.238893
29.335618
31.265616
34.312606
34.603477
34.510493
35.122633
37.065744
36.060810
38.410425
37.802458
37.060976
39.389729
38.967729
38.654804
36.684871
36.026835
35.388470
35.709739
34.039617
34.596920
33.599734
32.105446
34.502745
33.683777
33.383965
33.032894
32.985806
30.862689
31.230450
28.674603
26.472807
25.438666
23.839474
22.757649
21.222830
18.761754
18.840432
16.463995
16.825795
14.887452
14.454722
14.598966
13.192892
13.226867
12.624860
11.912584
12.674928
##ZVALUE=265
1.850724
2.025962
1.958609
1.983643
2.292991
2.116561
2.247691
2.400875
2.360940
2.424717
2.314448
2.879500
3.198981
3.799796
14.657974
70.995688
151.608586
329.702497
535.710454
903.946757
1015.793681
1015.793681
1015.793681
1015.793681
1015.793681
1015.793681
1015.793681
797.497034
428.354740
252.766609
190.773606
87.258816
86.432695
117.110610
134.651661
156.642795
165.142417
156.116486
142.921805
115.635991
93.879700
68.193674
51.385760
35.119653
28.314590
24.220943
22.477508
23.846626
25.198460
27.017593
27.887821
30.614734
30.985475
32.048821
33.327937
33.446550
34.735799
34.877658
35.576820
36.908984
37.791729
36.107898
36.967993
34.883618
34.594536
35.633445
34.170747
33.982992
33.557415
33.524632
31.847954
32.235980
32.137632
31.549931
31.582713
29.822588
29.718876
29.154420
26.731491
25.523901
24.422407
22.736788
19.955635
19.204617
17.337799
16.922951
16.129613
15.563965
14.996529
14.358759
14.028549
12.224913
12.942553
12.175441
11.515617
11.437535
##ZVALUE=270
1.789927
1.710653
1.815557
1.941919
1.892447
2.002716
1.890659
2.091527
2.146959
2.161860
2.171993
2.505779
2.504587
2.423525
2.748966
3.378987
4.598498
25.063753
71.164966
205.066800
379.357934
644.212961
1015.793681
1015.793681
1015.793681
1015.793681
1015.793681
1015.793681
1015.793681
957.885981
647.095442
325.908661
180.329680
84.962845
73.113441
89.974999
111.755729
140.880942
155.575871
164.916515
160.788894
143.011808
123.605728
95.112920
72.741508
49.770474
38.107634
29.579997
26.913881
27.272701
27.591586
28.602481
30.009747
32.154918
32.928586
34.830570
35.074949
34.601688
37.035942
38.165450
38.166642
36.529899
36.521554
36.046505
36.288500
35.441518
35.338998
35.511851
34.133792
33.710599
32.431483
32.605529
32.470822
31.178594
31.170845
30.213594
28.559566
28.316975
25.940537
24.298429
23.270845
21.203756
19.958615
18.176436
17.584562
16.335845
16.058683
14.743805
13.855696
13.466477
13.528466
12.729764
11.874437
11.357665
11.304617
10.802746
##ZVALUE=275
1.575947
1.598597
1.418591
1.656413
1.771450
1.746416
1.830459
1.768470
1.757741
1.851916
2.141595
2.092719
2.109408
2.216697
2.517700
2.509952
2.790689
2.678633
3.219843
7.503629
28.446913
88.311434
276.334882
519.895554
959.661603
1015.794873
1015.794873
1015.794873
1015.794873
1015.794873
1015.794873
1015.794873
788.359046
430.918932
252.620578
118.119717
74.032545
67.534447
84.345937
115.942955
133.730769
157.322884
162.334442
157.252550
143.277645
115.457773
95.564723
71.229935
57.092905
41.564703
36.148429
32.595992
32.588840
33.212900
33.968687
34.757853
36.347508
37.813783
38.887858
41.294694
40.966868
39.285421
40.074587
40.126443
39.125681
38.307905
37.859678
37.797689
37.463903
36.156774
35.643578
35.139918
34.200549
32.738447
32.309890
31.000972
30.285716
28.460622
27.336478
25.973916
23.466945
21.107793
20.361543
18.594861
17.927885
17.417669
16.027689
15.710592
14.377832
14.154911
13.329983
12.893677
11.786819
11.545420
11.146665
10.292530
##ZVALUE=280
1.442432
1.537800
1.392961
1.635551
1.605749
1.448989
1.522899
1.596808
1.532435
1.789927
1.991987
1.814961
2.228618
1.972914
1.882911
2.054572
2.097487
2.491474
2.322793
2.834797
2.872944
3.383756
16.110539
53.827763
202.012658
409.142971
803.709626
1015.793681
1015.793681
1015.793681
1015.793681
1015.793681
1015.793681
1015.793681
886.464715
512.784719
311.181545
144.926906
80.851912
53.943992
62.354803
87.509751
110.222697
135.657787
148.751736
159.644485
152.990818
139.010549
122.691989
97.831488
79.880953
61.228871
51.364899
42.789578
39.576888
38.673878
40.721893
41.918755
43.347478
43.218732
45.124888
45.571923
45.144558
44.468641
43.783784
43.807626
43.114424
42.267442
42.664409
40.894747
39.149523
38.526654
36.759973
35.915971
34.814477
32.824874
32.297969
29.734969
28.956532
27.520657
24.724603
23.525953
22.289753
20.526648
19.640923
18.214583
16.699433
16.626716
16.089678
14.845729
14.190674
13.323426
12.004972
12.035966
11.372566
10.897517
##ZVALUE=285
1.494884
1.322627
1.339912
1.424551
1.288652
1.400709
1.382828
1.321435
1.558661
1.581907
1.586676
1.380444
1.596808
1.629591
1.739860
1.742840
1.998544
1.976490
1.762509
2.031922
2.201796
2.379417
2.679825
2.931952
8.468628
27.431846
75.355768
221.543908
410.820842
789.140463
1015.793681
1015.793681
1015.793681
1015.793681
1015.793681
1015.793681
1015.793681
674.113035
426.913500
209.824443
114.187598
53.384900
43.415427
59.597492
78.589916
110.970736
128.954649
150.243640
159.359574
159.476995
149.950981
130.354762
112.578869
89.816451
72.737932
58.525801
53.383708
51.035881
50.664544
51.872730
51.714778
53.076744
52.598715
50.334930
50.795674
48.677921
49.552917
49.191713
47.638416
46.672821
45.869946
43.941736
41.655898
39.987564
38.933754
37.406683
34.914613
33.719540
31.535625
30.425787
28.083920
25.651455
24.717450
22.906661
21.122694
19.656420
18.570423
17.628670
16.877651
15.802979
15.327930
14.083982
13.329983
13.059974
12.030602
11.954904
##ZVALUE=290
1.083612
1.181960
1.344681
1.214743
0.945926
1.110435
1.146793
1.143813
1.100898
1.436472
1.356602
1.527667
1.581907
1.309514
1.491904
1.369715
1.446605
1.766682
1.670718
1.723766
1.839995
1.985431
2.297759
2.387762
2.848506
2.944469
4.393458
15.407801
68.555474
151.005983
347.136855
568.390489
966.292024
1015.793681
1015.793681
1015.793681
1015.793681
1015.793681
1015.793681
936.723948
543.352962
323.015451
143.772960
70.724487
35.255551
36.983490
57.406425
76.602697
106.783509
131.666660
157.316923
165.608525
168.249607
158.270001
141.995549
122.894645
96.941590
86.931586
73.556900
67.654848
62.691569
60.705543
60.666800
58.815479
58.230758
56.141615
56.342483
55.642724
53.175688
52.878857
50.448775
48.165917
46.509504
45.157671
42.740703
41.406751
38.098693
36.634803
34.471750
32.578707
29.762983
27.830601
26.415586
25.049448
23.391843
21.359921
20.139813
19.400716
18.194914
17.390847
16.143918
15.146732
14.218688
14.114976
12.660623
12.576580
##ZVALUE=295
0.910759
0.928640
0.886917
0.859499
1.030564
0.912547
1.000762
0.951886
1.182556
1.094937
1.187921
1.311898
1.127720
1.188517
1.341701
1.391768
1.316667
1.382828
1.457930
1.313686
1.515746
1.611710
1.635551
1.779795
1.929998
1.963973
2.128482
2.764463
3.076792
6.274581
27.713776
119.367838
262.341499
575.631857
869.434476
1015.622616
1015.622616
1015.622616
1015.622616
1015.622616
1015.622616
1009.686589
751.349926
407.467484
227.059722
88.189840
46.841502
32.494664
41.597486
64.270496
85.633993
117.191672
139.136910
161.679983
172.438622
174.284577
167.143941
150.822997
132.587552
111.418962
95.744729
81.665516
74.210763
66.578984
64.098835
62.110424
60.979724
59.038997
57.614446
55.563450
55.271983
52.375793
50.025582
47.070980
45.892596
42.399764
40.936470
39.522648
35.760999
33.498406
32.006502
29.038787
28.018951
25.866628
24.575591
22.997856
21.436810
20.138621
19.261837
17.313957
16.588569
15.126467
14.221668
13.523698
12.942553
11.644959
##ZVALUE=300
1.024604
0.926852
1.002550
0.944734
1.123548
1.109838
1.035929
1.080632
1.213551
1.075864
1.174808
1.305938
0.999570
1.201630
1.426935
1.369715
1.353621
1.415610
1.286864
1.498461
1.341701
1.411438
1.760721
1.673698
1.741648
1.955628
1.934767
2.102852
2.357960
2.430677
3.002882
3.475547
12.218952
72.812438
170.212388
404.090881
644.657612
997.427702
1015.793681
1015.793681
1015.793681
1015.793681
1015.793681
1015.793681
877.707601
530.420542
336.176753
165.527463
89.402795
44.583678
41.381717
55.723786
70.288777
96.304417
119.203925
147.859454
166.558623
180.026889
182.088614
172.043443
158.984661
135.254860
118.177533
96.252561
82.766414
71.675777
65.663457
62.402487
60.119629
57.564974
55.938959
51.884651
50.856471
48.283935
45.329928
43.437481
41.129589
37.938952
35.501719
33.688545
31.580925
29.406548
28.133988
26.102662
25.280714
22.744536
21.452904
19.527674
18.855929
17.359853
16.545653
15.493631
14.800429
13.628602
13.210773
11.870861
##ZVALUE=305
0.961423
0.883937
0.967979
0.929832
0.883937
0.921488
0.873804
1.024604
1.046658
0.990629
1.091957
1.081824
1.125932
1.036525
1.100898
1.071692
1.064539
1.084805
1.070499
1.037717
1.312494
1.368523
1.656413
1.541972
1.486540
1.597404
1.634955
1.755953
1.893640
2.162457
1.855493
2.448559
2.419949
2.799630
5.090833
34.121871
90.848804
232.745409
396.082997
695.227981
953.466892
1015.798450
1015.798450
1015.798450
1015.798450
1015.798450
975.942612
657.867789
440.552831
228.011608
130.005479
64.351559
46.590567
50.539970
60.119629
80.048442
98.011494
126.342773
146.023631
167.832971
174.351931
176.065564
166.051984
146.238804
128.850937
104.900599
89.251995
73.918700
66.232681
56.937933
53.687692
49.658418
46.118498
44.429898
42.421818
40.010810
37.665963
35.005808
34.234524
31.219721
30.427575
27.871728
26.189685
24.295449
22.955537
21.107793
19.966960
19.346476
17.811656
16.545653
15.417933
14.476776
13.480783
12.961626
12.450814
11.376739
##ZVALUE=310
0.985861
0.845790
0.905991
0.894666
0.978708
0.909567
1.006722
0.930429
0.805855
0.972748
1.044869
1.017451
1.081824
0.949502
0.872612
1.110435
0.988841
1.108646
0.953674
1.059771
1.168847
1.235604
1.200438
1.280904
1.250505
1.479983
1.592636
1.354814
1.405478
1.696944
1.633763
1.786947
2.056956
2.069473
2.168417
2.341866
2.513528
9.952784
32.421947
104.021430
205.385685
429.573655
670.098662
994.916558
1015.793681
1015.793681
1015.793681
1015.793681
1015.793681
834.924579
595.489740
329.933763
199.382901
94.136596
55.829883
44.960976
49.656630
61.231852
73.776841
94.061494
110.831857
133.644938
146.651864
156.663656
157.543421
147.623420
135.113001
112.342834
95.574856
75.653791
62.429905
49.999952
43.891668
38.240552
36.141872
33.263564
31.395555
29.485822
27.903914
26.127696
25.248528
23.297668
22.876859
20.577908
19.619465
18.429756
17.858744
16.705990
15.792847
14.950633
13.451576
12.811422
12.110472
12.041926
11.505485
10.692477
##ZVALUE=315
0.780821
0.838637
0.825524
0.800490
0.922680
0.960827
0.815988
0.720620
0.828505
0.890493
0.878572
0.831485
0.847578
0.915527
0.839829
0.990629
1.148582
0.861883
1.095533
0.895858
1.045465
0.985861
0.992417
0.960827
1.134872
1.074672
1.250505
1.405478
1.409650
1.416802
1.342893
1.570582
1.566410
1.797676
1.994967
1.815557
2.029538
2.402663
2.511740
5.228519
19.561648
75.882673
163.986683
369.389653
613.298416
985.471010
1015.805602
1015.805602
1015.805602
1015.805602
1015.805602
986.699462
740.482807
428.890586
256.505609
117.024779
65.970421
42.055845
41.008592
46.228766
52.124858
65.715909
77.269673
96.540451
113.175511
129.643679
137.547851
137.755871
131.608844
114.828944
98.737478
77.281594
62.396526
45.800805
38.501620
30.411482
26.929975
24.646521
23.266673
21.562576
20.402670
19.041896
18.368959
17.226934
16.273856
15.597939
14.964938
14.298558
13.411641
12.328625
12.108684
11.174679
10.771751
10.244846
10.375977
9.546876
##ZVALUE=320
0.737906
0.819564
0.720620
0.942945
0.723600
1.036525
0.732541
0.943542
0.784993
0.839829
0.921488
0.752807
0.786781
0.855923
0.862479
0.885725
0.913739
0.920892
0.971556
0.839829
1.007915
1.102686
1.023412
0.886917
1.027584
1.143813
1.255870
1.333952
1.337528
1.136661
1.402497
1.361966
1.573563
1.438856
1.589656
1.550913
1.613498
1.711845
1.736879
2.178550
2.358556
3.083944
8.271933
43.486953
110.031962
290.910006
484.964848
816.787481
1015.794873
1015.794873
1015.794873
1015.794873
1015.794873
1015.794873
894.031525
537.858009
329.512954
159.229636
84.090829
38.002729
28.568506
29.045939
30.682683
36.409497
43.951869
59.983730
75.446963
93.945861
107.486844
116.519928
117.678642
109.869838
98.851919
78.288913
63.106418
45.698881
34.760833
25.936961
20.654798
16.557574
15.414953
14.270544
13.430715
12.674928
11.873841
11.479855
11.317730
10.659695
10.248423
9.955764
9.522438
8.951426
8.702874
8.837581
8.411407
8.380413
##ZVALUE=325
0.645518
0.803471
0.571609
0.770688
0.731945
0.682473
0.880957
0.739694
0.897646
0.937581
0.922680
0.877976
0.883937
0.956655
0.919700
0.951886
0.949502
1.030564
0.863671
0.823736
0.870824
0.782609
0.922680
1.079440
1.014471
0.929832
0.946522
1.161695
1.079440
1.346469
1.242757
1.226664
1.231432
1.373887
1.309514
1.370907
1.682639
1.523495
1.677871
1.581907
1.843572
2.021790
2.148747
2.303720
4.195571
22.995472
62.076449
168.722868
312.343836
602.696538
866.046548
1015.845537
1015.845537
1015.845537
1015.845537
1015.845537
976.399779
638.530850
409.812927
198.350549
103.865862
37.292838
18.582940
14.625788
15.498996
18.366575
22.992492
32.515526
44.752955
63.413978
76.243877
90.857744
98.229647
101.499557
94.193816
80.422759
66.560507
49.284697
37.517548
24.462938
17.791986
12.648702
10.566711
9.603500
8.715987
8.418560
7.983446
8.083582
7.995963
7.624626
7.607937
7.217526
7.340908
6.894469
6.906986
6.959438
##ZVALUE=330
0.824928
0.751615
0.787973
0.688434
0.762939
0.788569
0.821948
0.671744
0.814795
0.752807
0.793934
0.759959
0.921488
0.832677
0.728965
0.729561
0.964999
0.795722
0.792742
0.925660
0.981688
1.042485
0.941753
0.865459
0.990629
0.988841
0.864863
1.042485
1.030564
0.826716
0.867844
1.063943
1.082420
1.132488
1.324415
1.242757
1.291633
1.318455
1.395941
1.379848
1.307726
1.544952
1.668930
1.673698
1.823902
2.226830
2.722740
9.159446
29.893517
97.567439
193.625689
404.975414
622.804761
956.847668
1015.841961
1015.841961
1015.841961
1015.841961
1015.841961
745.294690
510.805845
263.021588
142.733455
53.857565
21.046996
9.460449
8.980632
9.516478
11.707544
18.184781
25.538802
38.352609
51.145554
69.289804
81.371665
89.606643
90.544820
84.439516
74.145794
58.568716
44.731498
30.913949
22.083521
15.376806
11.730790
8.549690
7.617474
7.107854
6.621480
6.327629
6.693602
6.301999
6.206632
6.336570
6.157756
6.045699
##ZVALUE=335
0.613928
0.609756
0.639558
0.674725
0.611544
0.570416
0.630617
0.739694
0.580549
0.650883
0.645518
0.612736
0.709891
0.793934
0.560880
0.607967
0.783801
0.575781
1.013875
0.547767
0.626445
0.848770
0.789762
0.842810
0.758767
0.794530
0.692606
0.876784
0.937581
0.941753
1.006722
0.955462
0.992417
1.047850
0.994802
1.037717
1.131892
1.091957
1.088977
1.128912
1.199841
1.344681
1.400709
1.506805
1.522899
1.613498
1.921654
1.888871
2.201796
4.664660
15.731454
61.646700
135.783553
313.866735
524.086952
865.072608
1015.793681
1015.793681
1015.793681
1015.793681
1015.793681
849.939585
612.375736
347.889662
199.499726
78.947544
32.096505
9.885430
7.781982
7.774830
8.618832
11.497736
15.722513
25.478601
36.095977
51.346421
63.427687
76.424479
82.885623
83.294511
78.921914
66.451430
55.666566
41.227937
31.465888
20.821691
15.444756
10.544658
8.576512
7.039905
6.185770
5.954504
5.731583
5.797744
5.723834
5.793571
##ZVALUE=340
0.526905
0.533462
0.555515
0.577569
0.601411
0.579953
0.724792
0.622869
0.657439
0.586510
0.621676
0.632405
0.602603
0.680685
0.715852
0.484586
0.662804
0.841618
0.522733
0.731945
0.852942
0.734925
0.713468
0.826716
0.657439
0.799894
0.766516
0.587702
0.834465
0.816584
0.770688
0.817776
0.802875
0.821948
0.917912
0.876784
0.999570
0.952482
0.905991
0.845790
1.080632
1.220703
1.191497
1.239777
1.465678
1.381636
1.346469
1.719594
1.593828
1.732707
1.882911
2.789497
7.632971
37.201643
93.797445
245.242715
422.887802
722.362995
972.619653
1015.764475
1015.764475
1015.764475
1015.764475
966.105461
720.181465
410.812497
242.883563
106.694698
45.376420
12.178421
7.894635
7.128716
7.306933
8.514524
10.329485
15.719533
22.366643
33.988953
45.049787
60.662627
70.208907
78.583956
77.781677
72.465539
65.646768
52.657723
42.036772
29.254556
21.782517
14.523864
10.645986
7.573962
6.338954
5.684495
5.125999
5.449653
##ZVALUE=345
0.615716
0.579953
0.553727
0.376701
0.561476
0.574589
0.604987
0.661612
0.703931
0.647902
0.475645
0.494719
0.619888
0.615716
0.649691
0.561476
0.508428
0.803471
0.606775
0.791550
0.685453
0.748634
0.794530
0.835657
0.640750
0.719428
0.742674
0.830889
0.726581
0.837445
0.925660
0.817776
0.881553
0.903606
1.027584
0.816584
0.809431
0.828505
0.929832
1.128912
1.014471
1.010895
1.132488
1.285672
1.239777
1.216531
1.208782
1.239777
1.434684
1.532435
1.593828
1.745820
1.923442
2.090931
4.055500
22.099614
59.256554
161.820650
298.765898
561.260581
798.949003
1015.793681
1015.793681
1015.793681
1015.793681
1015.793681
839.900970
541.409850
330.381989
144.263506
69.442987
21.210909
9.288788
7.129908
6.984472
6.994605
7.443428
9.232759
12.992620
20.395517
29.524565
42.601824
53.494573
65.012574
69.901943
71.443915
69.860816
61.076880
52.767992
40.666461
30.566454
19.802451
14.574528
9.883642
7.764697
6.160736
##ZVALUE=350
0.545979
0.642538
0.679493
0.478625
0.453591
0.383854
0.685453
0.580549
0.588894
0.559688
0.614524
0.558496
0.576973
0.538826
0.722408
0.638962
0.435710
0.720620
0.674725
0.607967
0.708699
0.583529
0.727773
0.646710
0.766516
0.851750
0.854731
0.554919
0.882745
0.688434
0.769496
0.785589
0.821948
0.857711
0.904799
0.894666
0.838637
0.946522
0.749826
0.733733
0.953674
0.956655
0.906587
0.987649
0.973940
1.159906
1.109838
1.232624
1.207590
1.207590
1.428723
1.533628
1.644492
1.785755
1.879930
2.004504
2.700686
8.377433
37.258863
87.969899
218.078494
380.191803
669.818521
907.008648
1015.794873
1015.794873
1015.794873
1015.794873
895.449519
647.594929
360.243917
212.762952
89.080930
36.204457
9.845495
6.872416
6.372929
6.124973
5.757809
6.600618
8.635521
11.969805
18.294454
25.473833
36.703944
45.916438
56.928992
63.015819
65.480471
63.555837
57.019591
49.054623
37.716627
28.537512
19.781590
14.285445
##ZVALUE=355
0.578761
0.589490
0.585914
0.642538
0.571609
0.608563
0.506639
0.593662
0.667572
0.655651
0.566840
0.591874
0.683665
0.678897
0.766516
0.568628
0.594854
0.701547
0.496507
0.458956
0.646710
0.644922
0.764728
0.692606
0.652671
0.645518
0.694990
0.585914
0.755787
0.754595
0.695586
0.801682
0.661612
0.838637
0.680685
0.893474
0.806451
0.814795
0.980496
0.799894
0.857711
0.888705
0.837445
0.941753
1.046658
1.186728
1.067519
0.919700
1.152754
1.042485
1.149774
1.261830
1.323819
1.399517
1.667738
1.420975
1.577735
1.817942
2.048612
4.927516
16.456842
66.118836
136.437416
293.708444
480.313897
782.620907
992.591977
1015.793681
1015.793681
1015.793681
997.933745
724.343657
495.631695
244.431496
126.786828
41.643977
14.964938
6.470680
6.080866
5.703568
5.450845
5.706549
5.961657
7.462502
10.014772
15.684962
22.196770
32.359958
40.066838
49.840808
56.072474
59.615970
58.486462
52.577853
46.730638
36.513805
##ZVALUE=360
0.649691
0.398755
0.636578
0.504851
0.566840
0.731945
0.621676
0.621676
0.611544
0.759959
0.751615
0.592470
0.594854
0.586510
0.658631
0.668764
0.601411
0.674725
0.737906
0.658631
0.736713
0.738502
0.671744
0.855923
0.887513
0.829697
0.744462
0.709891
0.702739
0.728965
0.915527
0.782609
0.817776
0.868440
0.814795
0.828505
0.807643
0.845790
0.748634
0.915527
0.930429
0.888705
0.957847
0.865459
1.100898
0.993609
0.873804
1.071692
1.141429
1.198649
1.133680
0.982881
1.357794
1.240969
1.348853
1.411438
1.431704
1.708865
1.762509
1.877546
1.977682
2.896786
7.773638
32.392740
80.182552
204.470754
352.377892
604.940653
835.078955
1015.868783
1015.868783
1015.868783
1015.868783
831.928849
600.894690
327.079892
184.929967
74.346662
28.333664
8.269548
6.182790
5.800724
5.685687
5.271435
5.180836
5.300641
6.343722
8.771420
12.124777
18.343925
25.272965
35.475492
42.510629
50.520897
53.536892
53.648949
##ZVALUE=365
0.682473
0.528693
0.487566
0.477433
0.544786
0.540614
0.580549
0.468493
0.572801
0.509620
0.535846
0.418425
0.609756
0.650883
0.565648
0.612736
0.553727
0.627637
0.622869
0.507832
0.582933
0.651479
0.658631
0.762939
0.682473
0.768900
0.663996
0.582933
0.693798
0.582933
0.841618
0.677705
0.773668
0.692606
0.630617
0.913739
0.798702
0.731945
0.715852
0.688434
0.953674
0.884533
0.990629
0.884533
0.956655
1.028776
1.093745
0.940561
0.855923
1.003742
1.096725
1.031756
0.983477
1.077652
1.177788
1.372695
1.462698
1.326799
1.259446
1.562834
1.566410
1.632571
1.995564
2.246499
3.784895
17.715693
48.483610
131.288767
251.622796
489.125848
696.296692
957.708955
1015.793681
1015.793681
1015.793681
897.265673
688.702464
419.182777
248.337984
101.504922
42.423606
10.755658
6.249547
5.670786
5.417466
4.823804
4.774928
4.581809
4.656911
5.377531
6.906986
10.470748
14.958978
22.331476
29.528737
37.433505
##ZVALUE=370
0.432730
0.520945
0.478625
0.566840
0.468493
0.443459
0.484586
0.616908
0.637770
0.459552
0.578761
0.572801
0.653863
0.606775
0.725985
0.675917
0.570416
0.701547
0.567436
0.714660
0.642538
0.504851
0.650883
0.574589
0.730753
0.643730
0.742674
0.638962
0.676513
0.811815
0.663996
0.731945
0.598431
0.728965
0.666976
0.750422
0.842810
0.799894
0.790954
0.669956
0.848770
0.890493
0.953674
0.876784
0.713468
0.833869
0.833869
0.876784
0.978708
0.819564
0.865459
1.031756
0.862479
1.040697
1.176596
1.071692
1.172423
1.400709
1.167655
1.343489
1.452565
1.480579
1.619458
1.686811
1.795888
1.978874
2.443790
9.643435
29.974580
94.418526
184.844732
375.515819
572.931767
866.104960
1015.793681
1015.793681
1015.793681
980.656743
787.897706
500.998497
313.634872
140.526891
67.274570
19.156933
7.351637
5.246997
4.923940
4.703999
4.267693
4.011989
3.829598
4.137754
4.506707
6.121993
8.591413
13.049841
##ZVALUE=375
0.575781
0.604987
0.629425
0.539422
0.551939
0.620484
0.464916
0.662804
0.643730
0.676513
0.647902
0.632405
0.601411
0.526905
0.582933
0.694990
0.562668
0.597835
0.565648
0.771880
0.648499
0.664592
0.742674
0.635982
0.545979
0.735521
0.521541
0.678897
0.696778
0.590682
0.749826
0.736713
0.619888
0.708699
0.701547
0.852942
0.781417
0.814795
0.794530
0.826716
0.683665
0.757575
0.747442
0.648499
0.835657
0.784993
0.778437
0.863671
0.869632
0.896454
0.929832
0.899434
0.833869
1.002550
0.815988
1.016855
1.018643
1.124740
0.969768
1.167655
1.190901
1.145601
1.249909
1.312494
1.361966
1.538992
1.469851
1.756549
2.028942
4.721880
15.729666
56.825876
125.837922
291.564465
475.777984
760.487914
963.213444
1015.794873
1015.794873
1015.794873
897.876024
613.290668
420.327783
228.008628
122.729540
41.774511
14.127493
5.321503
4.443526
4.580617
4.247427
3.741980
3.921986
3.763437
3.795624
4.209876
##ZVALUE=380
0.546575
0.537634
0.451803
0.600815
0.584722
0.565648
0.465512
0.359416
0.627637
0.489950
0.409484
0.447631
0.347495
0.603795
0.551939
0.537634
0.621676
0.674725
0.631809
0.595450
0.565648
0.775456
0.610948
0.571609
0.636578
0.479817
0.635982
0.659823
0.532866
0.717640
0.814795
0.894666
0.741482
0.745654
0.946522
0.702739
0.579953
0.704527
0.862479
0.817776
0.785589
0.765920
0.853539
0.749826
0.697970
0.829697
0.738502
0.728965
0.884533
0.869632
0.818968
0.937581
0.998974
0.834465
0.960827
0.986457
0.842810
0.765920
0.839829
0.924468
0.949502
1.070499
1.030564
1.216531
1.140833
1.229644
1.123548
1.472831
1.721978
1.669526
1.938939
2.832413
8.815527
39.666891
93.792677
228.493810
384.913683
645.201802
862.507820
1015.793681
1015.793681
1015.793681
977.757573
742.637515
540.404916
297.956467
167.460442
63.993931
25.047660
6.696582
4.297495
3.976822
3.938675
3.552437
3.613830
3.663898
##ZVALUE=385
0.499487
0.516772
0.534654
0.536442
0.422597
0.541806
0.429749
0.549555
0.533462
0.587702
0.612736
0.593662
0.522733
0.560880
0.609756
0.590682
0.529885
0.559688
0.571609
0.553727
0.505447
0.592470
0.549555
0.567436
0.480413
0.623465
0.652671
0.794530
0.640750
0.770688
1.007915
0.882745
0.820756
0.864863
0.787973
0.864863
0.941753
1.019835
0.757575
0.766516
0.950694
0.723600
0.919700
0.779629
0.784993
0.993609
0.910759
0.724792
0.705719
0.948906
0.911951
0.885725
0.810623
0.801682
0.924468
0.731945
0.811815
0.831485
0.894666
0.851750
0.878572
0.849962
0.956655
1.011491
1.093745
1.147985
1.214743
1.194477
1.253486
1.485944
1.755953
1.745820
1.767874
2.305508
4.656911
22.940636
59.684515
156.276822
283.790827
536.757708
751.326680
996.838808
1015.794873
1015.794873
1015.794873
853.014588
654.093623
397.865772
244.530439
110.706687
46.966672
10.851622
4.863739
3.999472
3.952980
3.724694
##ZVALUE=390
0.518560
0.513792
0.377893
0.494719
0.495911
0.480413
0.462532
0.511408
0.477433
0.517964
0.410676
0.420809
0.399947
0.529885
0.534654
0.555515
0.482798
0.550747
0.663996
0.554919
0.584722
0.461936
0.614524
0.707507
0.666976
0.730753
0.754595
0.700951
0.730753
0.801682
0.854731
0.767708
0.840425
0.682473
0.857711
0.983477
0.908971
0.907779
0.948906
0.931621
0.952482
0.846982
0.944734
0.950694
0.966787
0.931621
0.865459
0.913739
0.971556
0.910759
0.894666
0.824928
0.861883
0.942945
1.014471
1.021624
0.845790
0.949502
0.949502
0.871420
0.937581
0.903606
1.061559
0.894666
1.032948
1.135468
1.197457
1.304746
1.342893
1.262426
1.491904
1.583695
1.761913
1.752973
1.712441
1.923442
2.683997
11.745691
37.580729
116.401911
226.614475
447.220802
634.478927
874.641538
1013.645530
1015.797853
1015.797853
959.272981
784.648657
527.588725
333.305001
153.552890
77.246428
23.168921
7.809997
4.159808
##ZVALUE=395
0.528693
0.551939
0.477433
0.493526
0.482798
0.533462
0.389814
0.538826
0.328422
0.522733
0.426769
0.374913
0.621676
0.515580
0.310540
0.615716
0.774860
0.647902
0.530481
0.409484
0.475645
0.565648
0.576973
0.313520
0.589490
0.625849
0.676513
0.659823
0.778437
0.791550
0.534654
1.000762
0.946522
1.066923
0.897646
0.954866
0.940561
0.889897
0.933409
1.016855
0.926852
0.999570
0.873804
0.915527
0.900626
0.798702
0.919700
0.909567
0.861883
0.823736
0.957847
0.978708
0.887513
0.838637
0.927448
1.046658
1.022816
0.986457
0.903606
1.085997
0.935793
1.032948
0.847578
1.178980
1.022816
1.016855
1.092553
1.046658
1.330972
1.412630
1.553893
1.490712
1.614690
1.762509
1.533628
1.676679
1.487732
1.934767
2.035499
6.950498
24.243593
85.343719
165.118575
324.657559
501.266718
771.378875
960.940719
1015.787721
1015.787721
1015.787721
884.192586
609.735847
412.544012
202.551484
105.788708
36.267638
##ZVALUE=400
0.550747
0.656843
0.475645
0.389814
0.468493
0.469685
0.448823
0.499487
0.548959
0.528693
0.510812
0.632405
0.536442
0.565648
0.344515
0.486970
0.434518
0.578761
0.521541
0.580549
0.563860
0.430942
0.583529
0.567436
0.514984
0.505447
0.482798
0.727773
0.819564
0.711679
0.737906
0.831485
0.803471
0.977516
0.857711
0.841618
0.864863
0.903606
0.957847
0.918508
0.947714
0.975728
0.932813
0.851750
0.970960
0.878572
0.766516
0.975728
0.888705
1.006722
1.019835
1.003742
0.926852
0.991821
0.989437
0.998974
1.050830
0.965595
1.038909
1.087785
1.128912
1.105666
1.136661
1.063943
1.164675
1.139641
1.226664
1.197457
1.354814
1.287460
1.358986
1.502633
1.463890
1.486540
1.470447
1.363754
1.676679
1.621842
1.538992
1.675487
1.943707
4.084706
13.223886
47.748685
104.687810
238.856673
395.192504
648.068786
839.499831
1015.800834
1015.800834
1015.800834
923.961997
672.683716
478.809476
267.038941
##END
