##TITLE=SKDZ101
##FORMAT=SPECTACLE-ASCII V-1.2
##DATA TYPE=ULTRAVIOLET SPECTRUM
##SECOND TYPE=ULTRAVIOLET SPECTRUM
##DATE=10/25/17
##TIME=10:45:45
##SPECTROMETER/DATA SYSTEM=SPECTACLE
##XUNITS=NM EM
##YUNITS=ENERGY
##YFACTOR=1
##FIRSTX=220
##LASTX=410
##NPOINTS=96
##3DDATA=Equidistant
##ZUNITS=NM EX
##FIRSTZ=210
##LASTZ=400
##ZPOINTS=39
##XYDATA=(Y..Y)
##ZVALUE=210
4.099607
4.667640
4.039407
5.203485
5.498528
5.434752
4.434586
4.206896
4.162788
4.749894
3.329515
2.925992
2.669692
2.822876
3.261566
3.289580
2.806783
3.875494
3.457665
3.408790
4.078746
3.774762
3.655553
4.274845
3.895760
3.798604
4.645586
4.688501
4.392862
4.959702
5.119443
5.032420
4.829764
5.262494
5.227923
5.332828
6.061792
5.934834
5.441904
5.509853
5.950928
5.294681
5.427599
5.579591
6.266832
5.196929
5.421638
6.110668
6.609559
6.477833
7.037520
5.784631
5.775690
6.423593
6.524920
7.457733
6.573796
6.428957
6.641746
6.845593
6.528497
7.090569
6.414652
6.839633
7.626414
7.048845
7.315874
8.123517
8.394718
9.498000
12.034774
11.725426
13.097525
15.495420
15.942454
17.972589
17.239451
18.634796
16.573668
16.384721
15.567541
13.147593
11.935830
11.362433
9.440780
8.387566
6.996989
7.714629
7.016659
6.290674
7.334948
6.137490
7.223487
7.755756
7.129908
7.962584
##ZVALUE=215
10.070801
9.718537
8.180737
9.045601
8.979440
7.210970
8.067489
6.995797
8.947849
7.992983
7.126927
6.347895
5.674958
5.307794
3.879666
3.831983
3.761649
3.679991
4.133582
3.315806
4.046559
4.323721
3.741980
4.161596
4.416704
3.831983
3.989935
5.047917
4.683733
4.948974
5.107522
5.250573
5.378723
5.850792
5.262494
5.494952
5.300641
4.881620
6.206632
5.501509
5.837679
6.133914
5.583763
5.832911
5.831718
6.515980
5.841851
7.016659
6.513000
6.604791
6.847978
6.297827
7.009506
7.706881
7.655621
6.860495
6.902814
7.255673
7.682443
7.518530
7.342696
6.909966
6.738901
7.641912
7.928610
8.190870
7.940531
7.957816
9.836555
10.144711
12.106895
12.220740
14.810562
15.257597
17.090440
17.672777
17.341971
16.555786
17.039776
16.420484
13.991594
13.811588
13.360977
10.963678
9.389520
9.028912
7.689595
7.017851
7.592440
7.500648
6.395578
7.470846
6.620884
7.334948
6.982684
7.294416
##ZVALUE=220
25.074482
28.758645
29.672980
29.570460
29.401779
24.451613
20.608902
16.410947
14.985800
15.353560
16.029477
15.927553
14.519691
14.990568
10.430813
9.360909
6.464720
5.143881
5.062819
3.879666
4.735589
4.622936
4.537702
5.285740
4.270673
4.819632
4.844666
4.614592
5.904436
5.719662
4.761815
6.560683
5.539656
5.893707
5.449653
5.986691
6.949902
6.155968
7.267594
6.473660
6.526709
7.973909
6.765723
6.289482
6.874800
7.100701
7.743835
7.503629
6.923676
7.726550
7.227659
7.999539
8.166432
7.376671
7.365942
7.328987
8.039474
7.823706
8.901954
7.425547
8.363724
8.901954
8.714795
7.651448
9.145737
9.496808
9.229779
9.120703
10.325909
11.925697
12.479424
14.270544
16.328692
15.578866
17.372966
16.867518
17.709732
18.940568
17.285943
17.759800
15.544891
14.193654
12.964606
12.367964
10.581613
9.827614
9.543896
8.921623
7.925630
8.972883
8.844733
7.982850
8.680820
7.689595
8.269548
7.975698
##ZVALUE=225
39.010644
41.018724
61.477423
69.385767
76.081753
81.359744
68.314672
57.580471
45.862794
35.116673
29.542446
26.637912
28.442740
29.445887
28.641820
27.423501
23.734570
17.437935
14.242530
9.847879
7.315874
5.451441
5.042553
5.383492
4.905462
4.714727
5.422831
4.682541
5.492568
4.935861
6.008744
5.238652
6.327629
6.457567
7.189512
6.281734
6.969571
6.689429
7.088780
7.300973
8.514524
7.799864
7.724762
7.350445
7.725954
7.312894
8.382797
8.952618
8.096695
8.518696
8.163452
9.016991
8.499622
9.755492
9.407997
9.378791
9.354949
9.028912
9.925961
10.291934
9.752512
10.478497
10.219812
11.342764
11.513829
10.612607
11.255741
11.884570
11.529922
14.272928
14.058948
15.945435
18.747449
18.372536
18.877983
20.101666
19.540787
17.955899
19.715428
16.631484
16.354918
15.061498
13.513565
12.260675
11.496544
11.400580
10.731816
9.760857
9.733438
10.217428
9.421706
9.894967
9.455681
9.966493
10.088682
9.492636
##ZVALUE=230
31.196475
37.674904
58.071613
100.833774
129.250884
162.927508
179.790854
175.734758
161.757469
127.564669
93.261600
68.412423
54.291487
45.739412
48.445463
51.607490
53.956509
52.766800
47.796965
39.672852
28.120875
20.093918
12.441874
8.648634
6.667972
6.463528
6.228685
5.766749
6.203651
5.676746
6.058812
5.981922
6.573796
7.417798
7.487535
7.821918
7.210970
7.887483
7.648468
7.495880
6.760955
7.503629
8.336902
8.596778
8.089542
10.124445
9.443760
8.429885
9.394884
9.690523
9.120703
9.865761
11.064410
10.344982
10.774732
11.396408
11.704564
12.328625
11.433959
11.496544
11.288524
12.674928
12.709498
12.428761
12.174845
13.774633
13.837814
14.534593
14.906526
16.122460
16.835928
18.505454
20.848513
20.116568
21.408796
21.928549
21.352768
20.852685
19.910932
18.671751
18.501878
17.912984
17.119646
15.391707
14.689565
12.823939
14.229417
13.788939
13.174415
14.240742
12.411475
12.498498
12.553930
13.109446
12.643933
12.374520
##ZVALUE=235
11.989474
13.066530
33.120513
64.466596
120.448470
177.451968
250.391960
309.394002
345.943570
350.317955
298.317671
248.939991
193.621516
92.752576
83.484650
72.125793
73.874593
79.775453
85.034966
84.506869
67.646503
64.924955
44.150949
36.665797
17.663836
15.852451
9.287596
8.246899
8.550882
7.019639
7.117987
6.409883
7.040501
7.190704
7.615685
8.372664
7.589459
7.475615
7.889867
8.887649
8.296967
9.818673
7.886887
8.609891
8.924603
8.277893
9.406805
9.420514
10.130405
10.676980
10.867715
12.462735
11.564493
12.470484
11.832714
12.672544
12.064576
13.906956
13.585687
14.627576
14.465451
14.638901
14.767647
16.659498
15.362501
15.817881
17.050505
16.011000
18.796921
17.865896
21.308661
22.952557
25.548935
24.474859
24.710894
25.125742
24.283528
23.598671
23.475885
22.033453
22.028685
21.768808
21.219850
19.055605
19.429922
18.569827
17.284751
15.337467
17.325878
15.889406
15.835762
16.777515
17.769933
16.665459
15.989542
16.417503
##ZVALUE=240
2.730489
3.006458
7.376671
16.682744
38.588643
94.062686
159.372687
276.625752
374.794006
467.351675
522.549748
518.543720
474.340916
380.213857
295.372009
193.697810
136.435628
103.524923
94.368458
100.241899
109.282732
110.187531
107.696652
100.924969
80.875754
65.453649
43.314695
31.143427
19.336939
12.959838
11.358857
8.744597
8.323789
7.912517
8.140802
8.403659
8.796453
8.073449
7.887483
8.428693
8.793473
8.874536
9.307861
9.325743
9.361506
9.596944
10.494590
10.958910
10.405779
10.938644
11.749864
12.378693
13.623834
12.930632
13.708472
14.106631
13.176799
15.171766
14.339685
15.902519
16.590953
15.718937
16.970634
17.011762
17.115474
17.578602
18.373728
20.137429
20.045638
22.753477
23.069978
23.728609
24.978518
25.557876
27.118921
28.109550
27.406812
27.271509
25.418997
24.824739
24.095774
23.987889
23.958683
22.254586
21.883845
20.686984
20.912886
20.757914
21.023750
19.300580
19.860864
18.760562
21.276474
18.631816
19.608736
20.329952
##ZVALUE=245
2.254844
2.492666
2.095699
2.668500
4.260540
14.678836
37.088990
96.355677
171.296000
273.314714
433.251858
544.298887
644.353032
660.609007
609.841943
533.149838
394.494534
291.167498
251.203775
129.405856
100.427866
96.074939
109.019876
119.627714
128.143430
117.858648
108.569860
90.720654
72.571635
47.362447
35.329461
20.470619
13.535619
9.226799
7.823706
7.336736
7.675886
7.768869
7.042885
8.091927
7.487535
8.496642
8.453727
8.490682
8.895993
9.721518
9.518862
9.423494
9.390712
9.785891
10.543466
10.812879
11.135936
12.164712
11.538863
12.658834
13.196468
13.150573
14.396906
13.668537
13.968945
13.677478
14.328957
15.983582
14.541745
15.804768
15.448928
17.512441
18.479824
19.264817
21.395683
21.551847
23.368597
25.013685
24.640560
24.890900
24.934411
25.477409
24.618506
23.460984
22.493601
22.673607
21.976829
21.878481
20.150542
19.925833
19.512773
20.290613
21.234751
17.535686
16.798973
18.341541
20.253658
18.049479
16.910434
18.759966
##ZVALUE=250
2.014637
2.244711
2.048612
2.216697
2.443790
2.335906
3.115535
9.149909
36.845803
78.658462
188.178420
303.260684
431.767702
614.270568
713.547468
784.577727
774.144530
675.109625
567.115545
395.250916
271.681547
178.903937
107.945800
90.471506
100.917816
115.481615
131.055713
133.512616
131.610632
119.362473
102.955699
77.167749
57.465434
35.157800
23.446679
13.981462
9.347796
8.066893
7.079840
7.489920
7.341504
7.598996
6.868839
6.998777
7.777810
7.823706
8.173585
8.109808
8.568764
7.959604
8.640885
9.301901
9.155869
9.877682
9.669662
10.532737
10.417700
10.449886
10.513663
11.379719
11.329651
11.545420
12.850761
12.232661
13.459921
13.034940
14.266968
13.675690
14.607906
16.951561
17.628670
18.213987
20.302534
20.389557
20.931959
21.106601
21.781921
21.264553
21.103621
19.450784
20.736456
18.154979
18.294454
17.998815
18.901825
16.644597
17.378926
16.521811
16.635656
16.920567
18.062592
16.150475
17.917752
17.804503
16.851425
17.619729
##ZVALUE=255
1.865625
1.728535
1.771450
1.662970
2.090931
2.049804
1.774430
2.212524
2.218485
4.963875
26.092529
61.929822
126.567483
267.378688
410.142541
617.276430
754.391551
871.372819
899.201035
836.282969
718.647838
564.333797
349.560976
231.723785
122.703910
92.119575
87.826848
101.141930
123.631954
137.525797
146.112442
140.409470
125.206709
104.051828
79.709888
54.904819
37.696958
21.708608
14.217496
9.555817
7.323623
8.105636
6.419420
6.942749
7.666945
6.830692
7.596612
7.372499
8.479953
7.446408
8.532405
8.727908
8.617640
8.474588
8.815527
8.342862
9.486675
9.860992
9.941459
10.310411
9.945631
10.336637
11.059642
11.226535
11.696815
11.653900
12.422800
12.749434
13.294816
14.692545
15.033484
15.660524
16.621947
18.612742
17.982721
18.475652
19.242764
18.556714
18.593669
17.420650
17.056465
16.849637
16.922951
15.248656
16.498566
15.772581
15.271902
14.843941
15.262961
14.819503
14.857650
15.097857
15.894771
15.793443
14.540553
15.541911
##ZVALUE=260
1.751781
1.618862
1.518726
1.667738
1.769662
1.872778
1.600981
1.566410
2.090931
2.006888
2.081990
2.587438
12.927651
37.027001
104.225874
201.360583
399.685502
567.425489
737.894773
947.294831
1015.830636
1005.947590
892.337561
677.050948
487.484932
281.445980
179.799795
102.106929
78.322887
82.587600
102.741718
124.536753
138.710737
147.326589
143.769979
130.279660
111.272931
80.117583
60.488582
36.426783
23.977757
13.094544
9.742975
7.818937
7.729530
7.521510
7.683635
7.558465
6.987453
7.345676
7.840991
9.062886
8.503795
8.716583
8.472800
9.165406
8.489490
8.350611
8.897781
9.539723
9.393692
9.818673
10.335445
10.023713
10.301471
10.503531
11.112690
11.719465
11.879802
12.676716
14.117956
14.489889
15.425682
15.517473
15.996695
15.148520
15.373826
16.339421
15.129447
15.129447
14.466643
15.540719
14.557838
13.788939
13.872981
13.635755
13.146996
13.403893
13.884902
13.784766
14.031529
13.676882
13.218522
13.507605
14.107823
13.296604
##ZVALUE=265
1.426935
1.339912
1.573563
1.347661
1.567602
1.463890
1.915693
1.739860
1.608729
1.779795
1.878738
2.055764
2.039671
2.374649
4.667640
27.064681
67.254901
171.049833
302.192569
548.767447
756.456852
951.601863
1015.831828
1015.831828
1001.676917
855.717063
625.493526
435.840487
242.983699
146.974921
90.528727
66.867471
76.469779
106.916428
125.567913
144.774914
152.133703
145.552754
130.656958
104.353428
83.219409
54.666996
39.306879
22.697449
14.929771
9.315610
8.583665
7.700920
7.940531
8.618832
7.980466
8.092523
8.005500
8.372664
8.522868
8.530617
8.790493
8.897781
8.794665
9.270906
9.500980
9.684563
9.711981
9.168983
9.463429
10.803938
10.644794
10.797977
11.909604
12.142658
12.374520
15.076995
13.896823
14.384985
14.937520
15.552640
14.647841
14.009476
15.174747
13.982654
13.896823
13.778806
13.518929
12.556911
13.180971
12.732744
12.363791
12.444854
12.701750
12.835860
12.728572
11.986494
12.374520
12.282729
13.134480
12.901425
##ZVALUE=270
1.307726
1.193881
1.410842
1.447797
1.256466
1.389980
1.457930
1.351833
1.436472
1.425743
1.877546
1.650453
1.755953
1.762509
1.870990
2.324581
2.801418
12.221932
36.740899
122.421980
243.539810
417.132974
713.630915
929.847956
1015.830636
1015.830636
1015.830636
1008.246541
777.027607
573.410988
382.593870
196.755528
110.528469
61.677694
59.493780
83.396435
103.409886
133.032799
147.280693
154.723525
152.913928
132.425427
111.277699
81.154704
58.623552
36.322474
25.234818
15.693903
11.310577
8.881688
8.389950
8.300543
8.080602
8.659959
8.332729
9.180903
8.606911
9.657741
9.493828
9.436607
10.103583
10.563731
9.659529
9.974837
10.037422
10.317564
10.530949
10.905862
11.160970
12.357831
13.129711
12.790561
13.519526
14.252663
13.818741
14.063716
14.176965
13.963580
13.694763
13.707876
13.391972
12.173653
12.831688
12.459755
12.095571
12.325644
11.867881
11.879802
12.047887
12.227893
12.036562
11.725426
11.880994
12.088418
12.342930
11.943579
##ZVALUE=275
1.177788
1.176596
1.332760
1.317859
1.209974
1.378655
1.317859
1.239777
1.310706
1.495481
1.293421
1.180768
1.652837
1.580715
1.759529
1.721978
1.800656
2.067685
2.364516
5.902648
21.435618
62.154531
187.577009
346.210003
634.933710
849.929452
1015.830636
1015.830636
1015.830636
1015.830636
993.984938
721.416473
502.258539
261.635780
148.396492
69.599748
49.925447
58.323741
79.082847
105.685592
126.408935
145.485997
152.219534
147.023797
134.421587
106.239915
83.155632
58.408976
42.011738
25.567412
17.897487
11.543632
10.428429
9.436607
9.124875
9.082556
8.693933
8.948445
9.360909
9.467602
9.919405
9.902716
10.062456
9.727478
10.118484
10.514855
10.616779
11.076927
11.303425
11.587739
12.245774
12.356639
13.264418
13.414621
14.232993
13.988614
13.559461
13.175607
13.033748
13.281703
12.791753
12.888908
12.421608
11.949539
11.645555
11.823773
12.218952
11.724830
11.529922
11.123419
11.080503
11.417866
11.894703
11.491776
11.797547
11.749864
##ZVALUE=280
1.218915
1.089573
1.120567
1.313686
1.158714
1.106858
1.195669
1.223683
1.267791
1.282692
1.183748
1.448989
1.382828
1.519918
1.416802
1.406670
1.640916
1.659989
1.610518
1.915693
2.136827
2.619624
14.701486
47.551990
150.312781
274.319649
511.128902
726.836920
999.802947
1015.830636
1015.830636
1015.830636
1015.830636
863.137841
626.440644
352.050662
209.779739
93.043447
51.079988
41.648746
53.627491
78.712702
99.527836
126.859546
141.649842
148.886442
143.630505
127.906799
108.615756
80.456734
61.966777
39.466619
27.483702
17.657876
13.065934
10.315776
9.566545
9.757876
9.549856
9.258986
9.850860
10.141730
9.489655
10.190606
10.609627
10.367632
10.472536
10.784864
11.066794
11.226535
11.461973
12.802482
13.055801
13.010502
12.613535
13.198853
12.715459
12.929440
12.099743
12.279749
12.325644
12.391806
11.519790
11.802912
10.927916
11.124611
11.502504
11.152625
11.283755
11.539459
11.143684
11.023879
10.853410
11.123419
11.038780
10.491610
##ZVALUE=285
1.067519
1.173615
1.055598
0.939965
1.131892
1.026988
1.172423
1.158714
1.018643
1.196861
1.261830
1.389980
1.360774
1.314878
1.362562
1.191497
1.341701
1.447797
1.535416
1.609921
1.714826
1.869798
2.005696
2.491474
7.329583
24.832487
86.275935
177.623630
371.251702
587.437749
825.365782
1015.830636
1015.830636
1015.830636
1015.830636
1015.110612
816.957951
497.472882
306.300521
141.778588
71.652532
35.012960
34.699440
53.560734
71.693659
100.066662
118.530989
137.361884
142.807961
138.967633
129.163861
106.726885
86.704493
60.795546
42.158961
26.429892
17.643571
12.610555
10.586977
9.515882
9.521842
9.448528
9.492636
9.393692
9.750724
9.844899
10.198951
10.451674
10.444522
10.694861
11.102557
11.851788
12.263656
12.483597
12.408495
12.092590
11.772513
11.537671
11.600852
10.904670
11.468530
11.755824
11.406541
11.297464
11.364818
11.178851
11.027455
10.904670
11.032820
11.074543
10.567904
10.560751
11.029840
10.698438
11.172891
10.670424
##ZVALUE=290
0.939965
1.196861
1.098514
0.938773
1.022816
1.097918
1.034737
1.056790
1.254678
1.221895
0.941753
1.210570
1.146793
1.170635
1.147985
1.308918
1.411438
1.554489
1.387596
1.349449
1.472831
1.578927
2.015829
1.761913
1.896620
2.228618
3.110766
10.678768
46.827793
113.443732
220.294595
455.698967
694.730878
1010.254622
1015.833616
1015.833616
1015.833616
1015.833616
995.495915
669.378638
438.113809
212.587714
109.542012
41.474700
26.522875
33.930540
46.700835
68.948865
90.981722
116.083622
129.434466
140.443444
137.100816
124.661922
106.999874
81.412792
61.554909
40.221810
27.378798
17.356873
13.084412
9.872913
9.334683
9.013414
8.486509
8.873940
9.582639
9.782910
9.956956
9.814501
10.306835
10.634661
11.662841
10.814667
11.263490
11.058450
11.188984
10.857582
10.520816
10.560751
10.562539
10.778904
11.013746
10.791421
10.791421
10.768771
10.504723
10.449886
10.517836
10.798573
10.524988
10.886788
10.475516
10.219812
10.507703
10.458827
##ZVALUE=295
0.844598
0.757575
0.866652
0.862479
0.809431
0.876784
0.859499
0.887513
0.774860
0.967979
0.877976
0.967979
0.989437
0.999570
1.144409
1.066923
1.079440
1.297593
0.993609
1.182556
1.244545
1.405478
1.299977
1.583695
1.595616
1.782775
1.692772
2.045631
2.514720
4.353523
16.777515
77.046752
170.241594
387.532711
606.438518
953.086615
1015.710831
1015.710831
1015.710831
1015.710831
1015.710831
835.611820
580.550432
305.506587
162.699819
56.943893
28.194785
21.357536
28.113723
45.314431
63.222647
87.102652
106.629729
126.144886
133.181810
131.471753
121.415854
99.659562
81.092715
57.008862
41.250587
25.177598
17.324686
12.651682
10.033846
8.728504
8.993745
8.353591
8.804798
9.136796
9.460449
9.724498
9.784698
10.359883
10.103583
10.632873
10.512471
10.530949
10.384917
10.200739
9.992719
10.382533
10.182858
10.167956
10.392666
10.674000
10.767579
10.956526
10.336637
10.273457
10.394454
10.533929
10.444522
10.225773
10.252595
10.030866
##ZVALUE=300
0.959635
0.960827
0.933409
0.862479
0.894666
0.898838
0.845790
0.986457
0.867844
0.933409
0.967979
0.970960
1.022816
1.020432
1.230836
0.958443
1.124740
1.272559
1.052618
1.216531
1.406670
1.348853
1.315475
1.586676
1.479983
1.687407
1.725554
1.372695
1.691580
2.003908
2.308488
2.692938
10.285974
38.937926
131.668448
253.134966
502.972007
751.416683
1015.831828
1015.831828
1015.831828
1015.831828
1015.831828
1015.831828
730.364919
473.331809
238.595009
123.428702
41.102767
20.617843
18.659830
25.833845
40.795803
56.805611
81.142783
99.467635
118.704438
126.677752
124.978423
118.269920
99.357963
79.782605
57.004690
42.782426
26.535988
18.766522
12.960434
10.206699
9.367466
8.787513
9.374619
9.430647
9.716749
10.290742
10.258555
10.059476
10.428429
10.084510
10.149479
10.287762
10.215640
9.939671
10.386705
10.271668
10.118484
9.864569
10.106564
10.581613
10.228753
10.448694
10.173917
10.292530
10.510683
10.376573
10.676980
10.127425
##ZVALUE=305
0.862479
0.796914
0.898838
0.788569
0.788569
0.925660
0.999570
0.836849
1.010895
0.948906
0.992417
0.917912
0.963807
0.915527
0.961423
1.082420
0.993609
1.176596
1.097918
0.836849
1.130700
1.280904
1.282692
1.093745
1.255870
1.480579
1.219511
1.567602
1.503825
1.512766
1.846552
2.049804
1.998544
2.464652
5.695820
22.185445
87.632537
188.208818
411.463976
634.313822
968.752503
1015.830636
1015.830636
1015.830636
1015.830636
1015.830636
903.910995
638.543963
336.022973
185.567737
68.693757
28.095841
14.683604
16.925931
26.204586
37.507415
58.857799
75.840950
97.127557
109.569430
119.938850
119.564533
109.445453
96.258521
72.767735
57.378411
38.560629
27.255416
17.119646
12.932420
10.450482
9.851456
9.428859
9.573698
10.112524
9.816885
9.884834
9.616613
9.743571
10.036826
9.970665
9.644628
9.633899
10.112524
10.231733
10.083914
9.895563
9.963512
10.109544
10.269880
10.515451
10.181665
9.937882
9.920597
10.194778
10.416508
##ZVALUE=310
0.836849
0.824928
0.875592
0.804663
0.806451
0.878572
0.919700
0.764728
0.920892
0.778437
0.750422
0.825524
0.909567
0.859499
0.925660
1.009703
0.960827
1.040697
1.055598
0.933409
0.980496
1.217723
1.125932
1.052618
1.283884
1.156926
1.361966
1.415610
1.265407
1.389980
1.651645
1.580715
1.655817
1.766682
1.840591
2.014637
2.463460
12.140870
39.275885
130.517483
255.818367
506.500602
749.166608
1015.830636
1015.830636
1015.830636
1015.830636
1015.830636
1015.830636
767.786503
514.479876
254.980922
130.410790
43.318868
18.266439
12.593865
15.478730
23.175478
33.409595
51.235557
66.745877
88.185668
104.036927
113.381743
113.524795
105.376840
93.122721
73.651671
57.018995
38.235784
27.076602
18.315911
13.688803
10.991693
10.128617
9.104609
9.251833
9.558797
9.334683
9.389520
9.232759
9.528995
9.822845
10.040998
10.218620
10.013580
10.167956
10.419488
10.025501
9.899735
10.283589
10.298491
10.080934
10.017753
9.958744
9.912848
##ZVALUE=315
0.795722
0.797510
0.662804
0.803471
0.787973
0.893474
0.728965
0.771880
0.805855
0.787973
0.805855
0.750422
0.827909
0.744462
0.737906
0.759959
0.934601
1.011491
0.776649
0.996590
1.026988
0.959635
1.020432
1.112819
0.861883
1.022816
1.217723
1.046658
1.039505
1.188517
1.364946
1.303554
1.169443
1.436472
1.591444
1.708865
1.764894
1.957417
2.332926
5.462766
20.983815
84.153414
182.025433
405.923724
655.812025
999.922752
1015.830636
1015.830636
1015.830636
1015.830636
1015.830636
891.488791
633.684993
337.209702
179.821849
62.667727
25.373697
11.195540
11.071563
14.641881
19.898415
32.228827
44.896603
63.913465
79.952478
97.689629
104.690790
106.754899
100.915432
85.353851
72.245598
52.775741
39.279461
25.463700
18.454790
12.779832
10.940433
9.756684
9.215474
8.804798
8.742809
9.340644
9.088516
9.729862
9.337664
9.325743
9.819865
9.951591
9.817481
9.817481
10.264516
9.919405
9.702444
9.429455
9.840727
9.963512
##ZVALUE=320
0.702739
0.714660
0.646710
0.677705
0.726581
0.718832
0.731945
0.625849
0.784993
0.676513
0.808835
0.745654
0.723600
0.788569
0.671744
0.871420
0.769496
0.805855
0.732541
0.778437
0.777841
0.768900
0.948906
0.819564
0.953674
0.900626
1.055598
1.036525
1.085997
1.223683
1.165867
1.173615
1.334548
1.262426
1.298785
1.489520
1.492500
1.559854
1.794696
1.948476
1.991987
2.860427
10.165572
52.889585
128.012896
318.486691
513.634682
828.296542
1015.779972
1015.779972
1015.779972
1015.779972
1015.779972
1003.489494
765.636563
431.512594
248.086452
102.976561
43.860674
14.097691
9.829998
10.111928
12.270808
18.483996
26.352406
42.633414
55.798888
74.615479
88.504553
99.922419
101.505518
94.838738
85.281730
66.174865
52.314997
35.689473
25.921464
17.531514
13.281703
10.334849
9.285808
8.930564
8.884668
8.762479
8.845925
9.053946
9.078979
9.201765
9.317994
9.358525
9.211898
9.040833
9.146929
9.238720
9.347796
9.156466
##ZVALUE=325
0.476837
0.668764
0.522733
0.719428
0.660419
0.530481
0.710487
0.811815
0.742674
0.756979
0.705719
0.649691
0.743866
0.563860
0.657439
0.605583
0.743866
0.674725
0.777841
0.757575
0.743866
0.878572
0.727773
0.813603
0.794530
0.789762
0.985861
0.981688
0.898838
0.852942
0.896454
0.892878
1.036525
1.038909
1.198649
1.137853
1.378655
1.315475
1.445413
1.480579
1.418591
1.636744
1.882911
2.256632
5.101562
35.022497
88.529587
221.969485
387.426019
700.338483
954.603553
1015.780568
1015.780568
1015.780568
1015.780568
1015.780568
862.178802
530.721545
320.265889
140.969753
65.108538
19.200444
9.744763
8.561611
9.206533
12.065768
16.636848
26.327968
37.953854
57.056546
70.919991
84.517002
92.403889
94.651580
89.482665
75.138807
63.214898
46.469569
34.717917
22.464991
16.555786
11.840463
10.282993
9.184480
9.064674
8.829832
9.015799
8.800626
8.938909
9.022951
8.765459
8.872747
8.804798
8.984804
8.986592
9.094477
##ZVALUE=330
0.647902
0.609756
0.672936
0.743866
0.631809
0.620484
0.620484
0.717640
0.700951
0.664592
0.669956
0.612736
0.670552
0.784993
0.633597
0.629425
0.731945
0.782609
0.755787
0.693798
0.764728
0.850558
0.907779
0.773668
0.942945
0.851750
0.903606
0.828505
0.942945
0.973940
1.013875
0.966787
1.040697
1.083612
0.986457
0.953674
1.122952
1.032948
1.251698
1.194477
1.296997
1.464486
1.717806
1.670718
1.889467
2.151728
3.156662
11.376739
57.260990
136.902928
321.177840
521.143675
853.965878
1015.831828
1015.831828
1015.831828
1015.831828
1015.831828
966.463685
714.963675
393.441916
222.167969
89.038610
37.284493
11.534691
8.580685
8.150935
8.727908
12.044907
16.499758
26.488900
36.240816
52.393675
65.577626
80.816746
87.625980
87.788701
83.061457
71.051717
59.722662
42.980909
33.365488
23.149848
16.880631
12.209415
10.521412
9.305477
8.908510
8.870959
8.527637
8.805990
8.549690
8.608699
8.604527
8.406639
8.618832
##ZVALUE=335
0.661612
0.673532
0.695586
0.561476
0.783801
0.561476
0.702739
0.763535
0.761747
0.678897
0.609756
0.639558
0.577569
0.601411
0.635982
0.642538
0.793934
0.842810
0.744462
0.784993
0.799894
0.725985
0.682473
0.824928
0.934601
0.878572
0.959635
0.843406
0.816584
0.720620
0.826716
1.129508
0.959635
1.014471
1.077652
0.866652
0.984669
0.943542
1.049638
1.079440
1.289845
1.308918
1.306534
1.459718
1.600981
1.609921
1.853704
2.039671
2.218485
6.753802
26.397705
104.259849
208.473802
440.371037
686.084032
1013.945937
1015.830636
1015.830636
1015.830636
1015.830636
1015.830636
812.089443
552.464724
287.247896
150.895715
52.792430
19.323826
8.527637
7.790923
7.787943
8.737445
11.479855
15.823841
24.494529
33.828616
50.307512
61.633587
74.435472
81.023574
82.624555
78.233480
67.274570
56.471825
42.655468
33.610463
22.735000
17.724633
12.790561
10.636449
9.228587
8.591413
8.407831
8.037686
8.283854
8.523464
8.130670
##ZVALUE=340
0.654459
0.671744
0.619888
0.671744
0.618696
0.729561
0.677705
0.530481
0.570416
0.666976
0.665784
0.807643
0.735521
0.852942
0.713468
0.657439
0.804663
0.708699
0.749826
0.655651
0.603795
0.782609
0.757575
0.745654
0.700951
0.852942
0.816584
0.753999
0.838637
0.703931
0.699759
0.842810
0.924468
0.749826
0.841618
0.947714
0.877976
0.913739
0.928640
1.066923
1.133680
1.285672
1.258850
1.344681
1.289845
1.268983
1.287460
1.597404
1.639724
2.002716
2.196431
3.852844
12.952685
67.021847
159.150958
370.883942
604.727864
960.418582
1015.830636
1015.830636
1015.830636
1015.830636
1015.830636
906.137824
638.963580
335.279703
187.400579
75.575709
28.660893
9.742975
7.864833
7.979870
7.900000
9.210706
10.738969
16.023517
22.506714
34.037828
45.067668
60.027838
69.514513
76.752901
77.011585
73.131919
65.810680
53.836703
43.048859
30.631423
23.803711
16.233921
12.413859
9.901524
8.830428
8.152723
8.260608
7.980466
##ZVALUE=345
0.751615
0.845790
0.778437
0.678897
0.775456
0.863671
0.768900
0.834465
0.986457
0.914931
0.884533
0.869632
0.981688
0.753999
0.900626
1.066923
1.081824
0.797510
0.914931
0.830889
0.774860
0.990629
0.887513
0.932813
0.865459
0.963807
0.765920
0.920892
0.938773
1.013875
0.917912
1.057982
1.040697
0.982881
0.967979
1.171827
1.184940
1.127720
1.202822
1.176596
1.058578
1.139641
1.224875
1.184940
1.340508
1.328588
1.464486
1.527667
1.529455
1.674891
1.904964
2.059937
2.256632
2.569556
5.756617
35.644770
98.566413
258.083940
448.751450
767.952800
1000.852585
1016.038656
1016.038656
1016.038656
1016.038656
988.743901
746.482611
436.947942
243.888497
95.189810
42.499900
14.188886
8.809566
8.075833
7.948875
7.849932
8.270741
10.567904
14.127493
21.943450
30.430555
43.833852
52.964687
62.868595
69.062710
72.789788
69.795847
61.273575
53.651929
41.860938
32.603741
22.119880
16.869903
11.915565
10.092854
8.734465
##ZVALUE=350
0.801682
0.700951
0.600815
0.751615
0.654459
0.640750
0.748634
0.722408
0.622869
0.648499
0.615716
0.675917
0.698566
0.812411
0.815988
0.700951
0.638962
0.638962
0.699759
0.885725
0.648499
0.630617
0.510812
0.702739
0.666976
0.683665
0.745654
0.755787
0.814795
0.787973
0.964999
0.729561
0.722408
0.903606
0.718832
1.022816
0.839829
0.974536
0.921488
0.957847
1.006722
1.021624
1.038909
1.014471
1.020432
1.148582
1.176000
1.273751
1.268983
1.256466
1.450777
1.407862
1.695752
1.866817
1.935959
2.206564
3.224611
18.174648
62.336922
210.802555
395.979881
755.431652
1003.535986
1015.881896
1015.881896
1015.881896
1015.881896
1015.881896
826.398730
481.807590
290.994644
131.559968
60.307980
17.816424
9.254813
7.459521
7.099509
6.985664
7.056594
7.656813
9.535551
14.228821
18.558502
27.388930
35.905838
47.617555
55.522919
63.089728
65.659881
63.783526
58.318973
48.450828
40.146708
29.417872
22.435784
16.196966
##ZVALUE=355
0.435710
0.599623
0.564456
0.422597
0.597835
0.563860
0.729561
0.763535
0.534654
0.620484
0.784993
0.666976
0.415444
0.566840
0.744462
0.640750
0.535846
0.656843
0.696778
0.673532
0.886917
0.705719
0.835657
0.678897
0.617504
0.542998
0.886917
0.676513
0.685453
0.728965
0.806451
0.814795
0.755787
0.811815
0.833869
0.845790
0.945926
0.954866
0.846982
0.819564
0.930429
0.951886
0.904799
0.884533
0.970960
0.991821
0.997782
1.132488
1.107454
1.280904
1.361966
1.223683
1.425743
1.454949
1.635551
1.707673
1.825690
2.069473
2.398491
7.924438
30.443668
121.760964
253.575444
518.741608
793.589950
1015.831828
1015.831828
1015.831828
1015.831828
1015.831828
939.252973
609.661937
378.044844
165.141821
75.779557
23.879409
10.282993
7.279515
6.931424
6.629825
6.462932
6.507635
7.057786
8.793473
11.148453
16.818643
22.680759
32.648444
39.822459
49.937963
55.784583
59.491992
58.842897
53.043962
46.763420
37.122965
##ZVALUE=360
0.600815
0.522733
0.491738
0.591874
0.546575
0.591874
0.679493
0.569820
0.590682
0.580549
0.740886
0.603795
0.828505
0.602603
0.741482
0.581741
0.584722
0.606775
0.561476
0.636578
0.811815
0.746846
0.725985
0.905991
0.810623
0.791550
0.717640
0.783801
0.643730
0.851750
0.731945
0.861883
0.816584
0.730753
0.882745
0.694990
0.888705
0.835657
0.830889
0.873804
0.883937
0.914931
0.989437
1.048446
1.080632
1.182556
1.160502
1.069903
1.167655
1.109838
1.155734
1.229644
1.282692
1.335740
1.445413
1.605749
1.683831
1.791716
1.863837
2.220869
2.408624
4.006624
13.760924
61.901808
154.129863
377.845764
633.865595
993.580818
1015.830636
1015.830636
1015.830636
1015.830636
1015.830636
719.972849
470.991731
227.490664
114.729404
39.850473
16.069412
7.406473
6.635785
6.141663
6.372929
6.087422
6.354451
6.626844
7.386804
9.515882
12.879968
19.158721
26.166439
35.900474
42.692423
49.819946
53.305626
53.383708
##ZVALUE=365
0.619888
0.492930
0.704527
0.465512
0.739694
0.591874
0.639558
0.731945
0.585914
0.800490
0.729561
0.579953
0.491738
0.636578
0.756979
0.689626
0.530481
0.708699
0.669956
0.687838
0.634789
0.643730
0.728965
0.716448
0.742674
0.647902
0.769496
0.730753
0.703931
0.761747
0.641942
0.787973
0.797510
0.818968
0.819564
0.730753
0.803471
0.846982
0.769496
0.732541
1.025796
0.775456
0.783801
1.029968
0.849962
0.858903
0.886917
0.885725
0.909567
0.818968
1.095533
1.095533
1.085997
1.165867
1.207590
1.284480
1.418591
1.535416
1.489520
1.586676
1.694560
1.947880
2.263784
2.395511
6.804466
25.667548
98.735690
216.785669
493.324995
758.822560
1015.830636
1015.830636
1015.830636
1015.830636
1015.830636
897.432566
574.706793
348.445773
148.448944
65.949559
18.776655
8.798838
6.261468
5.950928
5.989671
5.680919
5.427599
5.636811
5.619526
6.526709
8.135438
11.000633
16.164780
21.744967
30.255914
36.683679
##ZVALUE=370
0.452995
0.448823
0.408888
0.568628
0.644922
0.692606
0.473857
0.492930
0.496507
0.451803
0.552535
0.557899
0.554919
0.562668
0.643730
0.708699
0.727773
0.762939
0.653863
0.622869
0.577569
0.682473
0.748634
0.726581
0.527501
0.632405
0.658631
0.731945
0.777841
0.737906
0.674725
0.601411
0.699759
0.622869
0.664592
0.640750
0.722408
0.761747
0.687838
0.708699
0.777841
0.697970
0.786781
0.774860
0.726581
0.862479
0.932813
0.854731
0.837445
0.891685
0.890493
0.863671
1.065731
1.112819
1.004934
1.121759
1.218915
1.027584
1.204610
1.249909
1.235604
1.453757
1.632571
1.658797
1.940727
2.285838
3.196597
17.049909
57.449937
183.866620
338.376760
624.708533
891.447663
1015.830636
1015.830636
1015.830636
1015.830636
930.056572
672.295690
377.391577
214.431882
84.600449
36.623478
11.593699
6.557703
5.657673
5.388856
5.115867
4.918575
4.814863
4.881620
5.128980
5.449653
7.124543
9.321570
13.573766
##ZVALUE=375
0.515580
0.547767
0.560880
0.475645
0.588894
0.398755
0.412464
0.473857
0.438690
0.600815
0.581741
0.630617
0.597835
0.612736
0.704527
0.631809
0.554919
0.622869
0.566840
0.677705
0.505447
0.557899
0.535846
0.629425
0.602603
0.549555
0.585914
0.687838
0.537634
0.614524
0.644922
0.598431
0.652671
0.705719
0.788569
0.723600
0.680685
0.746846
0.780821
0.572801
0.657439
0.639558
0.629425
0.702739
0.649691
0.729561
0.797510
0.750422
0.817776
0.732541
0.808835
0.756979
0.893474
0.808835
0.790954
0.753999
0.922680
0.972748
0.956655
1.021624
1.089573
1.045465
1.226664
1.254678
1.410842
1.438856
1.722574
1.909733
2.298951
8.073449
30.667782
113.838911
239.381790
504.235625
745.744705
1015.667915
1015.830636
1015.830636
1015.830636
1015.830636
840.277672
512.086749
327.231884
162.409544
81.668496
24.716854
9.364486
5.384684
5.012751
4.988909
4.543662
4.666448
4.598498
4.352927
4.632473
4.891753
##ZVALUE=380
0.411868
0.421405
0.488758
0.516772
0.536442
0.640750
0.568628
0.545979
0.518560
0.581741
0.548959
0.544786
0.522733
0.395775
0.661612
0.419617
0.435710
0.509620
0.506639
0.647902
0.604987
0.489950
0.753999
0.583529
0.623465
0.575781
0.572801
0.564456
0.538826
0.666976
0.575781
0.626445
0.585914
0.550747
0.554919
0.565648
0.633597
0.506639
0.635982
0.635982
0.740886
0.602603
0.572801
0.637770
0.742674
0.756979
0.664592
0.612736
0.621676
0.756979
0.797510
0.729561
0.664592
0.735521
0.758767
0.775456
0.772476
0.839829
0.935793
1.000762
0.833869
0.868440
0.902414
1.049638
1.145601
1.207590
1.385808
1.537800
1.716614
1.948476
2.236962
4.008412
16.000867
76.118708
172.289610
391.674638
619.305968
948.670506
1015.830636
1015.830636
1015.830636
1015.830636
899.817944
617.959499
407.044888
197.035670
100.382566
33.669472
13.075471
5.925894
4.866719
4.602671
4.349947
4.253983
4.184842
4.237890
##ZVALUE=385
0.463724
0.406504
0.528693
0.575781
0.521541
0.564456
0.580549
0.484586
0.506639
0.598431
0.475645
0.311732
0.614524
0.274777
0.409484
0.439882
0.435710
0.464916
0.409484
0.395775
0.565648
0.475645
0.629425
0.540614
0.358820
0.517964
0.520945
0.467896
0.525713
0.506639
0.566840
0.519753
0.636578
0.597835
0.681877
0.744462
0.485778
0.669956
0.394583
0.671744
0.578761
0.605583
0.642538
0.454783
0.685453
0.522733
0.644922
0.739694
0.617504
0.743866
0.834465
0.793934
0.593662
0.807643
0.747442
0.658631
0.902414
0.766516
0.932813
0.688434
0.744462
0.993609
0.946522
1.059771
1.174808
1.071692
1.172423
1.284480
1.419783
1.640916
1.671910
2.011657
2.006888
2.681613
7.440448
43.407679
112.405419
277.468562
476.695895
821.855664
1015.836000
1015.836000
1015.836000
1015.836000
1015.836000
809.357762
563.997030
300.504565
168.087482
67.275763
26.579499
7.450581
4.763603
4.400611
4.095435
4.374981
##ZVALUE=390
0.427961
0.390410
0.499487
0.438690
0.250936
0.409484
0.465512
0.568628
0.435710
0.578761
0.442863
0.411868
0.539422
0.369549
0.536442
0.421405
0.423789
0.469685
0.548959
0.513792
0.473857
0.513792
0.413656
0.401735
0.660419
0.752807
0.472665
0.536442
0.586510
0.473857
0.588894
0.730753
0.690818
0.640750
0.629425
0.688434
0.633597
0.654459
0.564456
0.527501
0.575781
0.671744
0.670552
0.583529
0.690818
0.619888
0.550747
0.660419
0.696778
0.600815
0.688434
0.626445
0.687838
0.754595
0.859499
0.737906
0.654459
0.852942
0.697970
0.909567
0.863671
0.949502
0.871420
0.946522
0.929832
1.135468
0.939965
1.162887
1.322627
1.438856
1.601577
1.669526
1.851916
1.835823
2.161860
1.997948
3.753901
21.927953
69.403648
214.574933
410.087705
770.633817
1008.595824
1015.831828
1015.831828
1015.831828
1015.831828
978.868604
735.134482
442.046523
253.042579
100.458860
43.918490
11.586547
5.581975
4.248619
##ZVALUE=395
0.491738
0.413656
0.507832
0.485778
0.538826
0.559688
0.581741
0.512600
0.455976
0.541806
0.486970
0.395775
0.533462
0.470877
0.384450
0.544786
0.468493
0.580549
0.612736
0.557899
0.520945
0.431538
0.371933
0.483990
0.554919
0.478625
0.316501
0.468493
0.452995
0.507832
0.709891
0.596642
0.649691
0.422597
0.448823
0.530481
0.566840
0.617504
0.611544
0.608563
0.703931
0.625849
0.696778
0.619888
0.575781
0.680685
0.639558
0.462532
0.718832
0.601411
0.662804
0.829697
0.908971
0.900626
0.906587
0.817776
0.737906
0.726581
0.801682
0.959635
0.650883
0.747442
0.957847
0.979900
0.981688
1.137853
0.960827
1.200438
1.410842
1.357794
1.370907
1.579523
1.669526
1.678467
1.575947
1.807809
1.668930
1.902580
2.651811
13.214946
48.552752
166.399479
310.796499
575.236678
836.340785
1015.830636
1015.830636
1015.830636
1015.830636
1015.830636
902.211666
543.443561
328.726768
139.362812
63.934922
19.962788
##ZVALUE=400
0.507832
0.414848
0.451803
0.692606
0.474453
0.540614
0.445843
0.392795
0.476837
0.394583
0.395775
0.440478
0.404716
0.442863
0.426769
0.417829
0.416636
0.536442
0.530481
0.431538
0.337958
0.648499
0.501871
0.371933
0.437498
0.606775
0.479817
0.466704
0.514984
0.658631
0.593662
0.427961
0.763535
0.559688
0.606775
0.676513
0.626445
0.553727
0.537634
0.697970
0.578761
0.549555
0.705719
0.564456
0.642538
0.648499
0.485778
0.630617
0.734925
0.662804
0.645518
0.643730
0.715852
0.622869
0.760555
0.717640
0.797510
0.840425
0.827909
0.784993
0.814795
0.865459
0.900626
0.817776
0.946522
0.906587
0.895858
1.137853
1.107454
1.402497
1.328588
1.389980
1.465678
1.570582
1.418591
1.527667
1.556873
1.561642
1.648664
1.962781
2.159476
7.182956
26.834607
100.222826
213.840604
465.878844
721.022487
1015.831828
1015.831828
1015.831828
1015.831828
1015.831828
1004.694700
663.948655
432.780981
208.535790
##END
