##TITLE=FQP00602
##FORMAT=SPECTACLE-ASCII V-1.2
##DATA TYPE=ULTRAVIOLET SPECTRUM
##SECOND TYPE=ULTRAVIOLET SPECTRUM
##DATE=03/29/18
##TIME=14:22:09
##SPECTROMETER/DATA SYSTEM=SPECTACLE
##XUNITS=NM EM
##YUNITS=ENERGY
##YFACTOR=1
##FIRSTX=220
##LASTX=410
##NPOINTS=96
##3DDATA=Equidistant
##ZUNITS=NM EX
##FIRSTZ=210
##LASTZ=400
##ZPOINTS=39
##XYDATA=(Y..Y)
##ZVALUE=210
3.124475
3.022552
2.363920
3.488660
2.972484
3.089905
3.569722
3.625751
3.116727
3.188848
3.040433
2.803802
3.747940
3.467798
3.334880
3.321767
3.391504
4.066825
3.845692
4.169941
4.682541
4.434586
4.431605
4.490614
3.941655
4.441738
5.686879
5.604625
7.464886
6.631613
6.944537
7.790923
6.247759
7.234812
7.038713
7.041693
7.831454
7.694960
7.317662
7.561445
8.095503
7.376671
7.221699
8.120537
7.155538
6.856918
7.235408
7.410645
7.451773
8.344650
6.910563
7.016659
7.342696
6.735921
6.704926
6.895661
8.089542
6.571412
6.568432
7.243752
6.844997
7.445812
6.851554
7.228851
7.435679
8.214712
6.952882
9.238720
9.711981
10.461807
13.498664
13.788939
16.319752
18.379688
19.474626
19.974709
20.286441
18.692613
18.275976
17.058849
15.335679
15.273690
12.082458
10.360479
10.498762
8.296967
7.708669
7.493496
7.170439
7.178783
7.229447
6.344914
6.763935
6.513596
7.069707
7.007718
##ZVALUE=215
11.356473
8.465648
7.931590
6.735921
5.809665
5.580783
6.003976
5.985498
4.796982
6.436706
5.762577
5.244613
4.259944
3.987551
4.275441
3.424883
3.489852
4.117489
3.970861
4.215837
4.443526
4.481673
4.579425
4.939437
5.364418
5.690455
6.323457
7.113814
6.982684
8.484721
8.344650
9.253621
9.611845
9.533763
10.826588
10.334849
11.406541
10.354519
10.875463
9.514689
10.411739
10.194778
9.215474
9.906888
9.876490
8.963943
9.120703
9.865761
8.378625
8.342862
8.461475
8.847713
8.356571
7.683635
7.490516
8.233786
8.051991
8.300543
6.952882
8.351803
8.168817
8.031726
8.072853
6.927848
7.323623
7.869601
7.703900
8.179545
9.406805
11.806488
12.121797
13.427734
13.974905
16.598701
19.743443
18.487573
19.389987
17.886758
17.586946
17.126799
14.574528
13.542771
10.358691
11.146665
9.121895
8.117557
7.275939
6.534457
6.891489
7.615685
6.820560
7.674694
6.865859
7.167459
6.613731
7.579923
##ZVALUE=220
26.550889
26.776791
28.860569
26.638508
23.960471
20.087957
14.181733
11.396408
10.618567
10.660887
11.594892
12.686849
13.029575
11.744499
9.472966
7.192492
6.701946
5.525947
5.110502
4.928708
4.665852
5.043745
4.516840
5.398989
6.426573
6.320477
7.685423
9.239912
10.080934
10.640621
11.525750
13.746619
14.126897
14.930964
15.407801
15.395880
15.258789
16.008615
14.356971
14.470816
14.415979
13.582706
13.266802
14.069676
12.052655
11.997819
11.505485
12.236834
11.167526
12.500882
10.295510
10.349751
11.566877
9.813905
10.646582
9.119511
10.080934
8.507967
9.159446
9.609461
9.312630
7.981658
9.470582
9.085536
9.894967
10.542870
8.946657
10.891557
11.475682
12.811422
13.111830
15.688539
17.097592
18.711686
19.486547
19.358993
18.105507
19.555688
18.584728
17.705560
16.205907
15.106797
14.703870
11.151433
12.404919
11.030436
9.176731
9.475946
9.449720
8.726716
8.002520
8.820891
8.366704
9.593964
7.713437
8.531809
##ZVALUE=225
49.826503
53.275824
67.513585
78.681707
88.842511
81.817508
72.838664
54.527521
41.615963
31.169653
24.097562
20.868778
23.065805
26.986599
25.054812
22.521615
20.105839
16.065836
12.135506
8.554459
7.835627
5.613565
5.990863
5.676746
5.857944
7.953644
8.193851
8.978844
11.425614
12.294650
14.796853
14.339685
15.794635
16.858578
16.940832
17.981529
17.612576
19.895434
19.816756
17.667413
17.805696
17.390847
16.556978
15.624762
15.715957
14.583468
16.007423
14.913678
13.305545
13.452768
13.978481
11.493564
13.078451
11.360645
13.064742
10.764599
11.595488
11.553764
11.744499
12.126565
10.992885
11.596680
11.449456
11.695623
11.963844
11.093616
11.664629
14.060736
12.956858
13.373494
16.073585
17.782450
18.103719
18.256903
21.624565
20.199418
20.351410
18.676519
18.853545
17.412901
17.324686
14.523864
15.643835
14.775991
13.088584
13.051629
13.745427
11.948943
11.482835
12.468696
12.313724
12.186766
11.977553
12.107491
11.067986
11.543632
##ZVALUE=230
46.699643
53.901672
84.550977
133.146644
169.812441
205.983520
222.085714
207.997561
184.590816
154.909492
101.733804
70.664883
50.114989
43.452978
44.788718
50.113797
51.150918
48.013926
47.029853
35.530925
28.313994
18.397570
14.187694
9.142756
7.496476
8.098483
8.446574
9.197593
11.178851
12.112856
11.851788
13.391972
15.490651
15.873909
14.941692
16.103983
15.930533
17.970800
16.411543
17.638803
17.812848
16.670823
17.896891
15.371442
16.545653
14.493465
14.549494
14.316440
14.203787
14.014840
13.601780
14.339685
13.186932
14.085770
11.575818
13.960600
13.778806
13.243556
14.498830
14.078617
13.193488
14.093518
13.411641
14.591813
12.966990
14.400482
14.167428
14.386773
15.636683
17.439723
18.453598
19.947886
19.108653
21.575689
23.035407
24.915934
25.296807
24.476647
23.650527
22.989511
21.931529
20.846725
19.398928
19.079447
19.000769
17.823577
18.010736
17.501712
19.417405
17.941594
17.773509
17.154813
17.390847
16.033649
17.245412
16.982555
##ZVALUE=235
16.517639
18.355846
45.337677
83.606839
157.607794
224.063993
315.575600
377.188921
422.683954
410.378575
344.879627
286.748409
214.855671
134.368539
96.363425
76.949596
71.677566
75.718760
78.879595
81.061721
76.917410
67.541599
50.870776
36.671758
25.597811
17.415881
12.838840
10.607839
10.006428
11.527538
10.206699
11.262894
12.188554
12.122989
13.294816
13.564825
12.869835
13.730526
13.375878
13.475418
15.535951
14.832616
13.209581
14.299750
14.655590
13.471842
14.304519
12.915730
14.059544
14.241934
13.641715
13.590455
13.281703
12.802482
15.041828
14.347434
13.736486
14.144778
14.297962
14.837980
13.357997
15.068650
15.125871
15.336871
14.709830
17.617941
16.626716
17.768741
19.883513
22.039413
22.118688
21.581650
24.415851
26.998520
26.615858
28.829575
27.755499
27.329922
27.790666
27.657747
25.849938
24.705529
27.402639
25.680661
25.634766
26.116967
24.736524
24.297833
23.652911
23.471713
26.287436
24.738908
24.435520
24.693608
24.962425
24.456978
##ZVALUE=240
2.955794
2.919436
6.713867
25.277734
57.237744
128.776431
215.750933
359.044671
469.993949
558.061004
643.776655
623.396635
551.517606
461.010933
321.838856
224.662423
140.092969
110.393763
94.885826
99.875927
109.444857
113.348961
114.052892
95.737576
82.172751
63.024759
49.967766
33.011436
22.137761
15.218854
13.125539
10.504723
11.127591
11.102557
10.769963
11.807680
12.231469
11.737943
13.902783
12.611747
12.965798
13.543963
13.656616
13.964772
13.866425
14.393926
14.176965
12.651682
13.585687
12.708902
14.903545
13.567805
13.280511
12.961626
13.480783
13.680458
12.616515
14.977455
14.836788
15.878677
15.709996
16.226768
17.015934
16.372800
17.378926
17.610788
18.129945
21.351576
20.202994
23.359656
24.398565
25.362968
27.481914
31.232834
30.715466
29.412508
33.272505
31.640530
30.218959
32.065511
29.539466
32.315850
31.199455
30.997992
31.163692
31.501651
30.891895
30.840635
29.446483
31.706691
30.012727
28.935671
30.631423
29.110909
30.280948
29.521585
##ZVALUE=245
2.167821
2.033710
2.242923
2.778769
5.733967
15.356541
48.901439
105.106831
237.869620
361.749530
555.553436
679.200888
750.783682
773.319006
727.812648
589.469671
463.875532
307.886600
211.518407
130.695701
101.099610
102.105737
112.274885
124.918818
130.874515
121.538639
109.836459
96.960664
73.411465
53.867698
37.370920
26.648641
19.801855
13.319850
13.241768
12.382865
13.719797
13.255477
13.901591
13.487935
14.437437
12.890697
14.553666
15.275478
13.573766
13.904572
14.644861
14.585853
13.559461
13.816953
13.426542
13.442636
13.536811
12.577772
12.846589
13.192892
13.340712
12.771487
13.207793
14.110804
14.330745
14.500618
14.829636
15.073419
15.385747
15.674829
16.952753
18.400550
18.146634
20.723939
22.544861
24.715662
26.178956
27.322769
27.735829
28.935671
29.001832
29.314756
29.608607
29.918551
28.989911
29.506683
29.291511
27.058721
29.558539
29.823780
31.092763
30.242801
30.135512
30.099750
30.680895
32.353997
33.248663
30.438900
28.746724
31.295419
##ZVALUE=250
1.875758
1.865625
1.943707
2.454519
2.186894
2.398491
2.955794
12.495518
33.591986
72.035789
187.119842
326.050520
534.284711
673.893690
824.787617
887.618661
860.687494
763.948560
589.841008
430.473685
294.818878
162.294507
117.227435
97.183585
102.258921
122.436881
132.149458
141.618848
138.117671
120.832920
105.714798
80.825686
63.068867
42.393804
29.885769
21.404624
18.828511
16.680956
15.572906
17.229915
15.923977
16.315579
15.447736
15.442967
17.847419
15.226603
15.690923
14.103651
15.459657
14.521480
14.446974
13.058782
13.906956
13.746619
13.085604
13.073683
13.660789
13.433695
13.284683
13.473630
12.687445
13.532639
14.104843
14.547706
14.992952
15.563965
16.370416
15.394688
17.760992
18.522739
21.332502
20.765662
22.578835
23.728609
23.727417
25.213957
25.544763
26.559830
25.908947
27.118921
27.884841
27.192831
26.922822
27.990937
27.616620
28.408766
28.753877
28.095841
28.864741
27.255416
27.971864
29.994845
29.385686
28.653741
27.453899
29.198527
##ZVALUE=255
1.979470
1.613498
1.876950
2.101660
2.472997
1.913905
2.082586
2.277493
2.635717
5.444884
25.130510
60.016513
127.072930
269.205570
425.216556
656.683445
796.753764
935.951471
970.830917
898.101926
758.211017
588.358641
366.285443
232.077837
130.799413
98.100901
91.739893
106.581450
130.984783
143.419504
153.768659
150.834918
139.629841
113.476515
93.494654
65.596700
50.910711
34.147501
26.735663
21.969676
21.009445
20.423532
19.403696
20.490885
20.655990
18.397570
19.674897
17.586946
17.120838
17.445683
17.188787
16.640425
16.377568
14.806986
14.086962
14.759898
14.043450
14.195442
13.455749
14.029741
14.420748
13.190508
13.986826
13.088584
14.075637
14.462471
14.058948
15.923977
16.289949
17.026663
17.161965
19.164681
20.211935
22.549629
22.662878
23.096800
22.967458
23.521781
23.386478
26.586652
24.248958
24.455786
24.491549
25.249720
25.365949
26.153922
25.790930
26.046634
27.718544
26.687980
28.004646
26.540756
27.790666
28.224587
28.828979
26.903749
##ZVALUE=260
1.549721
1.343489
1.753569
1.751781
1.804829
1.783967
1.995564
1.951456
2.138615
2.106428
2.252460
3.075600
9.419918
37.433505
83.679557
207.368731
341.886878
562.716722
740.646720
945.448875
1015.900970
1015.900970
903.712511
726.926923
482.218862
333.448648
189.011693
123.741627
85.408688
91.397762
111.528635
140.672922
155.868530
166.669488
163.051486
149.140954
126.468539
99.435449
78.264475
54.736733
43.143630
32.082796
27.756691
24.487972
22.425652
21.924973
21.464825
20.935535
20.018816
19.782782
18.588901
18.470883
16.423464
16.557574
16.618967
14.934540
15.343428
13.864636
14.303923
14.145970
13.801455
14.039874
13.347864
14.002919
13.608932
14.232993
14.758706
14.244914
15.029907
16.933680
16.234517
17.801523
18.243790
19.897819
20.890832
20.458698
21.201968
21.700859
21.815896
21.908879
21.520853
22.344589
22.446513
23.834705
24.423599
23.620725
25.582910
24.771690
25.224686
25.227666
26.237965
26.175976
26.006699
25.267601
25.925636
25.051832
##ZVALUE=265
1.428723
1.407862
1.271963
1.417994
1.400709
1.477599
1.678467
1.819730
1.768470
1.865625
1.958609
1.866817
2.156496
2.611876
6.365776
21.493435
73.599815
148.492455
256.105661
489.455462
706.095695
959.985852
1015.861630
1015.861630
1007.557511
821.534991
643.584728
409.930944
268.697739
148.551464
100.925565
86.161494
98.159909
129.470825
150.840878
171.726942
178.543925
167.561769
156.948566
128.993988
106.442571
77.781677
59.902668
43.343902
34.571886
27.004480
24.434924
24.470687
22.416711
21.035671
20.306706
19.468665
18.765926
18.753409
16.961694
16.038418
14.975667
14.962554
14.993548
13.691783
13.998747
13.090968
14.273524
13.183951
13.562441
13.348460
14.040470
14.582872
14.384985
15.944839
16.072989
16.316772
18.076897
18.384457
18.292665
19.167662
19.416809
20.371675
20.403862
19.640923
21.053553
20.987988
21.993518
21.763444
22.765994
23.303628
22.989511
23.594499
22.944808
23.506880
23.458600
25.006533
24.294853
24.076700
25.120974
24.724603
##ZVALUE=270
1.377463
1.391768
1.319647
1.131892
1.390576
1.210570
1.471639
1.617670
1.672506
1.593828
1.548529
1.614690
1.884699
1.889467
1.910925
2.286434
3.253818
12.115836
36.438704
113.058686
220.019817
380.100012
663.776994
879.036784
1015.862823
1015.862823
1015.862823
1010.089517
803.290009
603.065491
412.125587
226.740837
138.516426
83.824992
82.682967
105.608702
130.285621
155.325532
172.479749
179.059505
171.528459
157.113671
134.316683
105.490685
81.296563
54.369569
42.997599
31.322837
25.552511
22.538900
21.304488
20.429492
18.907785
17.215610
16.558766
16.948581
15.844703
14.989972
15.227795
14.481544
13.509989
13.492703
14.190674
13.436675
13.449788
13.552904
13.388991
14.350414
14.186502
15.366673
15.846491
16.377568
17.554760
17.369986
17.960668
18.809438
19.087791
18.557906
19.648671
20.384789
19.279718
20.421743
21.217465
20.562410
20.731688
21.426678
22.130609
22.135973
22.819638
22.133589
22.786856
22.831559
22.415519
22.202730
22.702813
23.253560
##ZVALUE=275
1.374483
1.136661
1.225471
1.296997
1.162887
1.272559
1.260638
1.338720
1.430511
1.316667
1.568794
1.620650
1.478791
1.745820
1.704693
1.894832
1.920462
2.017617
2.294779
5.842447
21.038651
60.715675
171.124935
316.295624
583.245754
786.327720
1006.006002
1015.861630
1015.861630
1015.861630
1001.187563
760.779977
555.012822
314.713717
193.231702
97.528696
73.626637
78.255534
97.675920
126.220584
146.512985
165.279508
170.896649
163.721442
149.686933
120.874643
101.122856
72.818995
55.757761
37.577748
28.026700
20.123720
18.655658
17.244816
15.832782
14.969707
14.652610
14.024973
13.998747
13.287663
13.916492
13.448000
12.997985
12.854934
13.770461
13.141632
13.341904
13.621449
14.371872
14.959574
15.215874
15.395880
16.070604
17.309785
18.495917
18.598437
18.188953
19.161701
20.021796
19.198656
18.920898
19.603968
19.816756
20.305514
21.414757
21.530986
21.584630
21.723509
21.113753
21.155477
21.659732
21.640658
21.517873
22.356510
21.561980
22.069812
##ZVALUE=280
1.187921
1.359582
1.168847
1.206994
1.181960
1.303554
1.340508
1.160502
1.362562
1.323819
1.180768
1.415610
1.433492
1.187921
1.244545
1.441836
1.752973
1.658797
2.011657
2.034903
2.393723
2.973676
13.490915
44.929981
134.602785
249.142647
460.551977
664.517879
941.322446
1015.862823
1015.862823
1015.862823
1015.862823
880.413651
663.415790
392.188430
241.269469
113.072991
66.518784
53.600669
65.529943
93.187690
115.681887
140.385628
158.750415
162.170529
154.748559
138.611794
118.855834
89.147687
67.849755
46.439767
33.426881
22.294521
17.714500
14.217496
13.234615
12.828708
12.798905
12.919903
12.719631
12.813807
12.810826
12.714863
13.252497
13.421774
13.743639
13.853908
13.765693
14.931560
15.810728
15.578866
16.611814
16.854405
17.314553
18.349886
17.898679
19.001961
18.916726
19.547939
19.501448
19.203424
20.147562
19.973516
20.073652
20.694733
20.218492
20.771623
21.045804
20.588636
20.930767
20.270944
20.986795
21.650791
21.965504
21.159649
##ZVALUE=285
1.053810
1.108646
0.997782
1.097918
1.143813
0.974536
1.072884
1.095533
1.344681
1.192689
1.277924
1.253486
1.176596
1.345873
1.359582
1.253486
1.499653
1.503825
1.541972
1.783967
1.815557
1.968741
2.257824
2.636909
6.915927
22.506714
76.445937
155.702829
328.507423
517.017841
729.010701
1000.214815
1015.861630
1015.861630
1015.861630
1002.185941
796.985030
504.196882
314.765573
151.144862
78.876615
40.575862
40.652752
57.522655
77.758431
107.631683
127.956867
145.016909
151.245594
148.165822
136.320591
110.920668
92.155933
63.780546
46.145916
28.716922
20.262599
14.453530
12.645721
11.391640
11.592507
11.261702
11.814833
12.459755
12.596846
12.855530
13.338923
13.771653
13.979673
15.138984
15.230775
16.447902
16.255975
17.229915
17.863512
18.489957
18.279552
19.046664
18.684864
19.438863
19.524693
19.204617
19.691586
20.042658
20.689964
21.152496
21.071434
21.340847
20.773411
20.792484
20.668507
20.628572
20.527840
20.474792
21.163821
20.344853
##ZVALUE=290
0.949502
0.948906
0.975728
1.176000
1.017451
0.894666
0.966787
1.020432
1.108646
1.029968
1.054406
1.054406
1.193881
1.085997
1.306534
1.370907
1.351833
1.386404
1.523495
1.516938
1.645684
1.666546
1.770854
1.766682
2.009869
2.169609
3.460646
9.624958
42.328835
100.410581
198.611617
407.484770
623.274446
939.502716
1015.858650
1015.858650
1015.858650
1015.858650
917.313695
625.340939
414.753556
207.182765
107.935667
44.048429
29.631853
37.825704
51.647425
74.267983
95.881820
120.195746
134.869814
146.271586
143.327713
127.518773
111.200809
83.522797
64.449906
41.777492
29.408932
19.511580
15.038848
12.731552
12.012720
11.692643
11.841655
12.414455
13.055801
13.547540
13.677478
15.048981
15.031695
16.189814
15.896559
17.022491
17.917752
18.118620
18.258691
18.711686
19.097924
19.136667
19.305944
19.827485
20.302534
19.940734
20.389557
20.444989
20.748973
20.684600
20.988584
20.953417
20.674467
20.143986
20.478964
19.969940
20.719767
20.348430
##ZVALUE=295
0.821948
0.924468
1.007915
0.933409
0.831485
1.148582
1.029968
1.021624
1.042485
1.093745
1.088977
1.098514
1.233816
1.042485
1.201630
1.176000
1.318455
1.238585
1.365542
1.262426
1.242757
1.607537
1.506805
1.603961
1.621842
1.847744
1.848936
2.205968
2.488494
4.436970
22.108555
61.704516
137.290955
318.925977
518.813729
817.189813
1008.718014
1015.861630
1015.861630
1015.861630
1000.424027
732.164979
506.196618
263.072848
146.068931
56.102872
28.423667
22.706985
30.477643
49.431920
66.719651
91.953874
109.685659
131.500959
138.705969
136.752725
125.049949
102.773905
84.051490
59.374571
44.499636
28.474927
21.715760
16.248822
13.652444
12.511611
13.130903
12.823939
14.206767
14.253855
15.608668
15.927553
16.869903
17.453432
17.837882
18.165708
18.834472
18.569827
19.744635
20.262599
20.238757
19.991994
20.587444
21.224618
21.256804
20.852685
21.204948
21.120906
21.083951
21.143556
20.332932
20.884871
20.133853
20.677447
21.063685
20.482540
##ZVALUE=300
0.917912
0.976920
0.982881
0.975728
0.945926
0.918508
0.898838
0.874996
1.075864
1.106858
1.048446
1.108646
0.999570
1.061559
0.979900
1.100898
1.032948
1.304746
1.205802
1.237988
1.082420
1.053810
1.436472
1.177788
1.487732
1.569986
1.467466
1.578927
1.823902
2.004504
2.207756
2.571940
9.835958
32.508969
106.513500
208.972692
425.661802
636.673570
933.994651
1015.861630
1015.861630
1015.861630
1015.861630
871.948004
576.115847
376.204848
189.128518
102.035403
38.894415
20.404458
19.717813
26.627779
43.107867
59.292912
84.590912
102.154613
123.694539
130.422711
130.173564
121.655464
102.601647
84.782839
60.690641
45.495629
31.236410
22.872686
17.573833
15.003681
14.642477
14.933944
15.594959
16.410947
16.786456
17.559528
18.114448
18.446445
18.991828
19.880533
19.710660
20.252466
20.955801
20.396709
21.540523
21.259785
20.757914
21.043420
21.297932
21.670461
20.995736
21.209717
21.280646
21.336675
20.957589
20.466447
20.778775
20.351410
##ZVALUE=305
0.875592
0.941753
0.913739
1.081824
0.826716
0.934601
0.978708
0.852942
0.976920
0.856519
0.937581
1.071692
0.889897
0.811815
1.042485
0.928640
1.125932
0.923872
0.983477
1.127720
1.209974
1.113415
1.220703
1.291633
1.457930
1.331568
1.454949
1.508594
1.677871
1.489520
1.787543
1.910925
2.145767
2.292991
3.760457
21.609664
59.288740
168.478489
301.393867
548.321605
768.250823
1009.424925
1015.861630
1015.861630
1015.861630
924.222469
716.174841
450.709462
280.011892
127.822757
62.199831
22.992492
14.408827
17.747879
25.634766
41.719675
58.531761
81.440806
98.990798
118.432641
123.601556
124.480724
116.935968
98.414421
81.536770
58.245659
44.837594
31.024814
23.123622
18.505454
16.599894
16.954541
17.226934
18.289685
18.568635
17.818809
18.978715
19.241571
19.583702
20.085573
20.719767
21.614432
22.011995
22.401810
21.781921
22.140741
22.077560
22.026896
22.065639
21.912456
22.221804
22.026896
21.220446
20.977855
20.959973
20.889640
##ZVALUE=310
0.938773
0.843406
0.904799
0.847578
0.770688
0.924468
0.858903
0.791550
0.741482
0.965595
0.867844
0.955462
0.928640
0.956655
1.024604
1.004934
0.885725
0.980496
0.993609
1.234412
1.119971
0.961423
1.017451
1.241565
1.119971
1.011491
1.234412
1.395941
1.377463
1.269579
1.532435
1.558661
1.696944
1.711845
1.780987
2.156496
2.298951
9.297729
30.099750
100.938678
199.603438
410.947800
618.892908
904.786587
1015.861630
1015.861630
1015.861630
1015.861630
882.270932
589.911938
389.810801
193.488002
101.989508
37.603974
17.055869
12.735724
15.151501
24.764538
34.691691
53.385496
71.261525
93.557835
107.201934
118.906498
119.904876
111.984611
99.895597
81.559420
63.396692
44.396520
34.776926
25.645494
21.265745
19.353628
18.779635
19.132495
19.668937
19.835830
19.934773
20.346642
21.372437
21.273494
22.357702
22.482872
23.072958
22.781491
22.727847
23.033619
23.064613
22.129416
22.849441
21.832585
22.531748
22.223592
22.391677
21.477938
##ZVALUE=315
0.828505
0.917912
0.725985
0.934601
0.931621
0.819564
0.787973
0.848770
0.938773
0.893474
0.859499
0.845790
0.919700
0.739694
0.675917
1.032948
1.028776
0.958443
0.972748
0.896454
0.937581
1.095533
0.989437
1.020432
1.252890
1.024604
1.011491
1.294613
1.049638
1.279712
1.195669
1.562834
1.468658
1.567602
1.453757
1.604557
1.818538
2.034903
1.918674
4.445910
15.269518
63.834786
139.505863
313.817859
507.927537
812.552571
999.909639
1015.861630
1015.861630
1015.861630
983.341932
708.056688
495.834947
263.410807
142.527819
53.409934
23.347735
11.139512
11.776686
16.235709
22.373796
35.166740
47.814846
68.487525
85.854530
104.415417
113.412738
114.227533
108.795762
94.082952
81.087947
61.382651
47.577620
34.004450
27.267933
22.017956
20.978451
21.092892
20.806789
20.538568
21.329522
21.995902
21.810532
22.914410
22.615790
22.618771
23.297668
23.029447
23.146868
22.770762
22.915602
22.690892
22.337437
22.677779
21.824837
22.175908
##ZVALUE=320
0.744462
0.707507
0.799894
0.845790
0.823736
0.778437
0.905991
0.786781
0.818968
0.915527
0.822544
0.942945
0.687838
0.958443
0.981688
0.913739
0.899434
1.002550
1.022816
0.839829
0.861883
0.868440
1.007915
0.839829
0.991821
1.217723
1.120567
0.988841
1.086593
1.296997
1.073480
1.141429
1.184940
1.287460
1.386404
1.499653
1.424551
1.678467
1.677871
1.884699
1.909733
2.569556
7.124543
35.813451
89.979768
235.387683
388.739705
648.695827
863.837600
1015.861630
1015.861630
1015.861630
1015.861630
829.854608
606.594682
336.885452
192.504525
82.354546
37.574768
13.979673
10.615587
12.012720
14.590621
21.842718
30.889511
47.900677
62.572956
82.700849
96.453428
109.287500
110.516548
104.623437
94.787478
75.479746
62.571764
45.981407
37.068725
28.488636
24.781823
22.490621
21.885633
21.309853
22.242665
22.970438
22.818446
22.892952
22.832751
22.740960
23.419857
22.954941
22.662878
22.505522
22.799969
23.124814
22.106767
22.517443
##ZVALUE=325
0.863671
0.791550
0.785589
0.791550
0.755787
0.607967
0.748634
0.659823
0.865459
0.891685
0.930429
0.811815
0.828505
0.958443
0.940561
0.860691
0.854731
0.629425
0.753999
0.878572
0.873804
0.729561
1.073480
1.067519
0.732541
0.821948
1.024604
0.894666
0.914931
0.885725
1.112819
1.098514
1.091957
1.083612
1.226664
1.269579
1.292825
1.195669
1.366735
1.517534
1.677871
1.828671
1.967549
2.137423
3.839731
23.497939
60.566664
161.089897
288.711786
540.585518
754.150748
1002.327800
1015.868783
1015.868783
1015.868783
893.679857
682.392716
415.136814
253.077745
112.137794
54.387450
19.002557
11.358857
10.799766
11.879802
15.990734
21.328926
32.279491
45.365691
64.719915
78.996420
94.878674
102.362633
105.779767
101.840496
87.576509
74.998736
58.465600
46.868920
34.675598
28.863549
24.893880
23.414493
22.971630
22.420883
22.839904
23.154616
22.557974
23.081899
23.086667
22.260547
22.689700
22.634864
22.892952
22.229552
21.898746
##ZVALUE=330
0.596642
0.655651
0.769496
0.883937
0.784993
0.690818
0.703931
0.754595
0.775456
0.989437
0.695586
0.764728
0.656843
0.618696
0.860691
0.793934
0.752807
0.979900
0.849962
0.804663
0.886917
0.909567
0.981688
0.900626
0.922680
0.970960
0.704527
0.890493
0.920892
0.995994
1.178980
0.929832
0.990629
1.111627
1.024604
1.140833
1.111627
1.197457
1.213551
1.459718
1.447797
1.405478
1.534820
1.525879
1.805425
2.071857
2.314448
10.063648
32.414794
106.143951
206.057429
413.997769
612.916946
890.432000
1015.857458
1015.857458
1015.857458
974.568725
781.194568
505.575538
325.433612
152.262449
77.340603
29.475689
14.755726
10.786653
10.987520
12.952685
15.453696
22.768974
30.770898
44.814944
59.481859
78.014731
89.698434
99.718571
101.179481
95.188618
85.524917
70.037842
57.397485
43.009520
36.364794
29.536486
26.317835
23.710728
23.284554
22.518635
22.257566
22.749901
22.250414
22.125840
22.007823
21.713972
21.740794
21.705627
##ZVALUE=335
0.977516
0.969768
0.878572
0.773668
1.039505
0.803471
0.967979
1.036525
0.962615
0.834465
0.998974
0.892878
0.956655
0.764728
0.887513
0.948906
0.988841
0.939965
0.949502
0.992417
1.106858
1.009703
1.075864
0.987649
1.044869
1.053810
0.862479
1.062751
0.926852
1.082420
1.056790
1.010895
1.132488
1.185536
1.010895
1.157522
1.099706
1.165867
1.254678
1.417994
1.319647
1.390576
1.519918
1.526475
1.494884
1.845956
1.680851
2.126694
2.339482
5.014539
17.273426
66.161752
139.436722
311.477780
500.084758
787.397027
979.855657
1016.044617
1016.044617
1015.848517
877.144933
599.199533
408.370495
211.081505
110.934973
39.726496
18.713474
11.389852
11.598468
11.953712
13.472438
16.919971
21.767616
32.700896
43.537617
59.897900
73.079467
87.199807
94.995499
97.030997
92.111826
80.593824
70.169568
57.285428
47.073960
36.336780
30.905604
25.926828
23.782849
22.052526
21.946430
21.327734
21.823645
21.274686
21.539927
21.542907
##ZVALUE=340
0.705719
0.682473
0.695586
0.790954
0.572801
0.770688
0.558496
0.736713
0.732541
0.703931
0.875592
0.670552
0.819564
0.647902
0.675917
0.652671
0.717640
0.825524
0.795722
0.911951
0.574589
0.844598
0.789762
0.853539
0.835657
0.792742
0.744462
0.846982
0.795722
0.917912
0.783801
0.991821
0.803471
0.984669
0.862479
0.909567
0.911951
1.020432
1.030564
0.987649
1.104474
1.220703
1.105666
1.287460
1.329780
1.319647
1.497865
1.494884
1.573563
1.947880
1.922846
2.684593
8.439422
40.509701
98.136663
243.842006
408.010483
669.998527
864.672661
1015.861630
1015.861630
1015.861630
936.706662
692.510605
491.702557
265.195966
145.796537
55.191517
24.724603
12.204647
11.212826
11.752844
12.572408
14.343858
17.017722
23.013949
31.067729
44.270754
55.502653
72.807670
83.130598
90.545416
91.256499
86.602569
78.532696
66.509843
56.879520
45.229793
36.403537
29.449463
25.157928
22.634864
21.088719
20.612478
20.313859
19.990802
##ZVALUE=345
0.723600
0.593662
0.726581
0.552535
0.586510
0.725985
0.730753
0.798702
0.722408
0.635982
0.808835
0.714660
0.683665
0.730753
0.667572
0.681877
0.670552
0.681877
0.575781
0.662804
0.702739
0.601411
0.754595
0.922680
0.869632
0.898838
0.803471
0.765920
0.918508
0.914931
0.778437
0.941753
0.746846
0.948906
0.900626
1.011491
0.969768
0.889897
0.961423
1.028776
0.970960
0.989437
1.075864
1.027584
1.085997
1.159906
1.287460
1.113415
1.276731
1.447797
1.442432
1.608729
1.791716
2.040863
4.716516
17.673969
71.824789
148.590803
315.825939
487.448573
754.583478
936.982036
1015.862823
1015.862823
982.684493
815.464854
552.797914
362.661481
168.828964
83.804727
30.175447
15.873909
11.550784
11.574626
11.968613
12.247562
13.632774
16.498566
22.216439
28.380752
41.456819
51.708817
65.531731
75.307488
83.146691
84.603429
82.210898
75.315833
64.197779
54.406524
42.941570
35.024881
27.675629
24.378896
20.852685
20.486712
##ZVALUE=350
0.671744
0.708699
0.664592
0.681877
0.565648
0.676513
0.531673
0.660419
0.619888
0.685453
0.643730
0.559688
0.719428
0.798702
0.934601
0.701547
0.681877
0.854731
0.702739
0.726581
0.745654
0.795722
0.797510
0.927448
0.773668
0.684857
0.734925
0.842810
0.951886
0.814795
0.833869
0.915527
0.935793
0.903606
0.828505
1.006722
0.959635
0.944734
1.045465
1.042485
1.099706
1.094937
1.018643
1.018643
1.144409
1.158714
1.048446
1.066923
1.172423
1.195669
1.353621
1.501441
1.547933
1.550913
1.539588
1.771450
2.348423
11.035800
35.180449
110.624433
212.562680
420.164466
610.803962
851.769447
999.501944
1015.905738
1015.905738
855.286717
656.421781
393.581390
242.500901
112.531781
53.465962
18.359423
11.925697
11.644959
11.523962
11.823773
12.178421
13.804436
15.936494
21.336675
27.255416
37.703514
46.678782
59.327483
67.698956
75.530410
78.512430
76.797605
70.467591
59.763789
51.335692
41.631460
34.387708
27.171969
##ZVALUE=355
0.463724
0.447631
0.422597
0.493526
0.533462
0.341535
0.592470
0.700951
0.479817
0.466704
0.480413
0.561476
0.498891
0.576973
0.471473
0.479817
0.513792
0.536442
0.609756
0.520945
0.538826
0.589490
0.420809
0.607967
0.534654
0.502467
0.451803
0.550747
0.675917
0.545979
0.634789
0.789762
0.571609
0.723600
0.637770
0.783801
0.786781
0.802875
0.449419
0.785589
0.677705
0.824928
0.653863
0.794530
0.736713
0.836849
0.763535
0.799894
0.888705
0.853539
0.879765
1.057982
0.855923
1.154542
1.176000
1.385808
1.387596
1.488924
1.835823
5.252957
18.566847
72.620511
148.743987
313.199759
495.142937
761.296749
924.917459
1015.660763
1015.660763
898.397565
723.671913
466.194749
292.457938
130.989552
66.172481
24.700761
12.875795
10.237694
10.455847
10.814667
10.975599
11.765957
12.930632
15.197992
18.139482
24.541616
30.855536
41.891932
50.481558
60.795546
66.636801
70.725679
68.939924
63.719749
57.234764
47.142506
##ZVALUE=360
0.647902
0.601411
0.587702
0.581741
0.474453
0.405908
0.562668
0.683665
0.523925
0.498891
0.655651
0.724792
0.512600
0.507832
0.568628
0.712872
0.671744
0.643730
0.690818
0.424981
0.468493
0.521541
0.556707
0.720620
0.609756
0.746846
0.647902
0.673532
0.669956
0.757575
0.852942
0.619888
0.621676
0.688434
0.794530
0.754595
0.726581
0.802875
0.774860
0.697970
0.796914
0.768900
0.997782
0.838637
0.783801
0.898838
0.876784
0.889897
0.894666
0.987649
1.014471
0.927448
1.085997
1.027584
1.169443
1.294613
1.294613
1.439452
1.498461
1.694560
1.813769
2.774596
8.319020
37.974715
91.981888
228.289962
377.203822
614.136457
806.526542
986.698866
1015.757918
957.959890
810.049772
555.844903
374.170542
184.122920
97.194910
37.100911
17.095804
10.208488
9.948611
10.296702
10.229945
10.549426
10.696650
11.879802
12.689829
16.009808
19.758940
27.067661
33.925772
44.583678
51.937699
59.813857
63.900948
64.312816
##ZVALUE=365
0.671744
0.754595
0.599623
0.703931
0.736713
0.708699
0.721812
0.584722
0.614524
0.651479
0.730753
0.719428
0.662804
0.757575
0.688434
0.625849
0.569820
0.627637
0.556707
0.643730
0.827909
0.603795
0.660419
0.700951
0.731945
0.671744
0.890493
0.751615
0.734925
0.679493
0.824928
0.862479
0.706911
0.883937
0.889897
0.868440
0.833869
0.697970
0.684857
0.893474
0.901818
1.038909
0.925660
0.935793
1.012683
0.912547
1.010895
0.925660
0.958443
1.010895
0.951886
1.107454
0.946522
1.161695
1.155734
1.171827
0.984669
1.330972
1.459718
1.421571
1.470447
1.575947
1.769662
2.086759
3.954768
20.102859
56.873560
159.428716
285.593867
510.848761
698.035955
903.252959
995.571017
977.593660
861.526728
629.487634
451.383591
246.901512
138.054490
53.140521
23.470521
10.406971
9.297729
9.486675
9.310842
9.860992
10.042787
10.473728
10.718703
12.179613
13.612509
17.985702
22.598505
29.507875
36.878586
46.416521
##ZVALUE=370
0.650883
0.674725
0.651479
0.685453
0.617504
0.688434
0.640750
0.553727
0.511408
0.387430
0.536442
0.478625
0.673532
0.791550
0.697970
0.633597
0.659823
0.564456
0.563860
0.703931
0.680685
0.672936
0.812411
0.669956
0.763535
0.654459
0.738502
0.657439
0.626445
0.755787
0.774860
0.683665
0.628829
0.780821
0.836849
0.822544
0.725985
0.846982
0.790954
0.646710
0.784993
0.884533
0.774860
0.996590
0.854731
0.861883
0.797510
0.920892
0.929832
0.834465
0.938773
0.836849
0.886917
0.946522
0.962615
1.209974
1.095533
1.284480
1.180768
1.270771
1.184940
1.424551
1.291633
1.629591
1.672506
1.916885
2.520680
10.879636
35.461783
114.029646
213.530660
404.729843
595.097542
831.895471
953.164697
982.804894
905.974507
713.863969
529.649854
298.740864
169.600844
68.630576
33.056736
13.529658
9.268522
8.613467
8.527637
8.876920
8.773804
8.848906
9.184480
10.023713
10.575652
12.840629
15.625954
20.742416
##ZVALUE=375
0.553727
0.733733
0.638962
0.708699
0.607967
0.501871
0.469685
0.449419
0.602603
0.697970
0.539422
0.802875
0.619888
0.534654
0.627637
0.461936
0.509620
0.465512
0.469685
0.682473
0.548959
0.633597
0.625849
0.676513
0.712872
0.651479
0.617504
0.578761
0.598431
0.745654
0.742674
0.638962
0.710487
0.674725
0.654459
0.700951
0.801682
0.624657
0.815988
0.722408
0.840425
0.829697
0.890493
0.800490
0.794530
0.906587
0.687838
0.845790
0.845790
0.925660
0.894666
0.771880
0.818968
0.826716
0.893474
0.992417
0.859499
0.919700
0.940561
1.068711
0.973940
1.050830
1.161695
1.167655
1.179576
1.316667
1.418591
1.576543
1.957417
5.658865
18.825531
68.838000
146.498680
325.216651
500.555634
745.480061
888.634920
982.799530
956.666470
799.122453
622.408986
385.253429
240.414739
111.838579
57.157874
20.125508
10.256767
7.976890
7.732511
7.947683
8.125901
8.088946
8.413792
8.612871
8.932948
9.892583
##ZVALUE=380
0.569820
0.570416
0.468493
0.566840
0.478625
0.671744
0.536442
0.495911
0.453591
0.591874
0.636578
0.456572
0.432730
0.397563
0.517964
0.670552
0.587702
0.568628
0.577569
0.711679
0.549555
0.511408
0.651479
0.513792
0.589490
0.646710
0.680685
0.608563
0.615716
0.742674
0.625849
0.572801
0.741482
0.703931
0.683665
0.686646
0.620484
0.708699
0.689626
0.730753
0.694990
0.802875
0.743866
0.637770
0.734925
0.791550
0.645518
0.887513
0.769496
0.829697
0.828505
0.903606
0.817776
0.741482
0.789762
0.878572
0.792742
0.861883
0.821948
0.929832
0.862479
1.004934
1.085997
1.182556
1.058578
1.080632
1.217723
1.368523
1.623631
1.743436
1.899600
3.354549
11.521578
50.849915
112.360716
248.993635
406.782627
653.530955
821.082592
961.849689
969.904661
840.199590
692.549944
484.334826
323.643684
159.354806
83.367825
30.741692
14.251471
7.821918
7.220507
7.344484
7.243752
7.505417
7.852912
7.958412
##ZVALUE=385
0.650883
0.615716
0.574589
0.667572
0.560880
0.525713
0.608563
0.510812
0.478625
0.483990
0.514984
0.649691
0.470877
0.705719
0.612736
0.540614
0.630617
0.588894
0.522733
0.596642
0.611544
0.632405
0.587702
0.657439
0.614524
0.648499
0.519753
0.618696
0.614524
0.677705
0.551939
0.596642
0.671744
0.622869
0.840425
0.718832
0.777841
0.621676
0.679493
0.700951
0.615716
0.806451
0.709891
0.729561
0.684857
0.787973
0.818968
0.716448
0.723600
0.674725
0.875592
0.874996
0.740886
0.689626
0.739694
0.727773
0.753999
0.791550
0.852942
0.751615
0.957847
0.927448
0.828505
0.922680
1.084805
1.052618
1.177788
1.268983
1.255870
1.484752
1.443624
1.771450
1.716614
2.244711
5.190969
27.177930
70.151687
177.972913
310.374498
542.564988
719.292760
901.688933
958.056450
905.424953
799.889565
583.189726
414.492488
227.292776
129.506588
53.665638
22.843480
8.605719
7.010698
6.634593
6.659627
6.628633
##ZVALUE=390
0.565648
0.537634
0.650883
0.580549
0.553727
0.534654
0.426769
0.565648
0.657439
0.558496
0.521541
0.589490
0.589490
0.604987
0.649691
0.344515
0.582933
0.477433
0.652671
0.625849
0.319481
0.468493
0.683665
0.629425
0.605583
0.707507
0.625849
0.657439
0.704527
0.575781
0.674725
0.589490
0.702739
0.568628
0.614524
0.745654
0.699759
0.657439
0.723600
0.814795
0.801682
0.671744
0.509620
0.765920
0.640750
0.661612
0.640750
0.693798
0.709891
0.836849
0.811815
0.749826
0.688434
0.723600
0.773668
0.754595
0.714660
0.860691
0.921488
0.932813
0.906587
0.727773
0.882745
0.972748
0.824928
1.040697
0.956655
1.090765
1.060963
1.495481
1.349449
1.465678
1.533628
1.619458
1.519918
1.714826
2.747774
14.376640
44.298768
133.958459
250.262618
467.730761
634.537935
826.793909
927.560925
955.731869
880.132914
696.587563
531.090498
320.139527
186.182857
77.037811
35.328865
11.297464
6.920695
6.436706
##ZVALUE=395
0.608563
0.595450
0.534654
0.530481
0.675917
0.620484
0.626445
0.633597
0.663996
0.596642
0.417829
0.627637
0.646710
0.680685
0.607967
0.476837
0.559688
0.547767
0.502467
0.479817
0.440478
0.626445
0.572801
0.557899
0.614524
0.605583
0.572801
0.509620
0.487566
0.515580
0.798702
0.633597
0.585914
0.703931
0.777841
0.637770
0.709891
0.795722
0.646710
0.779629
0.762939
0.758767
0.777841
0.696778
0.726581
0.894666
0.706911
0.643730
0.806451
0.766516
0.705719
0.821948
0.710487
0.802875
0.892878
0.818968
0.915527
0.586510
0.778437
0.896454
0.889897
0.826716
0.889897
0.900626
0.863671
0.981688
0.798702
0.908971
1.078844
1.184940
1.181960
1.349449
1.386404
1.324415
1.500845
1.551509
1.507998
1.640916
2.148747
6.259680
33.111572
81.063509
191.530585
322.341919
547.058582
721.248388
903.796554
973.614454
931.730866
815.594792
600.764751
422.806740
225.812793
122.032762
46.700835
21.028519
##ZVALUE=400
0.537634
0.674725
0.624657
0.426769
0.556707
0.615716
0.518560
0.490546
0.396967
0.442863
0.503659
0.557899
0.530481
0.559688
0.603795
0.610948
0.465512
0.654459
0.644922
0.644922
0.619888
0.567436
0.600815
0.653863
0.520945
0.461936
0.658631
0.537634
0.709891
0.716448
0.556707
0.567436
0.712872
0.862479
0.692606
0.702739
0.887513
0.739694
0.605583
0.496507
0.701547
0.824928
0.729561
0.756979
0.917912
0.754595
0.621676
0.688434
0.553727
0.753999
0.743866
0.793934
0.744462
0.713468
0.818968
0.934601
0.829697
0.825524
0.756979
0.830889
0.680685
0.787973
0.799894
0.891685
0.912547
0.915527
1.031756
1.032948
1.101494
0.997782
1.307726
1.244545
1.320839
1.281500
1.314878
1.314878
1.289845
1.369715
1.415610
1.488924
1.719594
4.069805
14.356971
57.090521
120.568871
265.311003
419.651866
645.211935
795.783997
924.151540
939.580798
828.210711
689.474940
472.935438
315.307975
158.673525
##END
