##TITLE=AAI0802
##FORMAT=SPECTACLE-ASCII V-1.2
##DATA TYPE=ULTRAVIOLET SPECTRUM
##SECOND TYPE=ULTRAVIOLET SPECTRUM
##DATE=04/30/18
##TIME=11:44:44
##SPECTROMETER/DATA SYSTEM=SPECTACLE
##XUNITS=NM EM
##YUNITS=ENERGY
##YFACTOR=1
##FIRSTX=220
##LASTX=410
##NPOINTS=96
##3DDATA=Equidistant
##ZUNITS=NM EX
##FIRSTZ=210
##LASTZ=400
##ZPOINTS=39
##XYDATA=(Y..Y)
##ZVALUE=210
5.332828
4.878640
5.115867
4.725456
4.124641
4.166961
4.395843
4.112720
3.795624
3.733635
3.554821
3.655553
3.666878
3.456473
3.387928
3.532767
3.898740
3.858805
3.558993
4.227757
4.101992
4.611611
4.537702
5.360842
5.368590
5.260706
5.131960
6.574988
6.344914
6.886721
6.629825
5.633831
6.573796
7.302761
7.569790
6.416440
6.547570
7.151961
7.318854
7.039905
7.323623
8.226633
7.603765
8.898973
7.802844
9.095669
7.844567
8.587837
8.847713
8.192658
8.469820
8.493662
8.493662
9.061694
9.555817
9.308457
9.643435
9.454489
9.750724
8.453727
9.634495
9.041429
10.306835
9.628534
9.627938
10.107756
10.811687
12.605786
14.393926
15.915632
18.035769
21.836758
24.421811
27.740598
29.942989
30.567646
31.974912
31.377673
28.101802
28.625727
28.069615
25.325418
22.061467
18.890500
14.201999
12.330413
11.391640
9.620786
9.527802
9.308457
9.113550
9.729862
9.438992
9.291768
11.259913
10.938644
##ZVALUE=215
16.726851
16.716719
13.261437
10.564923
10.110736
8.460879
8.046627
8.075833
8.550882
7.713437
6.506443
7.079840
5.433559
5.350709
4.495978
4.006624
4.039407
3.922582
4.490614
4.689693
4.276633
4.697442
4.888773
5.029440
4.987717
5.675554
5.712509
5.973577
6.265640
7.086992
6.524920
7.162690
7.238984
7.528663
7.275939
6.915927
7.020831
8.355975
7.664561
9.455681
8.314848
8.308887
8.465648
8.094907
8.836985
8.302927
8.964539
7.848740
8.405447
8.084774
8.773804
9.688735
9.228587
8.548498
8.626580
8.994937
9.548664
9.127855
8.776784
9.230971
9.077787
9.909868
8.967519
8.954406
9.639859
10.603666
10.952950
11.675954
13.765693
14.002919
16.084909
19.669533
21.882653
25.025606
27.422905
27.941465
25.838614
26.678443
26.379824
23.770928
20.985603
20.924807
17.163754
15.215874
12.919903
12.203455
9.887815
10.052919
8.248687
8.857846
8.423924
9.435415
7.694960
8.847713
8.744597
9.860992
##ZVALUE=220
46.765804
46.593547
46.310425
49.272776
41.106939
33.498406
27.112961
20.063519
16.623735
15.738606
15.165806
15.449524
14.921427
12.602806
11.655688
9.564757
7.029772
5.251765
5.274415
4.799962
4.897714
4.730821
6.017685
5.119443
4.778504
5.611777
5.803704
6.153584
5.913973
7.076859
6.472468
6.637573
7.177591
8.244514
7.511973
6.854534
7.005930
9.138584
8.070469
7.932782
7.868409
8.000731
9.142756
7.666945
8.254647
9.582639
8.467436
8.142591
9.766817
9.404421
9.801984
9.295940
8.865595
9.709597
9.798408
9.264946
9.848475
10.032654
9.860992
10.635853
10.898709
10.600686
11.313558
10.313988
11.585951
10.438561
10.716915
12.126565
13.325810
15.441775
15.614629
19.672513
21.511912
23.717880
26.045442
27.205944
26.249886
26.084781
25.084615
24.612546
21.225810
18.626451
17.456412
15.323758
14.165640
12.764931
10.780692
9.192824
10.012984
9.586811
9.054542
8.540750
8.998513
8.260608
9.814501
8.295774
##ZVALUE=225
71.918964
76.066852
91.398954
115.535855
120.816827
121.655464
104.932785
82.633495
62.442422
47.586560
32.890439
31.736493
30.499697
30.805469
29.393435
28.667450
23.954511
18.491745
14.694929
9.889603
7.366538
7.058978
5.352497
5.796552
5.198717
5.855560
6.993413
6.226897
6.728768
6.720424
6.669760
7.233620
7.432699
8.488894
8.535981
8.271933
9.334683
9.239912
7.351637
8.556843
8.524656
8.548498
9.285808
7.755756
8.735657
8.848906
8.816719
9.013414
9.782910
9.783506
9.571910
10.707974
10.088682
9.074807
9.743571
9.861588
10.702610
11.206865
10.886788
10.376573
10.972619
11.941791
10.793805
11.288524
11.093616
10.695457
11.805892
11.738539
13.028979
16.165972
16.110539
18.908978
20.039678
21.075606
24.563670
23.425817
22.359490
23.420453
21.997690
19.757748
19.516945
18.065572
15.795827
14.322996
12.864470
12.956858
12.026429
11.337996
11.080503
10.409951
9.738803
9.314418
10.287762
9.661913
9.123683
9.954572
##ZVALUE=230
56.443810
65.911412
101.017952
155.959725
200.808644
238.313675
255.377889
247.820616
221.675634
186.739564
124.209523
91.052651
60.506463
51.255822
50.056577
54.696798
56.072474
51.472783
46.569705
41.040778
31.608939
20.072460
15.057921
9.250641
7.067919
6.893873
7.409453
6.341934
6.756783
7.196665
8.493662
7.424951
7.099509
8.211732
8.842945
8.848906
8.879900
8.397698
8.695722
8.931756
9.300709
10.029674
9.597540
9.489655
9.437799
9.399652
9.669662
9.486675
11.031628
10.458827
10.824800
10.648966
10.674596
11.848807
12.039542
11.458993
11.407733
11.283755
12.981892
13.035536
12.250543
12.575984
12.124777
11.851788
13.318658
12.608767
13.138652
14.875531
14.651418
17.495751
18.379688
21.216869
22.654533
23.301840
25.382638
25.286674
23.584962
23.993850
22.733808
20.487905
21.456480
18.566847
17.116666
16.586781
16.134977
13.921857
14.151931
12.628436
13.593435
13.168454
12.258887
11.777878
12.895465
11.658669
12.227893
10.897517
##ZVALUE=235
21.506548
24.175644
48.960447
106.802583
170.552731
266.245604
337.853432
421.059728
460.681915
458.662510
408.007503
329.765677
225.516558
164.012909
112.673640
87.098479
80.400705
80.834627
82.840919
84.502697
80.938935
65.586567
52.958727
35.904646
25.525689
17.134547
11.614561
8.370876
7.873774
7.537603
8.451939
9.580851
9.053946
7.865429
7.952452
8.508563
9.115934
9.525418
8.758903
10.162592
8.689761
9.783506
9.294748
9.157658
9.325743
10.923743
9.932518
10.070801
11.216998
10.272861
10.948777
10.878444
11.448860
9.959936
11.492968
11.481643
11.474490
12.384653
12.533665
12.704730
13.437867
12.927651
13.623834
14.569759
14.301538
15.804768
15.815496
17.034411
17.919540
19.917488
22.202730
22.798777
25.245547
24.742484
25.833845
26.581883
26.906729
26.053786
23.804903
22.490621
22.873878
20.191669
21.016598
19.676685
17.100573
18.436909
15.980601
14.633536
16.684532
16.602874
16.103983
14.538765
13.385415
14.174581
14.099479
14.285445
##ZVALUE=240
2.550483
2.599955
7.896423
21.570921
64.229965
118.384957
228.349566
343.315601
504.526496
591.578484
671.169758
670.483708
623.975992
500.122905
384.068489
252.353549
173.466802
116.548538
98.598003
100.952983
107.119679
112.701654
108.714700
99.158883
77.810884
63.977838
45.688748
32.260418
22.104979
14.145970
11.042953
9.534955
8.681417
10.221601
9.135604
8.667707
8.654594
9.556413
10.503531
9.307861
8.865595
9.357929
9.252429
8.892417
9.456873
10.240674
9.767413
10.118484
10.409951
10.022521
11.110902
10.663867
11.663437
11.046529
12.026429
11.292696
12.380481
12.292862
12.824535
13.331771
12.442470
13.063550
13.654828
14.626980
14.135838
17.033815
14.546514
15.380979
18.249750
19.458532
22.798777
23.275614
24.469495
25.839806
27.261972
27.552843
28.506517
26.442409
27.179718
23.984909
24.157763
23.526549
22.260547
21.424890
20.229816
20.274520
17.484426
18.612742
17.305613
17.469525
17.041564
16.759634
16.704798
16.923547
16.944408
16.731620
##ZVALUE=245
1.850724
2.117753
2.114773
2.622604
4.465580
19.027591
45.182705
115.830898
209.703445
368.637443
519.204736
691.337585
787.750483
829.978585
801.696777
708.841681
542.407632
407.597423
254.644752
174.730420
114.850998
97.782612
112.315416
124.448538
132.381916
122.834444
106.923580
90.514421
76.435804
50.437450
35.416484
22.113919
14.713407
9.567738
8.716583
8.506775
8.160472
9.173751
8.247495
8.518696
8.804798
8.304715
9.332895
8.021593
8.308887
8.495450
9.325743
9.626746
9.024739
8.753538
10.630488
9.890795
9.393692
9.833574
10.818839
10.535717
11.138916
11.424422
11.260509
11.288524
12.034774
12.017488
12.212992
13.743639
12.559891
13.993979
13.925433
15.549660
15.762448
17.722845
18.403530
20.730495
22.028685
25.187731
25.399923
25.849938
25.112629
23.902655
23.036599
23.348927
22.403598
20.923615
19.835830
19.648671
17.741919
18.794537
17.297864
17.750859
17.204881
17.443895
16.425848
15.679598
15.127659
16.008615
15.900731
16.371608
##ZVALUE=250
1.909733
1.943707
1.911521
1.780987
1.907945
2.092719
3.272891
9.291768
39.578676
84.753633
208.134651
342.245698
484.141707
715.935826
845.595002
946.736932
957.853794
866.022706
742.787719
533.196926
377.611518
249.529481
143.468976
105.146766
100.310445
118.319988
127.263665
135.312676
127.981901
119.053721
103.346705
79.476833
57.494640
35.703778
23.642778
14.164448
10.494590
8.113980
8.126497
7.594824
7.972717
7.815957
7.866621
7.510781
8.606911
8.156896
8.669496
8.601546
8.549690
8.173585
8.723736
9.571910
9.822845
9.393692
9.956956
10.119677
10.473728
10.241866
10.477901
11.475682
11.494756
10.538697
11.129975
11.302829
12.019873
11.674762
12.889504
13.146996
14.983416
15.773773
15.813708
17.892718
19.419789
20.557642
20.971894
20.610690
21.002889
21.603703
21.844506
19.933581
19.552708
17.669797
16.797781
16.466975
17.270446
15.719533
15.545487
14.969707
15.413761
15.406609
15.561581
14.478564
14.835000
14.848709
13.657808
13.778806
##ZVALUE=255
1.865625
1.641512
1.570582
1.632571
1.943707
2.075434
1.997948
2.205968
2.683997
5.188584
28.881431
69.305897
140.531659
302.433968
466.201901
706.806779
876.843929
1014.691591
1016.029716
1007.149816
873.625875
696.308017
452.473760
284.443498
154.211521
109.972954
89.785457
103.561878
120.387673
132.773519
138.772726
138.444901
123.532414
101.619959
80.254674
53.169727
37.690997
22.245646
14.671683
9.315610
8.305907
8.081794
8.091927
7.190704
8.101463
8.355975
7.792711
8.099675
7.830858
8.245707
8.981824
8.728504
9.366870
9.305477
9.798408
9.735823
9.730458
9.931922
10.533929
10.321736
10.310411
9.749532
11.273623
12.043715
11.466742
10.803938
11.802912
12.612939
13.905764
14.174581
15.289783
16.577840
17.087460
17.482638
17.172694
18.874407
18.115640
17.365813
17.321706
16.101599
16.022921
14.299750
14.345646
13.817549
13.994575
13.618469
13.518929
13.955832
13.162494
13.750792
13.338923
12.879968
12.809634
13.324618
12.687445
13.416409
##ZVALUE=260
1.420975
1.531839
1.231432
1.736879
1.547933
1.729727
1.447797
1.788735
1.872778
1.884699
2.272725
2.899766
15.172958
39.843917
117.922425
226.781964
456.301570
648.096800
852.074027
1016.031504
1016.031504
1016.031504
1016.031504
850.460529
631.106496
376.635790
242.081881
130.065680
90.888739
84.269643
97.247958
123.220682
139.084458
146.081448
141.695738
124.249458
108.101964
78.307986
58.917999
37.369728
24.274588
13.799667
10.184646
8.048415
7.378459
8.218884
8.182526
8.459687
8.453727
9.018779
9.061694
8.620620
9.609461
10.001659
9.973645
9.736419
10.370612
9.683967
10.050535
10.439754
10.397434
10.445714
10.558963
11.044741
10.911822
11.625886
11.668801
11.908412
12.392998
13.816953
14.108419
14.826655
15.989542
16.965866
16.911626
16.255975
16.572475
16.506910
15.295744
14.930964
14.862418
13.333559
13.904572
12.272596
12.751818
12.478828
12.734532
12.329817
12.746453
12.063980
12.203455
11.902452
11.845827
11.467934
12.385845
12.246966
##ZVALUE=265
1.484752
1.536608
1.500845
1.439452
1.605749
1.369715
1.516938
1.483560
1.700521
1.872778
2.147555
1.932979
2.084970
2.721548
5.683899
31.794906
76.848865
192.811489
342.495441
635.693669
890.110731
1016.096473
1016.096473
1016.096473
1016.096473
1016.097069
796.166658
565.980673
317.440629
189.454556
114.592910
74.674487
79.119802
105.990767
126.319528
144.795775
150.102973
143.612623
130.042434
104.585886
81.265569
54.865479
37.380457
23.017526
15.415549
10.158420
8.810759
8.783937
8.862615
9.091496
9.121895
9.287596
9.149909
9.412766
9.849668
10.149479
10.205507
9.656549
10.134578
9.704828
10.267496
9.835958
9.828806
10.763407
10.112524
10.328889
11.026859
11.075735
11.379719
12.900829
12.932420
13.438463
14.465451
14.706850
14.033914
14.564991
14.791489
13.688803
13.317466
12.951493
13.276935
12.106895
12.380481
11.520982
11.753440
10.732412
11.262894
11.267662
10.159612
11.184812
11.004806
10.711551
10.758638
10.462999
11.508465
11.323690
##ZVALUE=270
1.181960
1.149774
1.209974
1.251698
1.360774
1.462698
1.405478
1.436472
1.183748
1.726747
1.660585
1.798868
1.911521
1.986623
2.290606
2.268553
2.788901
13.899803
43.466687
138.154030
273.482800
476.169586
818.866491
1016.031504
1016.031504
1016.031504
1016.031504
1016.031504
1004.517674
774.471760
532.763004
276.173949
151.986480
75.141788
63.424706
79.345703
103.105903
129.813552
140.171647
149.257779
147.152543
128.372908
109.404922
80.019832
59.531927
35.888553
24.929643
16.385913
11.807680
9.052753
9.043813
8.532405
8.209944
8.935928
8.564591
8.830428
9.194613
9.447932
10.138750
9.190440
9.922981
9.145737
9.713769
9.365678
10.225773
9.343624
10.296702
10.217428
10.454655
10.527968
11.891723
12.303591
12.846589
13.007522
14.145970
13.583899
12.887716
13.021827
11.690855
12.106895
11.249781
11.172891
11.250973
11.239648
10.382533
10.506511
10.451674
10.604858
10.216832
10.121465
10.424852
10.412931
10.050535
10.072589
10.158420
10.139942
##ZVALUE=275
1.070499
1.202822
1.264811
1.158714
1.253486
1.452565
1.313686
1.126528
1.140833
1.322627
1.362562
1.446605
1.604557
1.619458
1.899600
1.743436
2.221465
2.198815
2.365708
6.939769
24.186969
68.553686
208.314657
395.105481
736.981034
992.038846
1016.031504
1016.031504
1016.031504
1016.031504
1016.031504
970.332623
684.753656
366.454720
206.251740
90.317726
58.331490
58.419704
77.147484
103.555918
124.691725
143.551826
145.928860
144.464970
128.368735
101.921558
82.153678
57.046413
41.327477
25.209785
17.317533
11.342764
10.052919
8.775592
8.454919
8.956790
8.735657
8.619428
8.899570
8.377433
9.369850
9.383559
8.950830
8.560419
8.656979
9.282827
9.061694
9.989738
10.548830
11.076927
11.084676
11.895895
11.889935
12.065768
12.661815
13.323426
12.349486
11.965632
11.912584
11.459589
10.981560
10.438561
10.457635
10.341406
10.087490
9.656549
10.301471
10.178685
9.309649
9.623766
9.590983
9.594560
10.106564
9.483695
9.718537
9.827614
##ZVALUE=280
0.903606
1.243949
1.126528
1.179576
1.171827
1.137853
1.211762
1.105666
1.278520
1.201630
1.303554
1.420975
1.369715
1.458526
1.481771
1.634955
1.688600
1.668930
1.857877
2.290606
2.249479
2.983809
15.307665
52.175522
166.818500
309.713483
581.491590
856.474638
1016.028523
1016.028523
1016.028523
1016.028523
1016.028523
1016.028523
823.616982
465.607643
276.422501
122.510791
63.219666
43.379664
54.006577
78.533888
100.137591
125.265718
139.054656
144.220591
139.126778
124.329925
107.111931
78.547001
58.967471
38.931966
26.744604
16.923547
11.698604
9.154677
8.668900
8.716583
8.716583
8.581877
8.964539
8.675456
8.877516
9.197593
8.863807
8.874536
9.388924
9.408593
9.405613
10.274649
10.334849
11.047721
11.659861
11.497736
11.903644
11.602640
11.491776
11.446476
10.625720
10.807514
10.423660
10.118484
10.224581
9.678602
9.768605
9.424686
9.631515
9.621978
9.513497
9.320974
9.369850
9.155869
9.621978
9.392500
9.298921
9.383559
##ZVALUE=285
1.089573
1.044869
1.094937
1.092553
1.082420
1.093745
1.091957
1.214743
1.196861
1.195669
1.184940
1.176596
1.182556
1.162887
1.395941
1.438856
1.482964
1.762509
2.035499
1.973510
1.976490
2.050996
2.179742
2.899766
6.348491
32.598972
84.302425
225.081444
399.142504
728.585720
994.014740
1016.031504
1016.031504
1016.031504
1016.031504
1016.031504
1002.448797
635.322928
399.336815
187.493563
94.601512
41.828752
36.618710
53.821802
70.262551
98.448992
117.660761
136.311650
142.313838
137.104988
126.320720
103.252530
83.009601
57.543516
41.832924
25.663972
16.902685
11.770725
9.476542
9.003878
8.635521
8.000731
8.475780
8.313656
8.399487
8.555651
8.853674
9.508729
9.700656
9.949803
9.896755
10.773540
11.097789
11.278987
11.255741
11.080503
11.383891
11.144876
10.443926
10.771751
10.237694
9.760857
10.158420
9.727478
9.684563
9.197593
9.780526
9.287596
8.835793
9.614825
9.024739
9.530783
8.908510
8.994937
9.235740
8.986592
##ZVALUE=290
1.142621
1.112819
1.219511
1.102686
1.290441
0.984669
1.225471
1.355410
1.181960
1.103878
1.033545
1.269579
1.318455
1.385808
1.371503
1.381636
1.468658
1.387596
1.502633
1.745820
1.736879
1.634955
1.976490
2.001524
2.306700
2.636909
3.586411
10.841489
49.899817
124.520659
250.028968
544.019938
845.443010
1016.144753
1016.144753
1016.144753
1016.144753
1016.144753
1016.144753
836.579800
552.273989
273.127556
141.663551
53.757429
29.793978
34.115911
47.147870
69.772601
88.687539
115.132928
129.529834
136.597753
134.653449
121.084452
104.623437
78.620911
59.046745
37.979484
27.312636
16.700625
12.557507
9.445548
8.754730
8.333921
8.145571
8.372664
8.529425
8.572936
8.894801
10.136962
9.969473
10.604858
11.060834
10.939837
11.158586
10.870695
10.998845
10.265708
10.289550
9.876490
9.837747
9.600520
9.493828
9.259582
9.359717
9.859800
9.601712
9.238720
9.432435
9.100437
9.532571
9.229779
8.852482
9.085536
8.660555
8.760691
##ZVALUE=295
0.926852
0.891685
0.957847
1.028776
0.958443
0.983477
0.949502
1.130700
1.057982
1.090765
1.048446
1.100898
1.062751
1.152754
1.069903
1.018643
1.098514
1.228452
1.449585
1.504421
1.345873
1.557469
1.681447
1.753569
1.837611
2.147555
2.174973
2.474785
2.745986
5.972981
20.628572
87.373853
194.107890
450.567007
722.720623
1016.031504
1016.031504
1016.031504
1016.031504
1016.031504
1016.031504
998.899937
726.410747
387.055874
212.378502
76.814890
34.269691
23.125410
29.806495
45.994520
62.100887
89.019537
104.189515
123.253465
131.492615
128.279924
116.689801
95.347762
78.573823
56.153536
40.070415
23.798943
16.787648
11.611581
9.347796
8.373857
8.126497
8.176565
8.470416
8.656979
9.045601
9.498000
9.682775
10.049939
9.915829
9.757876
10.238886
9.727478
9.432435
9.465814
9.245872
9.017587
8.939505
8.552670
8.859634
8.945465
8.907914
8.696914
8.703470
8.796453
8.982420
8.947849
8.602738
8.733869
8.201599
8.441806
##ZVALUE=300
0.918508
0.864863
0.935793
0.958443
1.029968
0.861883
0.938773
0.843406
1.044869
0.953674
1.042485
0.964999
1.121759
1.002550
1.142621
0.995994
1.218915
0.960827
1.211762
1.114607
1.371503
1.212955
1.497865
1.582503
1.449585
1.465678
1.611710
1.640916
1.932979
2.231598
2.586842
2.939701
10.679960
39.329529
138.903856
281.467438
594.836473
911.448002
1016.032696
1016.032696
1016.032696
1016.032696
1016.032696
1016.032696
897.520781
594.476461
301.309824
157.801509
53.675771
24.093986
18.951893
25.270581
41.462779
55.975914
78.987479
97.256899
115.851760
123.721957
121.386647
114.629865
95.234513
77.487826
53.911805
40.040612
24.841428
17.751455
11.642575
9.246469
8.175969
8.654594
8.775592
8.593798
9.322762
9.587407
9.707808
9.196997
9.126663
8.812547
9.133816
8.831620
8.930564
8.774996
8.059740
8.846521
8.452535
8.496642
8.463860
8.603930
8.505583
8.468628
8.420944
8.443594
8.306503
8.200407
8.091927
8.224845
##ZVALUE=305
0.741482
0.678897
0.820756
0.908971
0.886917
0.783801
1.005530
0.963807
0.940561
0.934601
0.903606
0.760555
0.999570
1.029968
0.995994
0.826716
1.030564
1.062751
1.064539
1.196861
1.212955
1.152754
1.194477
1.361966
1.489520
1.662970
1.411438
1.642704
1.741648
1.918674
1.886487
2.090931
2.305508
2.775788
4.367828
26.394725
76.033473
230.797529
427.553654
802.841783
1016.031504
1016.031504
1016.031504
1016.031504
1016.031504
1016.031504
1016.032100
752.304792
480.428934
218.156576
102.831721
30.941963
15.874505
17.874837
24.574995
39.084554
53.371787
75.319409
91.866851
110.244751
117.032528
115.321875
107.123852
91.209412
74.049830
52.073002
38.392544
24.250746
16.807914
11.379719
10.068417
9.121895
9.063482
9.287596
9.077787
8.798838
8.577704
8.654594
8.258820
8.329749
8.489490
8.535981
8.357763
8.500814
8.442998
8.428693
8.641481
8.096695
8.404851
8.227825
8.103848
8.064508
7.725954
8.028746
8.035898
7.902980
##ZVALUE=310
0.688434
0.667572
0.799894
0.862479
0.701547
0.720620
0.796914
0.775456
0.890493
0.846982
0.818968
0.898838
0.966787
0.967979
0.940561
0.826716
0.934601
1.102686
1.018643
1.112819
1.082420
1.073480
1.040697
1.251698
1.088977
1.177788
1.189709
1.207590
1.361966
1.550913
1.576543
1.897812
1.914501
1.910925
2.281666
2.332926
3.071427
11.123419
38.594007
140.957832
293.002725
630.849600
966.022611
1016.031504
1016.031504
1016.031504
1016.031504
1016.031504
1016.031504
995.146632
710.446835
367.708802
197.171569
66.497922
23.325682
12.792945
15.409589
22.808909
32.099485
49.714446
65.230727
86.028576
99.519491
109.810829
110.701919
101.687908
90.046525
70.763826
54.583549
36.126971
26.844740
17.541647
13.002753
10.188818
8.849502
8.531809
8.043647
8.185506
7.729530
8.116961
7.811785
7.912517
8.027554
8.134842
8.111596
7.954836
8.020997
8.183718
8.049607
8.025765
8.063912
8.041859
8.121729
7.907748
7.982850
7.852912
##ZVALUE=315
0.850558
0.643730
0.763535
0.915527
0.794530
0.643730
0.874996
0.699759
0.649691
0.571609
0.768900
0.901818
0.860691
0.944734
1.060963
0.966787
0.856519
0.913739
0.940561
0.999570
0.811815
1.115799
1.038909
1.112819
1.279712
1.237988
1.178980
1.171827
1.385808
1.307726
1.468658
1.631975
1.587868
1.701713
1.691580
1.974702
2.118945
2.298951
2.964735
5.490780
19.801855
85.797906
196.373463
468.505621
785.149932
1016.031504
1016.031504
1016.031504
1016.031504
1016.031504
1016.031504
1016.031504
853.177905
487.603545
283.088684
110.906959
43.972731
13.593435
11.319518
14.328957
19.493699
31.839609
43.637753
62.240958
78.506470
95.065832
102.821589
103.488564
97.850561
82.731843
69.044828
51.441789
38.118958
24.634600
17.922521
11.895895
9.650588
8.330941
8.087754
8.010864
7.618666
7.762909
7.656813
7.906556
7.870793
8.019805
8.124709
8.039474
7.996559
7.906556
8.044839
8.003712
7.920861
7.831454
7.613897
7.471442
##ZVALUE=320
0.866652
0.674725
0.741482
0.823736
0.848770
0.664592
0.811815
0.737906
0.765920
0.607967
0.802875
0.581741
0.860691
0.782609
0.782609
0.850558
0.857711
0.824928
0.819564
0.847578
0.835657
1.049638
1.034737
1.011491
1.203418
1.052618
1.071692
0.985861
1.318455
1.317859
1.246929
1.547933
1.291633
1.433492
1.599789
1.631975
1.930594
2.088547
2.007484
2.359748
2.507567
3.250837
8.993745
46.534538
124.604702
341.735482
586.989522
991.092920
1016.033888
1016.033888
1016.033888
1016.033888
1016.033888
1016.033888
1008.114815
593.627691
345.278978
153.288841
70.094466
19.526482
10.620952
10.756850
12.950897
18.294454
26.365519
41.974783
55.791736
73.710680
86.899996
99.023581
99.074841
93.393922
82.669854
64.702630
50.169826
34.196973
24.358630
15.954971
12.063980
9.274483
8.436441
7.730722
7.709861
7.536411
7.826686
7.549524
8.296967
7.502437
7.900596
7.831454
7.698536
7.591844
7.715821
7.510781
7.809997
7.561445
##ZVALUE=325
0.641942
0.626445
0.577569
0.675917
0.681877
0.770688
0.544786
0.718832
0.688434
0.659823
0.657439
0.768900
0.866652
0.776649
0.734925
0.671744
0.757575
0.612736
0.800490
0.827909
0.891685
0.892878
0.830889
0.840425
1.012683
0.972748
1.029968
0.963807
1.199841
0.955462
1.129508
1.151562
1.346469
1.256466
1.143813
1.320839
1.410842
1.553893
1.486540
1.581907
1.878738
2.088547
2.287626
2.830625
4.985929
29.319525
80.922842
231.798887
430.391431
826.140642
1016.031504
1016.031504
1016.031504
1016.031504
1016.031504
1016.031504
1016.031504
666.285753
398.982763
173.787475
80.339909
23.648739
11.096597
8.721948
9.083748
12.272596
16.836524
26.731491
38.316846
55.768490
69.669485
84.700584
91.823936
93.679428
87.276697
74.428916
61.650872
45.574903
33.718944
21.064878
15.239716
10.975599
8.831620
7.927418
7.527471
7.525682
7.586479
7.174611
7.596612
7.467866
7.514954
7.315874
7.271767
7.584691
7.273555
7.123947
##ZVALUE=330
0.586510
0.657439
0.602603
0.753999
0.703931
0.635982
0.729561
0.573993
0.705719
0.653863
0.744462
0.692606
0.710487
0.757575
0.722408
0.735521
0.680685
0.791550
0.772476
0.808835
0.878572
0.842810
0.657439
0.780821
0.859499
0.769496
0.993609
0.795722
1.015663
0.906587
1.003742
1.019835
1.039505
1.102686
1.156926
1.072884
1.146793
1.234412
1.379848
1.439452
1.371503
1.642704
1.824498
1.921654
1.953840
2.452731
2.820492
13.422966
44.006705
149.264932
293.195844
607.686639
916.806459
1016.031504
1016.031504
1016.031504
1016.031504
1016.031504
1016.031504
773.260593
499.231815
234.249830
117.446780
38.852692
14.456511
8.376837
8.058548
8.810759
11.360645
17.258525
24.372935
37.227869
49.969554
68.252683
78.052878
86.363554
86.402893
81.074834
71.517825
56.216717
32.090545
23.433566
21.405816
15.026927
11.580586
8.960962
7.816553
7.662773
7.325411
7.079840
7.175803
6.993413
7.267594
7.006526
7.087588
7.313490
##ZVALUE=335
0.525713
0.528693
0.494719
0.785589
0.643730
0.672936
0.662804
0.636578
0.574589
0.588894
0.635982
0.559688
0.757575
0.684857
0.643730
0.949502
0.786781
0.733733
0.786781
0.648499
0.672936
0.749826
0.813603
0.662804
0.812411
0.729561
0.827909
0.819564
0.858903
0.999570
0.970960
0.894666
0.953674
1.032948
1.191497
1.127720
1.152754
1.166463
1.318455
1.176000
1.324415
1.358986
1.412630
1.330972
1.481771
1.684427
1.939535
1.998544
2.637506
4.801750
28.606653
78.953505
226.818919
414.818525
792.531967
1016.032696
1016.032696
1016.032696
1016.032696
1016.032696
1016.032696
962.322950
565.377474
346.955657
152.937770
68.292618
19.627810
9.428859
8.009672
8.072853
9.098649
11.299849
16.657710
23.217797
35.633445
46.582818
60.835481
72.456002
80.096722
81.150532
75.525641
67.237616
53.927898
43.322444
30.597448
22.844672
15.122890
11.746883
8.953810
7.842779
7.159710
7.004738
6.918907
6.941557
7.006526
6.880760
##ZVALUE=340
0.445843
0.538826
0.542998
0.702739
0.665784
0.702739
0.603795
0.647902
0.639558
0.531673
0.475645
0.469685
0.604987
0.679493
0.590682
0.717640
0.685453
0.740886
0.624657
0.690818
0.874996
0.600815
0.788569
0.756979
0.696778
0.829697
0.814795
0.823736
0.801682
0.906587
0.891685
0.883937
0.797510
0.883937
1.039505
1.055598
1.028776
0.999570
1.098514
1.205802
1.154542
1.230836
1.216531
1.433492
1.451969
1.502633
1.737475
1.797676
1.884699
2.010465
2.197623
3.510714
11.464953
58.421493
144.875646
367.411375
621.177554
995.388627
1016.048789
1016.048789
1016.048789
1016.048789
1016.048789
994.862914
707.421899
365.603566
199.158788
78.230500
30.357838
10.256767
8.313656
7.946491
7.985830
9.003878
10.744929
15.943646
22.389889
33.639669
45.186877
59.109926
67.736506
75.648427
75.864792
71.363449
64.850450
51.910877
41.677952
29.679537
22.090673
15.078783
11.209846
8.530617
7.574558
6.956458
6.694794
6.520748
##ZVALUE=345
0.562668
0.542998
0.604987
0.574589
0.631809
0.682473
0.609756
0.663996
0.522733
0.681877
0.608563
0.616908
0.591874
0.597835
0.694990
0.532866
0.603795
0.533462
0.453591
0.769496
0.726581
0.828505
0.913739
0.779629
0.855923
0.672936
0.611544
0.742674
0.707507
0.686646
0.903606
0.694990
0.805855
0.891685
0.880957
0.882745
0.979900
0.902414
0.986457
1.311898
1.108646
0.935793
1.204610
1.167655
1.057982
1.223683
1.355410
1.288652
1.555681
1.618862
1.813769
1.834631
1.922846
2.395511
5.161762
35.535693
98.424554
264.315009
475.111604
858.782530
1016.031504
1016.031504
1016.031504
1016.031504
1016.031504
1016.031504
872.436762
518.460870
297.194719
118.197799
50.525665
15.422702
8.804798
7.997751
7.766485
7.430911
7.872581
10.099411
13.427734
21.426678
29.994845
42.874813
52.348971
62.182546
68.009496
70.376992
67.532659
59.635639
51.334500
39.646626
30.442476
20.724535
15.432835
10.462999
8.446574
7.212758
##ZVALUE=350
0.557899
0.453591
0.560880
0.512600
0.589490
0.544786
0.552535
0.653863
0.548959
0.584722
0.559688
0.480413
0.574589
0.549555
0.533462
0.520945
0.556707
0.639558
0.589490
0.471473
0.573993
0.616908
0.766516
0.781417
0.814795
0.475645
0.809431
0.717640
0.681877
0.801682
0.785589
0.873804
0.740886
0.749826
0.831485
0.799894
0.858903
0.878572
0.888705
0.921488
0.844598
1.018643
0.984669
1.004934
1.158714
1.161695
1.151562
1.339912
1.280904
1.452565
1.471639
1.491904
1.622438
1.793504
2.139807
2.246499
3.175735
16.068816
54.899454
173.952579
334.757566
675.399899
979.709625
1016.031504
1016.031504
1016.031504
1016.031504
1016.031504
991.856456
590.419769
354.803801
159.657598
72.558522
19.906759
9.515882
7.511973
7.239580
6.870627
6.669760
7.353425
8.750558
13.360977
18.304586
27.668476
35.763979
46.590567
55.216551
62.429905
64.420700
62.046647
56.897998
46.520829
37.875772
26.882887
20.691752
14.361739
##ZVALUE=355
0.546575
0.589490
0.459552
0.642538
0.445843
0.426769
0.579953
0.550747
0.654459
0.598431
0.663996
0.564456
0.642538
0.772476
0.765920
0.592470
0.662804
0.679493
0.690818
0.679493
0.645518
0.677705
0.638962
0.643730
0.841618
0.591874
0.766516
0.771880
0.810623
0.786781
0.883937
0.813603
0.638962
0.877976
0.810623
0.761747
0.862479
0.842810
0.941753
1.022816
1.030564
0.998974
0.952482
0.936985
0.896454
1.130700
1.057982
1.317859
1.366735
1.229644
1.308918
1.297593
1.440644
1.580715
1.601577
1.806617
2.109408
2.148747
2.581477
8.228421
30.555725
117.750764
242.529511
522.563457
829.854608
1016.032696
1016.032696
1016.032696
1016.032696
1016.032696
1016.032696
738.552809
451.668501
196.218491
93.601942
28.107762
11.530519
7.326603
7.043481
6.597638
6.426573
6.436706
6.724596
8.388758
11.025667
16.422868
22.047758
32.300949
39.441586
49.171448
55.881739
57.925582
57.277679
51.574707
45.631528
35.743713
##ZVALUE=360
0.646710
0.620484
0.482798
0.626445
0.526905
0.641942
0.700951
0.746846
0.628829
0.481606
0.630617
0.512600
0.538826
0.640750
0.635982
0.674725
0.527501
0.803471
0.486970
0.631809
0.601411
0.781417
0.681877
0.636578
0.739694
0.641942
0.744462
0.827909
0.794530
0.715852
0.650883
0.819564
0.729561
0.948906
0.795722
0.823736
0.813603
0.834465
0.880957
0.977516
0.923872
0.869632
0.967979
1.027584
1.043677
0.964999
1.119971
1.205802
1.187921
1.161695
1.362562
1.399517
1.422763
1.483560
1.754761
1.565814
1.832843
1.863837
2.026558
2.332926
2.717972
4.263520
14.376640
68.305731
163.663626
411.793590
683.859587
1016.031504
1016.031504
1016.031504
1016.031504
1016.031504
1016.031504
879.895687
573.984981
272.205472
137.525797
48.339963
17.942786
7.678866
6.551743
6.264448
6.073713
5.880594
5.985498
6.236434
7.179976
9.353757
12.565851
18.705726
25.346875
35.317540
42.000413
49.344897
52.097440
52.510500
##ZVALUE=365
0.563860
0.429749
0.578761
0.488758
0.561476
0.509620
0.684857
0.600815
0.650883
0.645518
0.661612
0.675917
0.651479
0.796914
0.567436
0.773668
0.649691
0.553727
0.682473
0.740886
0.677705
0.811815
0.871420
0.581741
0.678897
0.636578
0.615716
0.736713
0.725985
0.877976
0.857711
0.775456
0.786781
0.843406
0.661612
0.887513
0.850558
0.753999
0.878572
0.928640
1.014471
0.926852
1.016855
0.957847
0.920892
0.960827
0.990629
1.046658
1.194477
1.088977
1.221895
1.108646
1.197457
1.071692
1.248717
1.371503
1.668930
1.433492
1.692772
1.781583
1.976490
2.260804
2.365708
2.775788
6.055832
36.607981
100.749731
261.822939
474.833846
865.783691
1016.031504
1016.031504
1016.031504
1016.031504
1016.031504
1005.511880
739.822984
387.368798
205.783844
71.915984
27.241707
8.587837
6.551743
5.913973
5.541444
5.480647
5.378723
5.199909
5.199909
5.832911
7.576942
11.093616
15.247464
22.561550
29.226542
37.193894
##ZVALUE=370
0.501871
0.495911
0.661612
0.501871
0.582933
0.318885
0.572801
0.572801
0.489950
0.548959
0.628829
0.643730
0.546575
0.591874
0.621676
0.506639
0.649691
0.611544
0.633597
0.593662
0.545979
0.701547
0.590682
0.665784
0.539422
0.659823
0.558496
0.729561
0.767708
0.705719
0.636578
0.669956
0.723600
0.643730
0.805855
0.873804
0.812411
0.703931
0.788569
0.817776
0.596642
0.803471
0.721812
0.978708
0.875592
0.954866
0.894666
0.932813
1.013875
0.929832
0.984669
1.046658
1.267791
1.089573
1.098514
1.223683
1.213551
1.228452
1.234412
1.653433
1.562834
1.554489
1.617670
1.937747
2.092719
2.418756
3.579855
16.848445
58.211684
195.009708
366.014838
705.289841
992.608666
1016.031504
1016.031504
1016.031504
1016.031504
1016.031504
850.304961
464.046597
258.566737
98.752975
43.912530
13.920665
6.736517
5.545616
5.186796
4.947782
4.864931
4.733801
4.643798
4.779696
5.316734
6.536841
9.040833
13.762712
##ZVALUE=375
0.333786
0.589490
0.622869
0.696778
0.581741
0.537634
0.618696
0.668764
0.584722
0.697970
0.523925
0.591874
0.569820
0.724792
0.575781
0.482798
0.633597
0.673532
0.475645
0.700951
0.692606
0.624657
0.703931
0.742674
0.640750
0.759959
0.661612
0.675917
0.780821
0.688434
0.614524
0.649691
0.798702
0.928640
0.910759
0.680685
0.779629
0.736713
0.665784
0.846982
0.854731
0.886917
0.800490
0.829697
0.991821
0.954866
0.940561
0.851750
0.700951
0.883937
0.703931
0.983477
0.987649
0.938773
0.933409
0.955462
0.935793
1.096725
1.102686
1.220703
1.359582
1.361966
1.426935
1.438856
1.704693
1.636744
1.979470
2.415776
2.527833
8.386970
29.969811
111.651421
246.375799
544.644594
849.141479
1016.099453
1016.099453
1016.099453
1016.099453
1016.099453
995.583534
618.742704
388.461947
187.630653
90.476871
25.941730
9.880662
5.491972
5.220771
4.872680
4.563928
4.284978
4.404783
4.062653
4.234910
4.507899
##ZVALUE=380
0.571609
0.551939
0.457764
0.475645
0.532866
0.443459
0.429749
0.332594
0.464916
0.489950
0.576973
0.575781
0.627637
0.551939
0.376701
0.526905
0.450611
0.696778
0.416636
0.730753
0.537634
0.523925
0.590682
0.470877
0.634789
0.642538
0.462532
0.584722
0.652671
0.520945
0.603795
0.679493
0.510812
0.611544
0.538826
0.715852
0.606775
0.628829
0.567436
0.589490
0.652671
0.776649
0.711679
0.631809
0.573993
0.700951
0.709891
0.871420
0.703931
0.826716
0.816584
0.608563
0.867844
0.841618
0.873804
1.002550
0.883937
0.917912
0.993609
1.166463
1.122952
0.979900
1.136661
1.089573
1.169443
1.343489
1.463890
1.706481
1.997948
2.245903
2.556443
4.748702
18.826723
86.897612
196.350813
447.250605
716.114640
1016.032696
1016.032696
1016.032696
1016.032696
1016.032696
1016.032696
885.325670
582.515597
277.346969
136.940479
44.339895
16.245842
6.065965
4.797578
4.660487
4.422665
4.334450
4.255772
3.952980
##ZVALUE=385
0.521541
0.349879
0.289679
0.502467
0.469685
0.372529
0.355840
0.442863
0.389814
0.584722
0.561476
0.507832
0.340939
0.444651
0.520945
0.539422
0.494719
0.549555
0.524521
0.472665
0.440478
0.355840
0.341535
0.291467
0.459552
0.551939
0.515580
0.431538
0.669956
0.630617
0.535846
0.608563
0.665784
0.474453
0.657439
0.646710
0.721812
0.528693
0.503659
0.513792
0.546575
0.700951
0.580549
0.609756
0.655651
0.457764
0.517964
0.642538
0.550747
0.741482
0.655651
0.754595
0.797510
0.737906
0.689626
0.810623
0.865459
0.802875
0.867844
1.085997
1.055598
1.078844
1.030564
1.025796
1.320839
1.233816
1.292825
1.591444
1.639724
1.793504
2.037883
2.289414
2.512932
3.003478
9.899735
58.680773
144.670010
348.767638
592.220426
976.218581
1016.031504
1016.031504
1016.031504
1016.031504
1016.031504
995.317101
730.936527
404.467583
232.436657
91.088414
33.857822
8.300543
4.950762
4.361868
4.294515
4.055500
##ZVALUE=390
0.411868
0.471473
0.455976
0.400543
0.382662
0.516772
0.410676
0.416636
0.376701
0.422597
0.302792
0.522733
0.330806
0.387430
0.550747
0.557899
0.459552
0.446439
0.426769
0.354648
0.453591
0.474453
0.516772
0.528693
0.455976
0.446439
0.488758
0.482798
0.422597
0.553727
0.593662
0.648499
0.589490
0.569820
0.648499
0.506639
0.498891
0.646710
0.676513
0.623465
0.623465
0.632405
0.576973
0.627637
0.675917
0.672936
0.621676
0.674725
0.818968
0.703931
0.768900
0.690818
0.649691
0.775456
0.599623
0.790954
0.733733
0.740886
0.949502
0.997782
1.006722
1.003742
0.906587
1.008511
1.126528
1.146793
1.133680
1.416802
1.588464
1.724958
1.641512
1.950860
2.033710
2.092719
2.290606
2.456903
4.786849
22.766590
110.027790
246.519446
549.566746
835.443735
1016.032696
1016.032696
1016.032696
1016.032696
1016.032696
1016.032696
868.874788
593.682528
307.721496
157.048702
50.918460
17.661452
5.489588
4.657507
##ZVALUE=395
0.412464
0.366569
0.470877
0.587702
0.425577
0.486970
0.433922
0.379682
0.373721
0.437498
0.529885
0.518560
0.442863
0.530481
0.514984
0.543594
0.448823
0.515580
0.469685
0.559688
0.508428
0.579953
0.445843
0.637770
0.489950
0.525713
0.519753
0.492930
0.506639
0.543594
0.562668
0.572801
0.674725
0.549555
0.575781
0.424981
0.414848
0.607967
0.527501
0.587702
0.684857
0.609756
0.516772
0.718832
0.580549
0.502467
0.646710
0.594854
0.625849
0.559688
0.751615
0.744462
0.744462
0.703931
0.852942
0.833869
0.948906
0.867844
0.773668
0.798702
0.870824
0.899434
0.824928
1.053810
1.039505
1.124740
1.240969
1.330972
1.547933
1.472831
1.609921
1.723766
1.767874
1.952648
1.919866
2.030730
2.032518
2.379417
2.733469
12.720823
50.915480
185.383558
358.634591
683.301687
984.544754
1016.031504
1016.031504
1016.031504
1016.031504
1016.031504
1016.031504
738.408566
473.874807
222.378969
102.528930
29.766560
##ZVALUE=400
0.524521
0.534654
0.451803
0.440478
0.458956
0.487566
0.414848
0.291467
0.406504
0.439882
0.461936
0.510812
0.495911
0.272989
0.420809
0.508428
0.584722
0.345707
0.493526
0.701547
0.462532
0.507832
0.539422
0.529885
0.429749
0.415444
0.491738
0.384450
0.472665
0.364780
0.407696
0.441670
0.521541
0.614524
0.667572
0.546575
0.631809
0.433922
0.603795
0.556707
0.582933
0.671744
0.752807
0.618696
0.586510
0.593662
0.740886
0.805855
0.574589
0.542998
0.738502
0.616908
0.726581
0.775456
0.710487
0.838637
0.774860
0.785589
0.773668
0.761747
0.865459
0.810623
0.820756
0.922680
1.255870
1.036525
1.229644
1.298785
1.438856
1.572967
1.532435
1.575947
1.585484
1.624823
1.718998
1.533628
1.729727
1.965761
2.028942
2.323985
2.491474
6.593466
25.236607
106.079578
230.117440
518.899560
825.837851
1016.039848
1016.039848
1016.039848
1016.039848
1016.039848
1016.039848
871.519446
579.567552
291.643739
##END
