##TITLE=FKDZ0151
##FORMAT=SPECTACLE-ASCII V-1.2
##DATA TYPE=ULTRAVIOLET SPECTRUM
##SECOND TYPE=ULTRAVIOLET SPECTRUM
##DATE=04/30/18
##TIME=12:32:35
##SPECTROMETER/DATA SYSTEM=SPECTACLE
##XUNITS=NM EM
##YUNITS=ENERGY
##YFACTOR=1
##FIRSTX=220
##LASTX=410
##NPOINTS=96
##3DDATA=Equidistant
##ZUNITS=NM EX
##FIRSTZ=210
##LASTZ=400
##ZPOINTS=39
##XYDATA=(Y..Y)
##ZVALUE=210
2.986789
2.709627
3.038645
2.570748
2.925992
2.589822
3.031492
2.650619
3.677607
2.563000
2.290606
2.740622
2.431870
2.286434
2.125502
2.325773
2.618432
2.535582
2.100468
2.713799
2.927780
2.413988
3.367662
3.744960
2.981424
3.052950
3.110766
3.893971
4.737973
4.222989
4.731417
4.231930
5.560517
6.123781
4.795790
4.895926
5.368590
4.591942
5.027652
4.746914
5.075932
4.835725
5.359650
5.385876
4.610419
5.390644
4.289746
5.432963
4.617572
4.694462
4.471540
4.585981
4.694462
4.783869
4.149675
4.452467
4.273653
3.428459
4.451871
4.472733
4.408956
4.205704
4.746914
4.290938
4.449487
4.087687
4.566908
5.395412
5.320907
6.400943
7.273555
7.713437
8.285642
10.253787
10.072589
11.772513
10.198951
10.835528
10.312796
8.911490
8.709431
8.701682
6.721616
7.299781
5.458593
4.650950
4.597902
3.870726
3.882647
4.400611
3.950596
4.171729
4.265904
4.202724
4.212856
4.343987
##ZVALUE=215
8.283854
8.383989
7.152557
5.633831
5.272627
5.431771
4.316568
6.735921
5.579591
5.639791
5.906820
4.681945
4.447699
3.858805
3.022552
2.641678
2.190471
2.252460
2.101660
2.649426
2.446771
2.956986
2.606511
3.237724
3.444552
3.957748
3.908873
4.233718
4.541874
5.470514
6.128550
5.853772
6.388426
7.252693
7.044673
7.679462
7.275939
7.013679
6.632805
6.399751
6.190538
6.315708
6.082654
6.013513
5.830526
5.416870
6.170869
5.756617
5.470514
4.986525
5.322695
5.504489
5.179644
4.946589
4.193783
5.081892
4.628897
5.001426
4.965663
4.698634
5.176663
4.649758
4.252791
4.819632
4.739761
4.661679
6.038547
4.945993
5.710721
5.830526
6.576777
7.464886
7.877946
8.547902
9.469986
9.743571
9.589791
10.001659
9.239912
8.959770
8.176565
7.468462
6.570816
6.048679
5.653501
5.063415
4.215837
4.223585
3.748536
4.591942
3.797412
4.010797
2.988577
3.428459
4.556775
3.854632
##ZVALUE=220
23.460984
26.151538
24.562478
24.445653
22.100806
20.447969
14.619827
12.720823
10.904670
12.391806
13.253689
13.787746
13.104677
10.538697
10.080934
7.516742
5.615950
3.966689
3.310442
3.305674
3.275871
4.280806
3.490448
3.929734
4.059672
4.271865
5.371571
5.536675
6.388426
7.771850
7.423759
8.912683
10.476708
10.297894
9.911656
11.331439
9.645820
10.130405
10.320544
7.816553
9.841919
8.685589
8.467436
7.858872
8.179545
7.341504
6.797910
6.568432
7.054806
6.399751
6.271601
6.088614
6.415844
5.437732
5.463958
5.543828
5.601645
5.461574
6.262660
4.779696
4.513860
5.380511
5.539656
4.971623
5.213618
4.870892
5.665421
5.386472
6.244779
6.538630
7.047653
8.116961
8.088946
9.171963
9.087920
11.052489
10.125637
9.747744
8.289814
8.774996
9.172559
7.205606
7.244945
6.363988
6.170869
5.380511
4.711747
4.801750
4.450679
3.950000
4.850626
4.072785
4.074574
3.921986
3.277659
4.151464
##ZVALUE=225
40.440559
44.797659
57.051778
65.753460
67.488551
66.631436
60.151815
49.844980
39.097667
28.840899
25.618672
21.471977
24.117827
26.593804
26.632547
26.180744
21.111965
17.089844
11.991858
8.845925
5.364418
4.166961
4.155636
3.923774
4.268885
5.206466
5.614758
5.759597
8.151531
9.196997
9.410977
10.547638
11.411905
10.905862
12.336969
12.035966
11.276603
11.903644
11.997819
10.443926
10.941625
10.224581
10.122657
9.280443
9.010434
9.439588
9.292960
9.198785
7.868409
7.609725
7.283688
6.397963
6.895661
7.279515
6.420612
6.179810
6.370544
6.045699
6.135702
5.724430
5.594492
6.206632
5.713701
6.468892
5.177855
5.739927
6.000996
6.641746
6.920695
7.082820
8.906722
8.210540
9.237528
9.721518
9.536743
10.714531
9.609461
9.783506
9.176731
9.374619
8.522868
7.645488
7.551908
6.692410
6.415844
5.557537
5.605817
5.786419
5.676746
5.728602
4.844666
5.183816
5.280972
4.675984
5.430579
5.139709
##ZVALUE=230
36.222935
40.202737
55.867434
90.417862
115.095973
145.829916
151.465535
155.323744
143.173933
118.037462
86.840987
61.804652
47.837496
43.408871
41.652918
49.760938
47.766566
48.824549
43.089986
33.186674
28.809905
16.667843
11.384487
8.031726
5.787611
4.823804
5.820990
7.237792
8.098483
8.425713
9.269714
10.716915
10.426641
11.495948
12.094975
11.450648
11.379719
11.057854
11.033416
11.106730
10.415912
9.932518
9.913445
10.346770
10.213852
8.648634
8.496642
8.074641
7.907748
8.076429
7.516742
7.530451
8.033514
7.299781
7.403493
7.079840
6.918907
6.166697
6.837845
7.389784
7.031560
6.860495
6.286502
7.671714
8.384585
7.239580
7.440448
6.905794
8.317828
9.176731
9.600520
9.596944
10.356903
11.922717
11.877418
10.514855
11.317730
10.608435
11.918545
10.006428
9.610653
9.467602
8.843541
7.886887
8.230805
7.684827
7.696748
7.442832
7.450581
6.535649
6.488562
6.280541
6.083846
6.543994
5.691648
6.765723
##ZVALUE=235
12.464523
13.841987
26.312470
66.201687
101.891756
165.135860
209.612846
266.442895
295.376778
295.444727
263.133645
210.477710
160.319805
106.789470
87.456703
72.720647
67.516565
73.778629
79.391599
79.396963
75.210929
65.365434
45.166612
34.920573
21.533966
15.779734
9.569526
7.376671
6.780624
6.971955
6.687641
8.163452
8.410811
8.593798
10.145903
9.043813
9.549856
8.372664
9.736419
8.521676
8.382797
9.488463
8.757710
8.748770
8.047819
8.679628
8.171797
7.945895
8.648634
8.729696
7.850528
8.683801
7.771850
7.575750
8.213520
7.537603
7.895827
7.425547
7.807612
7.912517
7.861853
7.362962
8.301735
8.273721
7.842779
7.600784
8.874536
8.191466
9.473562
9.876490
10.538697
11.035800
12.092590
13.525486
12.352467
13.937950
12.279749
12.015700
12.031794
12.555718
11.726618
10.587573
10.301471
10.147691
8.866787
8.478761
8.029938
9.203553
8.533597
7.514954
8.033514
8.068681
8.475780
7.890463
7.441640
6.686449
##ZVALUE=240
2.484918
2.244711
4.988909
16.698837
36.912560
83.758831
139.834881
241.303444
328.737497
397.830606
464.638472
465.166569
423.422456
357.213616
261.108875
183.393955
123.324990
96.112490
87.271929
97.826719
107.207894
111.640692
109.192729
99.896789
82.142949
59.302449
45.008659
28.351545
20.622611
11.331439
8.854866
8.616447
8.014441
8.451939
9.392500
7.706881
8.617640
8.679628
8.675456
8.579493
8.635521
9.056926
8.105636
10.426641
9.080768
9.054542
8.865595
8.899570
8.459687
8.801818
8.133650
8.471608
7.945895
8.101463
8.501410
8.350611
8.212924
7.816553
7.264614
8.394718
7.603765
7.204413
9.052753
8.688569
7.931590
9.257793
9.778738
8.808970
8.988976
10.279417
10.890961
13.041496
12.978911
14.302731
12.458563
14.768839
13.507605
13.816953
13.596416
13.731718
13.089776
11.271834
11.603832
11.657476
10.794997
10.720491
9.477735
10.571480
9.293556
9.813905
9.500980
10.043979
9.056926
10.038614
9.578466
9.775758
##ZVALUE=245
1.678467
1.411438
1.307726
2.240539
3.051758
12.514591
30.757785
78.015924
139.471889
254.101753
356.583595
452.226996
540.863872
567.572713
534.280539
468.919873
346.922874
261.378884
168.927908
120.820999
94.956756
95.591545
106.035471
121.636987
127.065778
121.714473
110.576749
89.492798
73.274970
48.731565
34.324527
20.557642
12.693405
9.125471
9.420514
8.628964
8.672476
8.612871
9.428859
9.462833
9.461641
9.319782
9.954572
8.552670
9.870529
8.542538
8.338690
9.249449
8.561611
8.179545
8.057952
7.859468
7.943511
8.381605
7.862449
6.826520
7.429719
7.762909
7.510781
7.062554
7.398725
7.572770
7.913709
7.459521
7.916689
7.428527
8.466840
8.535981
8.893609
8.811951
10.126829
10.285974
11.304617
12.424588
12.034774
13.284683
11.269450
12.305975
11.868477
11.036992
11.061430
11.750460
10.780692
10.311604
9.520650
9.770989
9.125471
9.543896
9.886622
8.715987
9.622574
9.919405
8.997917
9.268522
8.902550
9.081960
##ZVALUE=250
1.417994
1.449585
1.382828
1.520514
1.576543
1.615882
2.134442
6.349683
27.644634
56.948662
141.857862
226.882696
335.315466
479.929447
568.251014
637.902021
635.938644
574.897528
490.061641
341.412425
234.362483
159.732699
102.827549
89.307427
98.079443
112.783909
129.933953
132.645965
130.268931
118.778944
103.137493
77.215433
59.700608
35.533905
25.844574
15.910864
12.537837
10.734797
9.088516
8.513927
9.573698
10.143518
10.028481
9.638667
9.909868
9.219646
8.600950
8.768439
8.983612
7.532835
8.257627
8.164644
8.380413
7.507801
8.366704
7.238984
7.236600
6.803870
5.973577
6.926656
6.648898
6.836653
6.381869
6.946921
6.525517
6.250739
7.058978
7.215738
7.832646
8.285642
7.814765
9.342432
9.521842
11.518598
10.484457
10.444522
10.892749
10.832548
10.580420
9.581447
9.474754
9.522438
9.769797
9.589791
9.288788
9.109974
9.248853
9.066463
9.049773
8.166432
8.504987
8.217692
8.328557
8.909702
8.698702
8.675456
##ZVALUE=255
1.101494
1.039505
1.229644
1.467466
1.431704
1.149774
1.403689
1.587868
1.867414
3.446937
18.392801
44.624805
92.172623
197.359920
306.600928
467.662811
580.814481
694.461465
720.148683
681.951642
589.229465
475.253463
306.357741
197.031498
115.889907
87.636709
84.366798
98.647475
124.568939
138.252974
142.990947
141.905546
131.467581
104.693770
83.196759
58.081746
41.168928
25.395751
18.655658
13.637543
11.218786
10.876656
11.130571
10.764599
10.284781
10.444522
10.083914
9.305477
9.797812
8.102655
8.733869
8.310676
8.550882
7.747412
7.288456
6.955862
6.801486
6.894469
6.771684
6.292462
5.428791
5.675554
5.281568
6.970763
5.842447
6.106496
6.235838
6.803870
6.631613
6.480813
7.626414
7.969737
8.484721
8.689761
9.696484
9.165406
9.411573
8.269548
8.675456
8.808970
8.738637
8.472800
7.911921
8.324981
7.618666
7.953644
7.541776
7.858872
7.371902
7.576942
7.559657
7.324815
7.676482
8.021593
7.416606
7.521510
##ZVALUE=260
0.843406
0.796914
1.016855
1.183748
1.017451
1.108646
1.208782
1.324415
1.314878
1.662970
1.731515
2.485514
7.653832
31.255484
68.768859
159.230828
262.466669
426.832438
558.668971
720.767975
794.172883
801.681876
705.235600
589.445829
395.069718
277.268887
159.426928
104.828477
75.253844
82.537532
105.740428
127.619505
142.030716
154.912472
146.819949
134.716630
117.826462
85.847974
63.999891
42.631626
29.881001
20.232797
15.276670
13.094544
12.530684
10.625720
10.402799
10.456443
10.677576
8.509755
9.498596
8.988976
8.716583
7.727742
7.941723
6.877780
6.240606
6.280541
6.656647
5.933642
6.140471
5.848408
5.440712
6.149411
5.605817
6.150603
5.605817
6.572604
6.786585
6.458759
6.403923
7.360578
7.392764
7.461905
7.977486
8.250475
7.691979
7.870793
8.374453
7.382631
7.139444
7.164478
7.379651
7.006526
6.855726
6.541610
7.245541
6.862879
6.552935
7.084608
6.645918
6.849766
6.725788
7.482767
7.196665
6.922483
##ZVALUE=265
1.003742
0.892878
0.847578
0.872612
0.890493
0.963807
1.110435
0.958443
1.180768
1.475811
1.398921
1.333952
1.291633
1.547933
3.724694
20.080805
46.089888
117.981434
209.955573
388.106704
543.291569
694.886446
841.760635
877.589583
802.006721
690.535903
507.793427
367.956758
212.566853
132.756829
87.982416
71.396828
85.099936
113.492608
134.224892
153.078437
159.358978
154.100657
136.607885
111.977458
89.994669
61.338544
45.656562
27.857423
20.596981
13.746619
12.455583
11.003613
10.484457
9.223819
9.137988
9.261966
8.617640
8.128881
7.535815
7.495880
6.743670
6.511807
6.132722
5.444884
5.938411
5.905628
5.409718
5.246997
5.627871
5.405545
5.556941
5.716681
5.587935
5.998611
6.379485
6.183982
6.486773
6.935596
6.840825
6.817579
7.562637
6.835461
6.372929
6.721616
6.435513
6.813407
6.840825
6.129742
6.211996
6.259680
6.478429
6.323457
6.580949
6.087422
6.474853
6.359816
6.622672
6.201863
6.420612
6.211996
##ZVALUE=270
0.624657
0.882745
0.783801
0.784993
0.823736
0.750422
1.118779
0.969768
0.887513
0.904799
1.107454
1.077652
1.099706
1.120567
1.450777
1.613498
1.857877
9.326935
26.435852
85.884929
166.913867
281.716585
501.159430
668.825507
851.091743
917.802453
897.336602
819.320679
639.368892
492.853522
299.878716
183.464885
112.300515
65.168738
66.188574
87.846518
110.707879
136.149526
150.570869
159.576535
154.659748
136.479735
117.863417
86.615682
63.478947
39.410591
27.579665
17.977953
12.856722
10.070801
9.594560
8.361936
8.594990
8.066893
7.407665
6.986856
6.804466
6.829500
6.441474
5.675554
5.782843
6.049871
5.352497
5.081892
5.346537
5.282760
4.756451
5.189776
5.451441
5.503893
5.470514
5.904436
5.925894
6.692410
6.837845
6.622672
6.562471
6.154776
6.288886
6.049871
6.211996
6.101727
5.787611
6.153584
5.755424
5.428791
6.009936
5.588531
5.499721
5.579591
6.311536
5.178452
5.822778
5.861521
6.070733
5.735755
##ZVALUE=275
0.677705
0.470877
0.533462
0.928640
0.688434
0.710487
0.674725
0.853539
0.810623
0.947714
1.115799
1.102686
1.002550
1.146793
0.931621
1.307726
1.710653
1.433492
1.558661
4.172921
15.106797
44.669509
129.919648
241.888762
449.794531
604.640841
798.580647
912.006497
958.459973
906.670690
821.916461
592.612624
429.564714
231.251717
137.015581
69.891810
53.386688
62.357783
80.631971
109.143853
128.062963
149.077773
154.047608
149.781704
134.433508
106.489658
86.369514
58.754683
41.528940
25.979877
16.831756
10.305643
8.373857
6.932616
6.339550
6.067753
5.885959
5.728602
5.940795
5.830526
5.647540
5.168915
5.066991
5.098581
4.807711
4.780889
4.534721
4.905462
4.941821
5.266666
5.544424
5.772710
5.236864
6.781816
6.064773
6.236434
6.186962
6.008744
6.059408
5.610585
5.742908
5.528927
5.660653
5.526543
5.530715
5.517602
5.109906
4.886985
5.285740
5.580783
5.402565
5.192757
4.935861
5.980730
4.915595
5.349517
##ZVALUE=280
0.708699
0.657439
0.693798
0.725985
0.729561
0.475645
0.636578
0.600815
0.749826
0.770688
0.813603
0.839829
0.805855
0.969768
0.824928
0.883937
1.043677
1.152754
1.340508
1.003742
1.346469
1.905560
9.913445
33.761859
102.063417
188.364983
352.674723
519.745946
738.603473
870.502591
953.102708
956.818461
864.996910
666.320920
492.529869
281.629562
170.350671
79.068542
47.593713
42.692423
54.858923
79.338551
100.375414
127.655864
139.834881
147.719979
143.071413
126.013756
107.530951
77.938437
58.433414
37.036538
25.293827
14.455914
9.222627
6.784797
5.405545
5.312562
4.924536
5.011559
4.765987
4.637837
5.054474
5.028844
4.718900
4.614592
4.481673
4.327893
5.132556
4.847646
5.658865
5.602837
5.722642
5.862713
5.643964
5.762577
5.823970
5.533695
5.743504
5.355477
5.202889
5.392432
4.905462
5.142689
4.874468
4.838705
5.026460
4.872680
4.878640
4.932880
5.233884
5.219579
4.841685
4.815459
4.944801
4.683733
##ZVALUE=285
0.470877
0.606775
0.393987
0.623465
0.453591
0.633597
0.660419
0.670552
0.530481
0.615716
0.649691
0.573993
0.688434
0.686646
0.660419
0.722408
0.693798
0.989437
0.941753
0.999570
1.129508
1.397729
1.453757
1.696944
4.819632
16.196966
58.247447
120.374560
264.482498
405.386686
622.320771
790.959597
923.020840
981.842875
933.873653
766.247511
605.350733
377.377868
237.139463
114.652514
60.074925
32.211542
33.680797
51.626563
70.468783
99.027753
118.325949
134.122968
142.105818
137.388706
127.987862
103.318691
83.193779
56.813955
40.113926
21.903515
13.713837
8.203983
5.788803
5.122423
4.755855
4.476905
4.351735
4.397631
4.679561
4.448891
4.409552
4.579425
4.581809
5.118847
5.087852
5.254745
5.129576
5.444884
5.665421
5.233884
5.232692
5.315542
5.400777
5.350709
5.215406
4.665852
4.791617
5.079508
5.016923
4.927516
4.593730
4.812479
4.700422
4.880428
4.581809
4.643798
4.671812
4.629493
4.896522
4.812479
##ZVALUE=290
0.265837
0.396967
0.345707
0.417829
0.433922
0.459552
0.482798
0.399947
0.414848
0.430942
0.350475
0.381470
0.445843
0.482798
0.606775
0.393987
0.609756
0.635982
0.531673
0.776649
0.825524
0.917912
0.928640
1.015663
1.070499
1.223683
1.840591
6.674528
32.785535
75.891614
181.410909
303.394794
520.281792
700.500607
897.988677
981.199741
972.762704
873.021483
665.375590
500.917435
292.313695
172.696710
75.945854
38.478971
25.003552
29.204488
47.704577
64.977407
90.195537
110.787749
128.824711
136.640668
132.801533
123.123527
101.508498
80.780983
53.327680
37.147999
21.546483
14.461875
8.136630
5.682707
4.584789
4.055500
4.379749
4.076958
4.163980
3.946424
4.428625
4.719496
5.011559
4.924536
5.224943
5.198717
5.457997
5.096793
4.869699
4.811883
4.782677
4.551411
4.741549
4.740953
4.621744
4.388690
4.319549
4.545450
4.553795
4.395843
4.292727
4.112720
4.338622
4.186630
3.948808
3.919601
4.015565
4.296899
##ZVALUE=295
0.083447
0.050664
0.115633
0.255704
0.295639
0.206828
0.104904
0.196695
0.229478
0.105500
0.440478
0.255704
0.343919
0.360608
0.300407
0.401735
0.290871
0.447631
0.368953
0.480413
0.460744
0.516772
0.759959
0.551939
0.897646
0.892878
0.824928
1.204610
1.291633
2.653599
9.829998
44.775605
104.280710
246.155858
395.637751
635.557771
800.812840
955.443978
993.849635
926.309824
799.131989
573.824644
401.615500
215.137005
118.748546
44.618845
23.836493
19.569993
27.280450
43.993592
61.684847
85.851550
103.997588
122.878551
129.536986
126.165748
116.222501
95.974803
77.268481
52.860975
36.882758
21.350980
14.121532
7.789731
5.454421
4.426837
4.147887
3.932714
4.182458
4.608631
4.336834
4.478693
4.357696
4.821420
4.717708
5.018711
4.603863
5.014539
4.279613
4.568696
4.600883
4.468560
4.689693
4.235506
4.562736
4.179478
4.515648
4.420877
4.411936
4.339814
4.293919
4.235506
4.017949
3.870726
4.113913
3.813505
##ZVALUE=300
0.377893
0.296831
0.425577
0.397563
0.433922
0.524521
0.411868
0.490546
0.374913
0.530481
0.438690
0.552535
0.667572
0.456572
0.613928
0.514984
0.376701
0.673532
0.662804
0.830889
0.787973
0.659823
0.753999
0.832677
0.747442
0.885725
1.094937
1.298785
1.234412
1.261830
1.518726
1.720786
6.797910
23.613572
81.638694
161.034465
330.107808
498.147607
733.402967
877.226591
986.030698
981.750488
853.570700
702.322721
469.299555
308.049917
154.532790
85.234642
32.254457
16.554594
16.691685
24.372935
39.737821
53.934455
77.052712
96.072555
115.471482
122.856498
121.065974
114.989877
94.577670
76.640844
53.783655
38.095713
22.062659
14.757514
8.613467
5.874634
4.647970
4.618764
4.563928
4.630685
4.765987
4.732609
4.858971
4.760623
4.924536
4.958510
4.806519
4.524589
4.457831
4.610419
4.822612
4.517436
4.513860
4.732609
4.635453
4.549623
4.227757
4.737973
4.364848
4.283786
4.314780
4.188418
4.010797
4.024506
##ZVALUE=305
0.542998
0.390410
0.407696
0.402927
0.393987
0.456572
0.465512
0.378489
0.328422
0.500679
0.366569
0.390410
0.622869
0.385642
0.565648
0.536442
0.447631
0.561476
0.726581
0.479817
0.517964
0.638962
0.826716
0.526905
0.744462
0.848770
0.896454
0.766516
0.940561
1.132488
1.145601
1.218915
1.145601
1.430511
2.479553
15.945435
44.572949
129.782557
234.559774
431.252718
606.688857
822.729468
941.865444
989.373922
926.457644
747.137666
582.409501
360.784531
228.945613
106.508732
52.196980
18.370748
12.108684
15.164614
22.381544
37.690997
53.095818
75.067878
92.187524
109.282732
115.370750
114.842653
105.367899
89.180470
72.428584
50.225854
35.773516
20.939708
13.933778
7.997751
6.459951
4.971623
4.743934
4.696846
4.741549
4.603863
4.608631
4.497766
4.614592
4.499555
4.507899
4.477501
4.653931
4.500747
4.403591
4.755855
4.538894
4.156828
4.416704
4.193783
4.366636
4.442930
4.084706
4.034638
4.178882
4.217625
##ZVALUE=310
0.281930
0.455976
0.518560
0.322461
0.379682
0.379682
0.486970
0.415444
0.350475
0.501871
0.499487
0.342727
0.388622
0.460744
0.563860
0.377893
0.372529
0.553727
0.328422
0.476837
0.493526
0.640750
0.606775
0.687838
0.527501
0.620484
0.685453
0.658631
0.713468
0.762939
1.063943
1.040697
0.984669
1.147985
1.211762
1.728535
1.694560
6.684661
22.622943
76.960921
153.200626
321.143866
491.383672
729.129910
869.562626
976.105928
967.153907
850.453973
699.403882
472.302437
315.148830
158.151984
84.604621
30.756593
13.450980
9.872913
13.237000
21.647811
30.503869
48.067570
63.486695
84.942579
98.864436
109.157562
110.113621
102.479458
89.766979
70.799589
53.348541
34.040809
23.072958
13.943911
9.477735
6.620884
5.314946
4.639626
4.420877
4.560947
4.255772
4.368424
4.281998
4.200935
4.342794
4.379749
4.237890
4.355907
4.404783
4.307628
4.366636
4.433990
4.063845
4.168749
4.365444
4.010797
3.909469
3.851652
##ZVALUE=315
0.290871
0.333786
0.329614
0.442863
0.322461
0.263453
0.121593
0.288486
0.501871
0.459552
0.286698
0.275970
0.567436
0.471473
0.450611
0.497699
0.362992
0.474453
0.435710
0.463724
0.368953
0.441670
0.429749
0.392795
0.606775
0.570416
0.646710
0.606775
0.636578
0.612736
0.979900
0.615716
0.781417
0.868440
0.957847
0.964999
1.004934
1.321435
1.350641
2.962947
11.379719
48.304796
107.668638
243.234634
396.154523
636.583567
791.047812
934.707522
977.057815
899.741650
782.644749
565.311909
400.905609
215.660930
118.176937
43.296814
18.479824
8.620620
8.801818
12.066960
18.212795
30.368567
42.342544
61.161518
77.341795
93.911886
102.114677
103.414655
98.421574
81.487894
67.323446
48.661828
35.479665
20.724535
14.070868
8.505583
6.114841
4.993677
4.442930
4.560947
4.231930
4.315972
4.178882
4.470944
4.176497
4.430413
4.218817
4.087687
4.116893
4.204512
4.031658
4.161596
4.147887
4.272461
3.906488
3.785491
##ZVALUE=320
0.225902
0.147820
0.187755
-0.051856
0.168681
0.292659
0.242591
0.108480
0.077486
0.190735
0.230670
0.167489
0.174642
0.152588
0.250936
0.326633
0.229478
0.257492
0.251532
0.344515
0.393987
0.248551
0.192523
0.393987
0.220537
0.294447
0.365973
0.293851
0.533462
0.443459
0.569820
0.601411
0.561476
0.713468
0.619888
0.720620
0.754595
0.996590
0.885725
0.860691
1.098514
1.322627
4.869699
28.713942
70.301890
179.126859
300.973654
511.088967
681.570768
867.566466
951.826572
945.853591
857.738853
662.669539
485.837460
275.677443
158.195496
67.319870
30.007958
10.751486
7.426739
7.994771
10.047555
16.601682
24.711490
40.738583
54.319501
73.870420
86.368918
97.235441
97.940564
90.371966
80.214739
61.642528
48.162937
32.462478
22.314787
12.749434
8.473992
5.515814
4.620552
4.243851
4.056692
3.995895
4.047751
4.133582
4.036427
3.777742
3.769994
3.976822
3.621578
3.630519
3.810525
3.860593
3.905892
3.896952
##ZVALUE=325
0.168681
0.220537
0.380874
0.119805
0.323653
0.191927
0.285506
0.245571
0.331998
0.389814
0.398755
0.227690
0.205636
0.380874
0.376701
0.269413
0.208616
0.135899
0.274777
0.325441
0.291467
0.190735
0.356436
0.374913
0.487566
0.539422
0.368953
0.466704
0.501871
0.534654
0.498891
0.512600
0.549555
0.528693
0.586510
0.697970
0.760555
0.755787
0.864863
0.897646
0.969768
1.099706
1.125932
1.356602
2.995729
17.332435
45.737624
125.141740
223.535895
416.405797
584.430695
794.271827
904.771686
943.389535
884.495974
705.544949
539.212823
330.137014
201.028585
89.410543
42.596459
14.255643
7.997751
6.416440
7.238984
10.317564
15.509725
25.469661
37.012696
55.640936
68.519711
83.445907
90.417862
92.965961
87.359548
72.535872
60.164928
42.759776
30.705929
18.552542
12.378693
7.882714
5.702972
4.672408
4.336834
4.163980
3.938675
3.889799
3.941655
3.719926
3.800988
3.820658
3.839731
3.811717
3.719926
3.533959
##ZVALUE=330
0.308752
0.104904
0.198483
0.316501
0.290871
0.321865
0.336766
0.272989
0.362992
0.303984
0.213981
0.291467
0.100732
0.186563
0.329614
0.346899
0.356436
0.173450
0.477433
0.407696
0.499487
0.427961
0.497699
0.562668
0.502467
0.412464
0.328422
0.368953
0.520945
0.421405
0.484586
0.411868
0.322461
0.531673
0.514984
0.467896
0.645518
0.788569
0.601411
0.861883
0.973940
0.891685
1.015663
1.017451
1.031756
1.178980
1.624823
7.403493
24.178624
81.818700
161.174536
324.132442
479.163527
698.181987
836.136937
928.235650
903.581977
772.790909
617.911816
404.192805
260.353684
122.399926
62.278509
21.705627
9.500980
6.276965
6.074905
7.291436
9.280443
15.734434
23.101568
35.645962
48.311949
65.612793
76.357722
84.963441
85.193515
79.029799
69.829822
52.628517
41.212440
26.597977
19.115806
12.076497
8.289814
6.067753
4.874468
4.471540
3.891587
3.842711
3.843904
3.685951
3.748536
3.512502
3.757477
3.685951
##ZVALUE=335
0.219941
0.112653
0.224710
0.198483
0.309944
0.434518
0.245571
0.264645
0.202656
0.288486
0.283718
0.261664
0.304580
0.092983
0.123978
0.304580
0.295639
0.199676
0.329614
0.314713
0.351667
0.165701
0.414848
0.318885
0.346899
0.379682
0.397563
0.356436
0.567436
0.408888
0.439882
0.486970
0.471473
0.508428
0.488758
0.553727
0.554919
0.582933
0.489950
0.642538
0.635982
0.787973
0.685453
0.878572
0.811815
0.851750
1.056790
1.142621
1.505613
2.808571
16.163588
44.422746
124.330521
225.043893
412.031412
584.247708
787.941813
884.190798
910.450816
841.614604
671.864748
508.125424
307.711959
184.918642
79.207420
36.759973
12.133718
6.892681
5.575418
5.880594
7.047653
9.061694
14.323592
21.613836
33.593774
45.149922
60.526729
70.860982
79.393983
79.909563
73.752999
65.395832
51.786900
40.699840
27.820468
19.905567
12.221932
8.823872
5.665421
4.687905
4.172921
3.822446
3.554821
3.622770
3.512502
3.513694
##ZVALUE=340
0.257492
0.129938
0.221729
0.237823
0.175834
0.323653
0.174642
0.246763
0.338554
0.199676
0.170469
0.113845
0.378489
0.424981
0.412464
0.260472
0.276566
0.368953
0.307560
0.293851
0.321865
0.397563
0.320673
0.265837
0.281930
0.318885
0.493526
0.246763
0.412464
0.348687
0.442863
0.365973
0.430942
0.431538
0.439882
0.453591
0.365973
0.462532
0.547767
0.554919
0.587702
0.444651
0.702739
0.577569
0.616908
0.880957
0.628829
0.887513
0.816584
1.059771
1.188517
1.841784
6.082654
30.817986
74.788928
189.328790
315.910578
521.671772
674.224496
831.717849
885.514617
837.406516
733.956695
544.142723
382.601619
200.683475
112.050772
44.649839
18.254519
7.008910
5.885959
5.649924
5.713701
6.663799
8.509755
13.861656
20.518899
32.055974
43.356419
58.058500
67.344904
74.792504
75.303912
69.922805
62.587857
48.943758
38.826466
26.672482
19.619465
12.128949
8.378625
5.391836
4.572868
3.657937
3.645420
3.461838
##ZVALUE=345
0.043511
0.216961
0.201464
0.359416
0.266433
0.251532
0.306964
0.249743
0.171661
0.199676
0.112653
0.233650
0.247955
0.291467
0.066757
0.388622
0.164509
0.351667
0.226498
0.293851
0.184774
0.258684
0.227690
0.090599
0.279546
0.222921
0.223517
0.292659
0.293851
0.237823
0.271797
0.469685
0.339746
0.423789
0.374913
0.382662
0.375509
0.233650
0.426769
0.478625
0.322461
0.520945
0.497699
0.534654
0.724792
0.669956
0.698566
0.829697
0.817776
0.780821
0.866652
0.942945
1.191497
1.130700
2.789497
45.434833
55.888891
221.855640
236.360431
409.000516
726.171732
757.210851
837.889910
813.212991
779.287815
619.985461
460.296869
264.765620
150.217414
58.917999
26.551485
9.446740
6.093979
5.354881
5.151629
5.084872
5.682707
8.187890
11.742711
19.817948
27.981997
41.378736
51.588416
62.289834
67.643523
69.132447
66.959858
58.717728
49.319863
36.968589
27.762651
17.768741
12.696981
7.910728
5.713701
4.541874
##ZVALUE=350
0.257492
0.160933
0.102520
0.128746
0.152588
0.078678
0.169873
0.184774
0.139475
0.252724
0.193715
0.421405
0.346899
0.217557
0.309944
0.081658
0.262856
0.152588
0.444651
0.300407
0.226498
0.471473
0.293851
0.212789
0.308752
0.371933
0.281930
0.240803
0.351667
0.186563
0.261664
0.367761
0.347495
0.377893
0.318885
0.390410
0.368953
0.455976
0.305772
0.313520
0.404716
0.489950
0.527501
0.507832
0.393987
0.615716
0.472665
0.593662
0.547767
0.628829
0.731945
0.850558
0.848770
0.840425
0.922680
1.084805
1.650453
8.418560
27.293563
85.001588
163.697600
328.024626
470.731854
664.472580
781.234503
842.748880
804.602504
665.839911
514.002442
308.982730
189.912915
87.092519
39.583445
11.611581
6.533861
5.262494
4.723668
4.653931
4.538894
5.497932
6.921887
11.873841
16.498566
25.659800
33.304691
45.346618
54.350495
61.030984
63.801408
60.948730
54.940581
44.342875
36.623478
26.239753
17.069578
12.307763
##ZVALUE=355
0.248551
0.134706
0.173450
0.194907
0.108480
0.249743
0.133514
0.107884
0.212789
0.233650
0.285506
0.246763
0.231862
0.275970
0.328422
0.188947
0.169873
0.082850
0.148416
0.094771
0.214577
0.324845
0.319481
0.144839
0.351667
0.306964
0.433922
0.276566
0.335574
0.408888
0.311732
0.402927
0.440478
0.412464
0.464916
0.453591
0.288486
0.506639
0.341535
0.409484
0.389814
0.252724
0.460744
0.452995
0.558496
0.372529
0.590682
0.448823
0.583529
0.643730
0.587702
0.661612
0.785589
0.660419
0.576973
0.890493
0.852942
0.847578
1.175404
3.775954
14.151931
55.646896
115.055442
241.696835
382.229686
586.350560
713.249445
813.101530
811.181664
698.286891
566.029549
377.201438
239.320993
106.874704
51.687956
16.208887
7.421970
4.927516
4.684925
4.481673
4.393458
4.519820
4.865527
6.644726
9.113550
14.838576
21.076798
30.939579
39.266944
48.678517
54.686666
56.909919
55.948496
49.810410
43.491721
33.787489
##ZVALUE=360
0.296831
0.160933
0.144839
0.054836
0.245571
0.100732
0.105500
0.111461
0.135899
0.156760
0.111461
0.246763
0.106692
0.193715
0.159740
0.044703
0.233650
0.285506
0.235438
0.054836
0.176430
0.151992
0.352859
0.445843
0.239611
0.455976
0.207424
0.388622
0.197887
0.448823
0.388622
0.352859
0.481606
0.381470
0.253916
0.281930
0.370741
0.290871
0.319481
0.260472
0.368953
0.453591
0.389814
0.360608
0.476837
0.494719
0.462532
0.438690
0.551939
0.389814
0.526905
0.550747
0.500679
0.671744
0.749826
0.625849
0.829697
0.849962
0.997782
0.915527
1.104474
1.902580
5.937815
29.149652
72.250962
176.301599
293.547511
476.394892
625.886917
767.233968
799.850821
741.824508
627.234578
431.811810
288.870931
142.502785
74.913502
26.736856
11.138916
5.207658
4.684925
4.268885
4.166961
3.745556
3.887415
4.368424
5.281568
7.834435
10.904670
17.494559
24.059415
34.237504
41.317940
48.449636
50.941706
51.311851
##ZVALUE=365
0.268817
0.170469
0.145435
0.223517
0.152588
0.232458
0.060797
0.128746
0.243783
0.256896
0.160933
0.179410
0.380874
0.349879
0.259876
0.335574
0.256896
0.166893
0.220537
0.305772
0.116825
0.180602
0.233650
0.356436
0.369549
0.158548
0.282526
0.436902
0.212789
0.328422
0.281930
0.243783
0.379682
0.236630
0.178814
0.186563
0.299811
0.159740
0.426769
0.152588
0.245571
0.316501
0.450611
0.240803
0.335574
0.447631
0.402927
0.520945
0.498891
0.491738
0.434518
0.473857
0.547767
0.533462
0.570416
0.556707
0.703931
0.567436
0.577569
0.818968
0.921488
1.071692
1.190901
1.284480
2.832413
15.510917
43.285489
116.894841
215.768814
396.578908
536.173582
691.484809
764.260888
753.231645
666.197538
491.624475
351.266861
195.047855
106.118917
38.801432
15.610456
5.627871
4.566908
4.167557
4.093647
3.713965
3.559589
3.456473
3.445745
4.365444
5.826950
9.874701
14.095902
21.404624
27.929544
36.416650
##ZVALUE=370
0.051856
-0.055432
-0.024438
-0.040531
0.156760
0.095963
0.164509
0.050664
0.074506
0.209808
0.177622
0.106692
0.289679
0.208616
0.103712
0.096560
0.106692
-0.000596
0.199676
0.177622
0.023842
0.130534
0.160933
0.107884
0.171661
0.127554
0.106692
0.038743
0.149608
0.235438
0.246763
0.297427
0.155568
0.217557
0.229478
0.221729
0.267625
0.114441
0.203848
0.165701
0.305772
0.455976
0.283718
0.163913
0.287890
0.452995
0.437498
0.302792
0.210404
0.139475
0.258684
0.419617
0.562668
0.365973
0.398755
0.413656
0.552535
0.391603
0.438690
0.618696
0.570416
0.564456
0.491738
0.731945
0.759959
0.952482
1.595616
7.829666
26.733875
87.471604
165.190697
315.849781
462.638736
647.779703
739.378929
764.835477
703.707933
553.409457
409.650803
231.660604
131.895542
52.803755
23.903847
8.169413
4.465580
3.856421
3.724694
3.230572
3.187656
3.173947
2.971888
3.274679
3.978610
5.451441
7.834435
12.469888
##ZVALUE=375
0.076890
0.211596
0.190735
0.105500
-0.014901
0.156760
0.114441
0.126958
0.390410
0.162721
0.128746
0.145435
0.147820
0.067949
0.164509
0.250936
0.128746
0.271797
0.076890
0.201464
0.180602
0.250936
0.279546
0.257492
0.200868
0.191927
0.221729
0.096560
0.209808
0.191927
0.257492
0.219941
0.296831
0.308752
0.276566
0.232458
0.289679
0.259876
0.325441
0.331998
0.311732
0.358820
0.214577
0.409484
0.306964
0.233650
0.172853
0.288486
0.394583
0.356436
0.382662
0.349879
0.499487
0.349879
0.411868
0.398755
0.305772
0.373721
0.453591
0.368953
0.551939
0.554919
0.604987
0.626445
0.661612
0.612736
0.842810
1.089573
1.248717
4.147887
13.767481
51.971674
113.603473
251.253843
387.165546
574.131012
687.592030
757.336617
736.065507
609.181523
474.033952
292.211771
186.294913
91.334581
44.937730
14.571548
6.212592
3.842711
3.364682
3.274679
3.068447
2.894998
2.981424
2.615452
2.762675
3.375411
##ZVALUE=380
0.073910
0.119805
0.201464
0.260472
0.233650
0.017881
0.016689
-0.024438
0.092983
0.240803
0.127554
0.295639
0.150800
0.141859
0.101924
0.177622
0.173450
0.180602
0.229478
0.194907
0.155568
0.353456
0.164509
0.251532
0.134706
0.103712
0.276566
0.268817
0.280738
0.092983
0.054836
0.215769
0.316501
0.203848
0.271797
0.152588
0.230670
0.282526
0.240803
0.256896
0.268817
0.255704
0.342727
0.203848
0.343919
0.317693
0.368953
0.248551
0.234842
0.279546
0.225902
0.360608
0.267625
0.365973
0.343919
0.313520
0.421405
0.358820
0.377893
0.440478
0.548959
0.428557
0.468493
0.585914
0.651479
0.584722
0.750422
0.628829
0.838637
1.087785
1.097918
1.992583
7.627606
36.448836
84.801912
198.015571
320.586562
503.472686
633.561611
744.861960
749.090910
651.690960
538.658500
375.275612
252.067447
123.521686
63.672662
21.816492
9.114742
4.030466
3.359914
3.065467
2.993941
2.854466
2.759695
2.608895
##ZVALUE=385
0.089407
0.160933
0.089407
0.252724
0.153780
0.244975
0.042915
0.061989
0.203848
0.020862
0.104904
0.121593
0.271797
0.075698
0.105500
0.040531
0.058413
0.170469
0.207424
0.189543
0.191927
0.300407
-0.018477
0.171661
0.227690
0.262856
0.312924
0.327826
0.233650
0.269413
0.179410
0.341535
0.199676
0.130534
0.292659
0.178814
0.240803
0.203848
0.146627
0.199676
0.218749
0.160933
0.297427
0.199676
0.277758
0.291467
0.244975
0.372529
0.349879
0.317693
0.254512
0.264645
0.347495
0.306964
0.306964
0.281930
0.312924
0.327826
0.405908
0.419617
0.457764
0.367761
0.369549
0.620484
0.319481
0.555515
0.528693
0.530481
0.749826
0.813603
0.798702
0.811815
1.046658
1.301765
3.530979
20.352602
52.628517
134.906769
240.325928
420.406461
558.454990
696.164966
733.225942
702.250004
617.874861
454.013944
323.580503
179.330707
101.421475
40.827990
16.695857
4.897714
3.408790
2.951622
2.717972
2.766848
##ZVALUE=390
0.055432
0.032783
0.072718
0.181794
0.076890
0.124574
-0.062585
0.137687
0.186563
0.127554
-0.012517
0.052452
0.080466
-0.001788
0.131726
0.133514
0.091791
0.161529
0.215769
0.155568
0.239611
0.106692
0.156760
0.209808
0.199676
0.138879
0.325441
0.316501
0.161529
0.341535
0.187755
0.288486
0.218749
0.223517
0.219941
0.205636
0.237823
0.361800
0.293851
0.238419
0.340939
0.270605
0.345707
0.211596
0.273585
0.254512
0.299811
0.217557
0.236630
0.272989
0.256896
0.309944
0.238419
0.163913
0.224710
0.252724
0.226498
0.333786
0.245571
0.252724
0.536442
0.288486
0.334978
0.412464
0.475645
0.489950
0.582933
0.475645
0.479817
0.619888
0.650883
0.740886
0.739694
0.924468
0.922680
1.089573
1.780987
10.369420
33.188462
102.742910
192.629695
359.488726
490.486622
637.184978
718.161464
734.511614
676.403642
535.959601
407.847762
249.767900
145.084858
59.492588
26.945472
7.733703
3.725886
2.994537
##ZVALUE=395
0.115633
0.113845
0.021458
0.148416
0.252724
0.170469
0.094771
0.083447
0.302792
0.135899
0.115633
0.164509
0.210404
0.166893
0.316501
0.180602
0.183582
0.136495
0.228882
0.247955
0.237823
0.064969
0.219941
0.119805
-0.015497
0.010729
0.200868
0.046492
0.082850
0.110865
0.220537
0.242591
0.262856
0.458956
0.370741
0.309944
0.341535
0.141859
0.378489
0.141859
0.231862
0.201464
0.232458
0.216961
0.286698
0.222921
0.260472
0.358820
0.374913
0.302792
0.297427
0.335574
0.387430
0.583529
0.285506
0.342727
0.497699
0.217557
0.436902
0.274777
0.156760
0.364780
0.170469
0.338554
0.258684
0.340939
0.448823
0.506639
0.699759
0.699759
0.714660
0.764728
0.693798
0.715852
0.701547
0.788569
0.657439
0.764728
1.206994
5.557537
21.177530
72.830915
139.124990
269.888639
399.912000
579.289794
688.439012
751.315951
733.782649
622.492433
488.523841
303.612947
189.186931
82.660913
39.896965
12.760758
##ZVALUE=400
0.077486
0.147820
0.048876
0.156760
0.000596
0.210404
0.147820
0.116825
0.115633
0.050664
0.171661
0.222921
0.023842
0.101924
0.039935
0.006557
0.042915
0.167489
-0.006557
0.011921
0.037551
0.187755
0.094771
-0.080466
0.134706
0.190735
0.133514
0.196695
0.182986
0.267625
0.132918
0.220537
0.335574
0.121593
0.136495
0.227690
0.207424
0.326633
0.296831
0.299811
0.387430
0.232458
0.395775
0.205636
0.191927
0.179410
0.176430
0.196695
0.295639
0.333786
0.269413
0.257492
0.329614
0.277758
0.153780
0.208616
0.285506
0.317693
0.280738
0.182986
0.308752
0.280738
0.182986
0.155568
0.277758
0.399947
0.416636
0.479817
0.294447
0.479817
0.621676
0.636578
0.631809
0.644922
0.806451
0.823736
0.521541
0.540614
0.586510
0.787973
0.896454
2.939701
11.041760
41.096807
90.659857
204.291940
323.837996
501.969457
621.390939
719.141960
730.686784
644.297600
534.646511
368.375778
245.165825
123.173594
##END
