##TITLE=KDZ0102
##FORMAT=SPECTACLE-ASCII V-1.2
##DATA TYPE=ULTRAVIOLET SPECTRUM
##SECOND TYPE=ULTRAVIOLET SPECTRUM
##DATE=04/30/18
##TIME=12:47:17
##SPECTROMETER/DATA SYSTEM=SPECTACLE
##XUNITS=NM EM
##YUNITS=ENERGY
##YFACTOR=1
##FIRSTX=220
##LASTX=410
##NPOINTS=96
##3DDATA=Equidistant
##ZUNITS=NM EX
##FIRSTZ=210
##LASTZ=400
##ZPOINTS=39
##XYDATA=(Y..Y)
##ZVALUE=210
3.154874
3.749728
2.896786
3.383756
3.297925
3.002882
3.320575
3.382564
3.134608
2.910495
2.802610
2.799630
2.393723
3.137589
2.650619
2.804995
3.499985
3.686547
3.420711
4.166961
4.435778
4.745722
4.820824
4.307628
5.235672
4.782677
5.520582
5.449653
5.904436
6.611943
6.836653
6.870627
6.054640
7.312894
8.071661
7.762909
7.925630
7.519722
7.933974
8.938909
8.108616
7.773638
8.169413
8.655787
10.037422
8.084774
9.353757
9.340644
9.808540
9.712577
9.579659
9.731650
11.109710
10.624528
10.780692
11.545420
12.142658
11.831522
11.746883
11.426806
13.181567
13.952851
12.131929
11.162758
13.238788
12.970567
14.283657
16.907454
17.630458
22.725463
27.152896
29.008985
38.030744
41.881800
46.469569
49.825907
49.211979
50.003529
45.948625
41.783452
40.079951
36.745667
31.684637
26.676655
21.916628
18.078685
15.885830
13.720989
13.676882
13.636947
12.091994
12.037754
12.033582
12.481809
12.537837
11.874437
##ZVALUE=215
11.060834
10.219812
10.222793
8.356571
7.167459
6.049871
6.276965
4.809499
5.977750
6.055832
6.549954
4.873872
4.803538
4.834533
3.785491
3.518462
3.936887
4.514456
4.275441
3.860593
3.866553
4.775524
4.465580
5.432963
6.153584
5.732775
6.482601
5.834699
6.600618
7.005930
7.084608
6.998777
7.466674
7.090569
7.369518
7.854700
8.172989
8.576512
9.115934
8.742809
9.581447
9.413958
9.297729
9.561777
10.022521
10.099411
10.818839
9.499788
11.145473
10.344982
10.280609
9.962916
10.515451
11.213422
11.673570
11.334419
11.883974
11.177659
11.655688
13.214946
12.723804
12.218952
14.007688
12.866855
13.035536
13.409853
14.291406
16.477704
18.542409
22.415519
24.203658
28.059483
34.121871
37.284493
42.195916
40.064454
43.102503
43.592453
38.834810
40.566921
37.988424
31.204820
29.761791
25.505424
21.496415
18.716455
15.418530
14.524460
13.442636
13.059974
11.325479
12.094975
11.503696
12.117624
11.949539
12.209415
##ZVALUE=220
37.923455
38.369894
41.895509
38.558841
36.688447
30.689836
23.542643
16.118884
14.186502
14.356971
14.406443
12.633801
14.304519
12.265444
12.160540
9.469986
7.461905
5.040765
4.577637
4.620552
4.272461
4.087687
5.883574
5.575418
5.757809
6.386638
6.530881
6.655455
6.184578
8.035898
7.282495
8.171797
7.384419
7.917881
8.081794
8.796453
8.533597
9.279847
9.097457
8.891821
8.905530
8.911490
9.222627
9.433627
11.078715
9.105802
11.500716
11.645555
11.499524
11.144876
11.973977
10.974407
11.735559
12.154579
12.237430
12.230873
11.877418
12.628436
12.210608
12.442470
12.114644
12.516975
12.792945
11.650920
14.417768
14.223456
14.893413
16.666651
17.019510
20.159483
21.965504
27.717948
29.590726
35.557747
36.739707
39.712787
41.576624
41.723847
41.199923
36.338568
33.510923
29.772520
28.096437
24.257898
21.665692
18.380880
16.978979
14.217496
13.914704
12.971759
12.716651
12.886524
12.209415
12.880564
11.637807
11.770725
##ZVALUE=225
68.683624
70.290565
93.829632
110.981464
124.908686
120.707750
114.963651
90.076923
68.693757
46.825409
31.073689
27.217865
26.519895
27.406812
26.905537
25.265813
21.959543
18.479824
13.865829
10.175705
7.882714
6.182790
6.337762
5.893707
5.534887
6.897449
6.411672
7.325411
8.435845
7.631779
8.132458
8.617640
9.020567
9.246469
8.322597
9.766817
9.129643
10.355711
9.805560
10.026693
10.490417
11.371970
10.258555
11.620522
10.653734
12.835860
11.028647
12.438893
12.112856
11.693835
12.763739
12.896657
13.909936
12.515783
13.868809
12.128949
14.694929
13.991594
14.904737
15.426874
15.513897
15.821457
16.275644
15.747547
16.859770
16.251802
16.596913
17.394423
21.138787
23.311973
24.567842
27.949810
35.817623
35.642982
39.936900
40.810704
36.454797
36.899447
35.595894
34.170747
29.019713
27.187467
25.216937
24.097562
19.202828
18.481612
17.897487
17.131567
15.354753
15.427470
14.594793
14.081597
14.928579
15.438795
13.254881
15.128851
##ZVALUE=230
58.324933
64.478517
106.914639
171.382427
228.959918
286.160707
313.183665
311.360955
274.521708
233.748555
156.592727
112.000704
71.256757
54.556727
48.284531
49.044490
52.768588
51.260591
44.944882
35.366416
27.650595
21.239519
15.321970
10.111928
9.298921
8.517504
7.588863
8.677840
8.661747
8.386970
8.838773
9.133816
9.475946
9.333491
11.055470
10.431409
10.956526
10.435581
10.575652
10.482669
11.031628
11.462569
11.629462
12.242794
11.246800
11.467934
13.246536
14.433861
13.287663
14.235973
12.955666
15.632510
14.383793
15.362501
16.251802
15.345812
15.600920
15.545487
16.768575
18.272996
17.183423
18.184781
17.600656
18.033981
18.270612
19.920468
18.743873
21.252632
21.677613
25.535822
27.346611
32.409430
36.369562
38.502812
39.801002
42.188764
40.715933
38.447976
37.649870
35.292506
33.693910
30.443668
28.255582
25.492907
22.578835
20.671487
21.538734
20.253658
20.711422
17.900467
17.092824
19.024611
18.863678
17.617941
19.014478
18.482804
##ZVALUE=235
18.881559
19.746423
56.511760
109.446645
209.610462
294.895768
424.068570
519.247651
587.374568
584.329963
496.088862
410.241485
306.011438
191.077590
133.287907
84.914565
75.353980
77.198744
85.122585
84.735751
77.703595
69.648623
54.694414
40.858984
24.762750
19.280910
14.478564
10.589957
10.577440
10.489821
8.325577
10.357499
9.648800
9.766817
11.501908
10.029674
11.092424
11.343956
11.597872
11.378527
12.996793
13.438463
13.401508
12.502670
12.906790
14.049411
12.790561
14.511943
14.160872
14.849901
14.906526
16.848445
15.961528
16.296506
16.396642
16.129613
18.781424
18.255711
17.661452
18.801689
19.901991
19.302964
18.371940
20.901561
20.276904
21.069646
21.730661
23.492575
25.152564
30.306578
32.343864
36.063790
39.170980
41.870475
45.734644
44.177771
43.844581
41.764975
40.467978
37.253499
35.619736
32.772422
29.643774
27.316809
25.876760
25.385618
24.800897
24.598837
23.592710
24.290681
22.382736
22.788644
21.436810
20.671487
21.298528
20.807981
##ZVALUE=240
2.550483
3.111959
9.510517
27.114749
75.117946
137.710571
286.736488
427.500606
635.956526
777.161717
911.933780
903.910995
845.253468
677.197576
539.595485
336.783528
230.048895
146.382451
114.502907
103.496909
111.843944
120.422840
117.808580
102.113485
79.685450
67.984462
47.720671
34.384727
23.024678
15.743971
13.120770
10.921955
11.405945
10.857582
10.452867
11.281967
10.970831
11.343956
10.892749
12.566447
12.356639
12.924671
12.589693
12.834668
13.240576
13.250709
13.427734
14.385581
14.647841
14.690757
15.935898
15.197992
15.731454
16.468763
15.595555
15.461445
15.448928
17.059445
17.508864
18.343925
18.696785
19.955635
19.850731
20.590425
19.723773
20.272732
21.770000
23.245811
26.217699
28.331876
30.458570
32.612681
36.502481
39.142966
39.052963
44.510961
41.039586
41.104555
36.823750
38.306713
37.374496
34.798980
31.062961
28.342605
27.944446
25.964975
24.138689
24.568439
23.395419
23.670793
24.646521
22.261739
22.710562
23.609996
22.778511
22.750497
##ZVALUE=245
1.571774
1.867414
1.507998
2.238750
5.239844
20.928979
50.831437
145.139694
258.188844
474.804640
671.903491
919.297934
1016.031504
1016.031504
1016.031504
965.350866
724.255443
527.415872
311.203599
199.175477
124.648809
106.799603
115.575790
124.333501
126.903653
124.932528
113.852620
93.852878
76.632500
52.384734
39.527416
24.018884
17.719865
13.042688
11.648536
10.489821
11.049509
10.866523
10.558963
10.750890
10.340810
11.147857
11.476874
11.162758
11.353493
11.356473
11.402965
12.476444
12.651682
13.979673
13.546944
12.950897
13.659000
13.959408
15.658736
14.363527
15.281439
15.138984
16.560555
16.355515
15.543699
16.231537
17.541647
17.391443
17.945766
18.628836
19.451976
20.588636
22.917986
26.212931
27.841926
29.451847
31.594634
33.679605
37.631989
38.916469
36.859512
35.253763
33.386946
30.417442
29.825568
27.008653
28.034449
27.696490
25.605559
22.755861
22.142529
23.356676
23.626685
22.850633
23.011565
22.352934
22.782683
21.868944
22.804737
21.875501
##ZVALUE=250
1.599789
1.916885
1.668930
1.763701
2.061725
2.314448
3.450513
11.734962
49.934983
107.153654
268.386602
449.542999
664.051771
968.390703
1016.031504
1016.031504
1016.031504
1016.031504
1002.415419
704.246759
472.279787
294.465423
154.172778
106.875896
104.360580
114.988685
130.977631
135.271549
134.171844
121.884942
104.025602
78.512430
57.566762
37.266612
25.807619
15.550852
12.919903
10.264516
9.953976
9.339452
10.034442
10.262728
10.458827
10.712743
10.695457
11.262894
11.047721
10.908842
11.783838
12.354851
12.082458
12.193918
11.272430
12.575984
12.805462
14.004707
13.631582
14.643669
14.414787
14.529824
15.381575
16.176701
14.624596
15.285611
16.739964
16.011596
17.969608
18.813610
20.766854
22.842884
24.834871
26.410818
29.500723
31.384826
31.838417
33.629537
32.526851
31.658411
29.684901
28.649569
27.452707
25.260448
25.670528
22.590756
21.735430
22.767782
22.048950
20.733476
20.777583
22.101998
20.209551
20.687580
20.897985
21.057725
19.469857
21.045804
##ZVALUE=255
1.791716
1.209974
1.395941
1.561642
1.836419
1.742840
2.088547
2.111793
2.491474
6.146431
33.748746
84.721446
179.277658
396.075845
632.960796
982.979536
1015.900970
1015.900970
1015.900970
1015.900970
1015.900970
1015.900970
720.112920
461.069942
232.119560
142.585635
100.791454
104.117990
123.419762
138.461590
144.012570
142.281651
128.418803
105.289817
83.435774
56.705475
40.161610
25.575757
17.844439
12.381673
11.084676
11.057854
10.954738
11.365414
11.708736
11.527538
11.665821
11.639595
11.868477
12.444854
13.384819
13.156533
14.081597
13.175607
14.619827
13.863444
14.353991
13.504624
14.575720
15.038848
15.243888
15.848875
15.719533
16.937852
16.823411
17.778873
18.278956
18.748641
20.167828
22.269487
24.300814
26.400685
27.778745
29.743910
31.160712
30.499697
31.791925
28.574467
27.101636
26.131868
25.693774
23.296475
22.506714
22.084713
21.867752
21.198988
20.354986
20.691752
20.445585
20.511746
19.507408
20.461679
20.321608
19.347668
20.134449
19.911528
##ZVALUE=260
1.314878
1.345873
1.544952
1.378655
1.272559
1.559854
1.857877
1.761913
1.981854
1.991987
2.136827
4.234910
15.103817
62.036514
136.487484
339.280963
569.116473
963.053703
1016.036868
1016.036868
1016.036868
1016.036868
1016.036868
1016.036868
1006.276011
729.602575
390.886664
214.310884
105.319619
91.444850
108.155608
126.670599
142.273903
153.348446
149.761438
131.486654
114.188790
83.081722
64.727664
40.589571
28.181672
18.357635
14.534593
12.327433
12.585521
11.900663
13.230443
12.773871
13.410449
14.214516
13.802648
13.609529
14.529824
14.857650
14.891624
15.357733
14.906526
15.870929
15.776753
16.160607
15.213490
15.261769
16.043782
16.685724
16.524792
16.202927
16.256571
18.246770
18.908978
20.727515
22.103786
24.315715
24.995804
26.773810
26.583672
27.501583
26.348829
26.083589
25.056601
23.204684
22.142529
21.316409
21.328926
20.420551
19.090772
18.209815
18.760562
18.252730
18.404722
18.291473
18.115640
17.943978
16.871691
17.564893
18.625855
17.428994
##ZVALUE=265
1.253486
1.235604
1.377463
1.272559
1.534820
1.472831
1.518726
1.676679
1.505613
1.541972
1.870990
1.991987
2.434850
2.920628
6.608963
36.912560
95.166564
250.014663
457.701683
883.252025
1016.024947
1016.024947
1016.024947
1016.024947
1016.024947
1016.024947
1016.024947
923.976898
516.696572
295.775533
163.884759
88.954568
82.991719
109.794736
131.821632
149.883628
155.365467
148.366690
134.494901
109.157562
86.686611
59.689879
41.302443
26.993752
18.461943
13.668537
11.860728
12.225509
11.159778
12.142658
11.765957
12.473464
12.646914
12.895465
12.786984
12.655854
13.346672
13.373494
13.932586
12.723804
13.433695
13.765693
13.553500
13.811588
14.491677
14.736652
15.328526
16.280413
15.892982
17.924905
19.753575
20.475984
21.479726
22.643805
23.750663
23.386478
22.493601
21.463633
20.978451
20.650625
20.112991
18.542409
18.092990
17.785430
16.798973
17.076731
17.143488
17.276406
16.964674
16.553998
16.063452
16.437769
16.436577
16.629696
16.190410
16.691685
##ZVALUE=270
1.152754
1.370907
1.244545
1.214743
1.230836
1.247525
1.302958
1.222491
1.638532
1.390576
1.778603
1.886487
2.077818
2.266765
2.384782
2.833605
3.372431
17.005801
52.302480
179.962516
374.201536
677.185655
1016.031504
1016.031504
1016.031504
1016.031504
1016.031504
1016.031504
1016.031504
1016.031504
884.191990
462.453961
248.221755
102.711916
73.852539
86.203814
106.464624
132.527947
148.086548
157.157779
151.939988
135.511756
114.540458
84.778666
64.370632
40.713549
28.455853
18.728971
14.402866
11.782646
12.267828
11.601448
11.743903
11.968613
11.838675
12.374520
12.449622
12.800694
12.999773
12.715459
12.315512
12.937784
13.151765
13.088584
13.481975
13.487935
13.727546
14.211535
14.829636
16.627908
17.646551
19.230843
19.421577
20.327568
20.997524
20.797849
20.535588
19.647479
18.459558
17.627478
16.618967
16.702414
16.526580
15.550852
15.234947
15.692711
14.520884
15.197992
15.307665
15.412569
15.467405
15.058517
14.906526
14.841557
14.572740
15.202761
##ZVALUE=275
0.953674
1.086593
0.947714
1.226664
1.192689
1.200438
1.111627
1.312494
1.294613
1.124740
1.409650
1.609921
1.583695
1.943707
1.791716
1.960993
2.340674
2.915859
2.657771
9.042621
32.647848
95.308423
305.825472
590.383410
1016.032696
1016.032696
1016.032696
1016.032696
1016.032696
1016.032696
1016.032696
1016.032696
966.832638
604.737997
277.869701
142.241716
67.421794
61.518550
84.438920
105.056763
131.555796
145.885944
152.015686
151.031613
133.659840
112.756491
83.500743
64.862967
42.089820
30.619502
18.710494
14.499426
11.785626
11.146665
11.156797
11.402965
11.480451
11.802912
11.428595
11.898875
12.157559
12.080669
12.414455
12.321472
12.699962
12.213588
13.065934
13.117790
14.318824
14.440417
16.330481
17.371774
18.462539
19.128919
18.788576
19.201636
18.223524
18.295646
17.139912
17.109513
16.174912
15.111566
14.625788
14.691949
14.608502
14.303923
14.018416
13.517737
13.730526
13.827682
13.659000
13.731718
13.691783
13.244748
13.900995
13.837814
##ZVALUE=280
0.811815
0.823736
1.035929
1.046658
1.099706
1.240969
0.835657
1.085997
1.072884
1.182556
1.212955
1.368523
1.515746
1.493692
1.598597
1.449585
1.824498
2.035499
2.259612
2.629757
3.007650
3.777742
20.642877
73.903799
246.203542
469.899774
905.154943
1016.031504
1016.031504
1016.031504
1016.031504
1016.031504
1016.031504
1016.031504
1016.032100
714.764595
420.876741
176.308751
85.619688
50.042868
56.933761
82.591772
105.071664
130.449533
142.553449
151.947737
146.683455
129.496455
111.521482
83.392859
61.816573
40.638447
28.849840
18.081665
14.108419
11.567473
11.065602
10.868907
11.247993
11.158586
10.515451
10.700822
11.330843
11.900663
11.390448
11.444688
11.446476
12.562871
13.421774
13.928413
14.785528
15.578866
16.559958
16.788840
17.453432
17.796755
17.060637
16.528964
16.141534
15.196800
15.002489
13.820529
14.113784
13.761520
13.585687
13.269782
13.581514
13.067722
13.392568
12.801886
13.241768
12.994409
12.672544
13.281703
12.481809
12.610555
##ZVALUE=285
0.972748
1.032948
0.948906
0.777841
0.908971
0.979900
0.931621
1.103878
0.960827
0.978708
1.054406
1.325607
1.089573
1.267791
1.418591
1.526475
1.455545
1.470447
1.824498
1.953840
2.065897
2.344847
2.960563
3.144741
10.158420
37.956834
137.553811
298.109651
656.965375
996.029973
1016.044021
1016.044021
1016.044021
1016.044021
1016.044021
1016.044021
1016.044021
964.158177
614.781976
281.488895
135.581493
53.372979
41.022897
55.231452
74.735880
103.061795
121.443868
139.575601
146.360993
143.181682
132.008791
109.044909
87.964535
60.955882
44.023991
27.277470
19.059777
13.604760
11.391640
10.280609
10.321736
9.771585
10.028481
9.957552
10.513663
11.100769
10.815859
11.082888
12.036562
12.820959
13.876557
14.312863
15.306473
15.897751
15.414953
15.746951
15.408993
14.667511
14.719963
14.435649
13.717413
13.683438
13.254881
12.691617
13.045669
12.881756
12.669563
12.414455
12.111664
12.469888
12.683868
12.823939
12.878776
12.325644
12.909770
12.896657
##ZVALUE=290
0.742674
0.683665
0.560880
0.828505
1.022816
0.979900
0.840425
0.911951
1.038909
0.890493
1.149774
0.954866
1.102686
1.103878
1.349449
1.152754
1.253486
1.335740
1.623631
1.681447
1.731515
1.877546
2.101660
2.358556
2.763867
2.806783
4.349947
15.398860
77.873468
188.672543
341.120958
831.812024
1016.013026
1016.013026
1016.013026
1016.013026
1016.013026
1016.013026
1016.013026
1016.012430
846.092701
414.143801
205.121636
67.797899
34.962893
37.717819
50.238967
72.782636
93.528628
118.160844
133.394003
140.341520
139.346719
125.248432
108.295679
81.322789
61.182976
40.369630
28.384924
18.220544
13.684630
10.664463
9.749532
9.472966
9.626746
9.606481
10.166764
10.409951
11.277795
11.546612
12.239814
13.545752
13.898611
14.308691
14.347434
14.310479
14.246702
13.492703
12.728572
12.577772
12.964606
12.452602
12.043715
12.123585
12.025833
12.232661
12.144446
12.197495
11.710525
11.803508
11.749864
11.845827
11.572838
11.898875
11.639595
12.224913
##ZVALUE=295
0.842810
0.726581
0.690818
0.698566
0.708699
0.827909
0.922680
0.949502
0.996590
0.912547
0.877976
0.959635
0.938773
1.197457
0.974536
1.122952
1.096725
1.169443
1.245737
1.685619
1.655817
1.776814
1.863837
2.010465
1.987815
2.250671
2.634525
3.049970
3.460646
8.078814
30.631423
128.236413
287.108421
681.635737
1016.031504
1016.031504
1016.031504
1016.031504
1016.031504
1016.031504
1016.031504
1016.031504
1016.031504
567.846894
302.829742
105.252862
44.226646
25.803447
32.242537
49.070716
66.059828
89.678764
108.725429
127.100945
134.477615
130.012631
119.510889
99.785924
81.699491
59.098601
43.063760
26.140809
18.583536
13.290644
11.061430
9.547472
9.723902
10.103583
10.332465
11.439919
12.061000
12.669563
13.452768
13.058782
13.375878
13.628602
13.423562
12.411475
13.089776
11.878610
11.983514
11.814833
11.907816
11.985898
12.263656
11.898875
11.857748
12.683868
11.708736
11.960864
11.959672
11.591911
11.835694
11.598468
11.563897
11.883974
##ZVALUE=300
0.749826
0.678897
0.698566
0.746846
0.630617
0.767708
0.890493
0.960827
0.800490
0.735521
0.864863
0.938773
0.736713
0.981688
1.188517
1.118779
1.278520
1.259446
1.176000
1.294613
1.184940
1.556873
1.379848
1.535416
1.670718
1.824498
2.219677
2.292991
2.575517
3.024936
3.451705
3.994703
17.351508
63.178539
219.686031
440.638661
931.574702
1016.032696
1016.032696
1016.032696
1016.032696
1016.032696
1016.032696
1016.032696
1016.032696
919.640660
431.360006
216.204524
70.562959
29.535890
22.439957
28.968453
43.033957
58.853626
83.578825
102.472901
121.642947
128.930807
127.317905
116.495490
97.934604
80.951452
59.006810
42.610765
27.479529
19.693971
13.279915
11.271834
10.491610
11.189580
11.460781
12.221932
12.752414
12.824535
13.045669
13.000965
12.781620
12.444854
12.273788
11.981726
12.245774
11.830926
11.461973
11.589527
11.504889
11.857748
11.845827
11.793971
12.100935
11.666417
11.555552
12.059808
11.359453
11.339784
11.863708
11.425614
##ZVALUE=305
0.599623
0.787973
0.656843
0.573993
0.531673
0.645518
0.670552
0.771880
0.956655
0.832677
0.868440
0.933409
0.764728
0.942945
0.991821
1.103878
1.140833
0.843406
0.949502
1.041889
1.162887
1.324415
1.378655
1.326799
1.584888
1.561642
1.892447
1.942515
1.843572
2.167821
2.341866
2.808571
3.060699
3.615618
6.755590
43.500662
121.709704
368.053913
674.258471
1016.031504
1016.031504
1016.031504
1016.031504
1016.031504
1016.031504
1016.031504
1016.031504
1016.031504
669.095516
283.681750
126.972795
39.113760
19.664764
20.160675
26.655793
41.915774
57.275891
79.654455
96.584558
113.234520
120.431781
118.943453
111.745596
92.588663
77.233911
55.919886
41.579604
26.239753
19.752979
13.975501
12.872815
11.765957
12.288690
12.411475
12.183785
12.150407
11.978745
11.676550
11.490583
11.376739
11.297464
11.274815
11.827946
11.686683
11.337996
11.794567
12.031794
11.751652
11.734962
11.506677
11.188984
11.440516
11.304617
11.317730
10.943413
11.698604
##ZVALUE=310
0.690818
0.608563
0.688434
0.688434
0.692606
0.692606
0.592470
0.760555
0.664592
0.671744
0.850558
0.855923
0.944734
0.953674
0.757575
0.910759
0.874996
0.827909
0.931621
1.062751
0.990629
1.012683
1.145601
1.117587
1.206994
1.312494
1.487732
1.328588
1.795888
1.962781
2.024770
2.060533
2.372861
2.548695
2.673864
3.381968
4.010797
18.806458
64.119697
217.749476
441.588759
938.111544
1016.031504
1016.031504
1016.031504
1016.031504
1016.031504
1016.031504
1016.031504
1016.031504
983.759761
484.406948
238.115788
73.636770
28.162599
14.894605
17.723441
25.626421
35.407543
53.180456
69.599748
90.781450
104.080439
114.026666
113.657713
105.295777
93.192458
74.246526
58.189631
39.980412
29.888749
20.642877
16.875863
13.951659
12.600422
11.994839
11.358857
11.051893
11.636615
11.310577
11.123419
10.841489
11.051893
11.388659
11.572838
11.508465
11.829734
11.896491
11.879802
11.458993
11.472702
11.792779
11.319518
11.294484
10.873675
10.663867
##ZVALUE=315
0.475645
0.569820
0.657439
0.593662
0.796914
0.524521
0.625849
0.702739
0.594854
0.664592
0.799894
0.828505
0.821948
0.727773
0.755787
0.779629
0.775456
0.980496
0.804663
1.124740
1.011491
0.831485
1.156926
1.081824
1.148582
1.133680
1.196861
1.322627
1.384616
1.441836
1.671910
1.757741
1.905560
2.040863
2.414584
2.542734
2.619624
3.018975
3.676414
6.495714
41.441917
120.076537
353.918672
664.644837
1016.031504
1016.031504
1016.031504
1016.031504
1016.031504
1016.031504
1016.031504
1016.031504
1016.032100
786.085725
333.262682
141.227841
35.059452
16.228557
13.859868
15.927553
23.588538
32.637715
49.605966
63.425899
84.489584
97.244978
109.476447
110.259652
101.528764
88.971853
70.396662
57.300925
40.408969
29.673576
20.754933
16.105771
13.746619
12.006760
11.126995
11.247993
10.887980
10.967851
11.635423
11.589527
10.960698
11.365414
11.448860
11.349916
11.456609
11.391640
11.339784
10.998845
11.201501
10.916591
10.834932
10.982752
##ZVALUE=320
0.614524
0.510812
0.555515
0.564456
0.622869
0.561476
0.513792
0.727773
0.616908
0.670552
0.785589
0.708699
0.870824
0.998974
0.769496
0.791550
0.741482
0.709891
0.680685
0.867844
0.654459
1.021624
1.019835
1.148582
1.128912
1.170635
1.284480
1.178980
1.238585
1.366735
1.433492
1.555681
1.491904
1.530647
1.615882
1.803637
2.363920
2.526641
2.642870
3.166795
3.280640
4.645586
15.260577
86.509585
222.026110
580.273867
960.469842
1016.033888
1016.033888
1016.033888
1016.033888
1016.033888
1016.033888
1016.033888
1016.033888
964.570642
553.519726
209.913850
81.877708
20.627975
12.638569
13.083816
14.742613
21.111965
28.554797
44.188499
58.942437
78.848600
91.582537
102.407932
104.883909
98.354816
88.081956
68.851709
54.535866
37.702918
27.873516
19.898415
15.167594
12.102723
11.316538
10.708570
10.697842
11.029840
10.970831
10.900497
10.915995
11.058450
11.107922
11.061430
10.565519
10.651946
10.606647
10.557771
10.777712
10.405779
##ZVALUE=325
0.452995
0.444651
0.664592
0.661612
0.562668
0.521541
0.514984
0.599623
0.504851
0.476837
0.532866
0.743866
0.908971
0.629425
0.743866
0.774860
0.812411
0.736713
0.737906
0.902414
0.910759
0.882745
0.917912
0.978708
1.128912
1.020432
0.974536
0.954866
1.039505
1.222491
1.315475
1.382828
1.286864
1.462698
1.511574
1.650453
1.704693
1.978874
2.151728
2.293587
2.383590
2.904534
3.415942
4.032850
8.521676
55.244565
147.689581
399.389863
721.654892
1016.031504
1016.031504
1016.031504
1016.031504
1016.031504
1016.031504
1016.031504
1016.031504
1016.031504
784.264803
329.564810
143.443942
35.968423
14.997721
11.747479
12.226701
15.382767
19.676685
30.465722
42.051673
59.923530
74.612498
89.327693
96.655488
98.590851
93.098879
78.695416
65.645576
49.249530
36.952496
24.666786
18.693805
13.897419
11.918545
10.958910
10.798573
10.798573
10.589957
10.905862
10.582805
10.423660
10.597706
10.452867
10.271668
10.499954
10.540485
10.218620
##ZVALUE=330
0.444651
0.414848
0.575781
0.536442
0.450611
0.474453
0.527501
0.516772
0.561476
0.612736
0.615716
0.670552
0.779629
0.660419
0.695586
0.686646
0.634789
0.667572
0.722408
0.565648
0.769496
0.818968
0.769496
0.852942
0.937581
0.914931
0.902414
1.072884
0.846982
1.120567
0.864863
1.207590
0.988841
1.531839
1.296997
1.325607
1.387596
1.633763
1.614690
1.991987
2.163649
2.141595
2.418756
2.526641
2.958775
3.609657
4.615784
24.472475
81.647038
269.318819
523.124933
1001.112461
1016.031504
1016.031504
1016.031504
1016.031504
1016.031504
1016.031504
1016.031504
1016.031504
986.439586
462.664962
222.528577
68.105459
22.599697
11.491776
11.087656
11.743903
14.478564
20.540953
28.240681
41.574836
54.605603
72.459579
82.903504
91.669559
91.629624
84.540844
74.146986
59.518814
46.394467
32.272935
25.055408
18.047690
14.190674
11.738539
11.021495
10.305643
10.113716
10.237694
10.027885
9.708405
10.216832
10.129809
10.054708
9.870529
##ZVALUE=335
0.418425
0.531673
0.569820
0.529885
0.380874
0.601411
0.439882
0.359416
0.558496
0.488758
0.543594
0.511408
0.459552
0.694990
0.632405
0.733733
0.675917
0.621676
0.611544
0.614524
0.689626
0.559688
0.740886
0.687838
0.821948
0.834465
0.954866
0.824928
0.973940
0.871420
0.902414
1.028776
1.057982
1.033545
1.160502
1.354814
1.261830
1.696944
1.388788
1.725554
1.656413
1.894832
1.950860
2.108812
2.293587
2.522469
2.825856
3.320575
3.998876
11.191964
42.907596
170.891881
366.047621
834.866762
1016.032696
1016.032696
1016.032696
1016.032696
1016.032696
1016.032696
1016.032696
1016.032696
1016.032696
657.366514
329.388976
104.700923
37.930608
13.091564
11.023879
11.319518
12.279749
15.009642
19.151568
28.258562
38.304925
54.166913
66.581964
77.651739
84.166527
84.996819
80.066919
68.472624
58.223605
44.694543
34.764409
24.110675
18.423796
14.198422
12.132525
10.919571
10.075569
9.616613
9.438992
9.498000
9.411573
9.287000
##ZVALUE=340
0.406504
0.433922
0.539422
0.545979
0.351667
0.506639
0.487566
0.312924
0.469685
0.599623
0.603795
0.560880
0.556707
0.516772
0.623465
0.736713
0.613928
0.423789
0.472665
0.764728
0.623465
0.547767
0.752807
0.845790
0.818968
0.827909
0.724792
0.823736
0.763535
0.802875
0.831485
0.887513
0.982881
0.931621
0.938773
1.201630
1.078844
1.143813
1.139641
1.324415
1.352429
1.546741
1.547933
1.687407
1.857877
1.912713
2.102852
2.501607
2.588630
3.042817
3.696680
5.610585
20.008683
105.718374
261.308551
648.455620
1016.031504
1016.031504
1016.031504
1016.031504
1016.031504
1016.031504
1016.031504
1016.031504
1016.031504
837.979913
447.266698
162.930489
57.960749
15.639663
11.822581
11.299849
11.432767
12.496710
14.237761
19.294620
25.460720
36.855936
48.346519
63.695908
72.751641
79.576969
79.800487
74.364543
67.221522
55.299997
45.210719
33.085942
24.950504
17.701983
13.685822
11.334419
9.671450
9.310842
9.245872
9.528995
##ZVALUE=345
0.383854
0.353456
0.440478
0.340939
0.527501
0.481606
0.441670
0.487566
0.581741
0.489950
0.532866
0.511408
0.595450
0.618696
0.528693
0.467896
0.457764
0.519753
0.514984
0.658631
0.685453
0.621676
0.634789
0.581741
0.534654
0.762939
0.708699
0.592470
0.740886
0.846982
0.779629
0.621676
0.774860
0.961423
0.868440
1.016855
0.949502
0.930429
1.219511
0.943542
1.114607
1.360774
1.214743
1.516938
1.576543
1.729727
1.567602
1.790524
2.014637
2.370477
2.352595
2.866983
3.110766
3.856421
8.547902
60.509443
173.016787
469.621420
837.687850
1016.031504
1016.031504
1016.031504
1016.031504
1016.031504
1016.031504
1016.031504
1016.031504
1013.035774
613.584518
227.284431
93.816519
25.307536
12.864470
11.163950
10.806918
10.728836
10.621548
12.944937
16.441941
23.602843
32.846928
45.625567
55.072904
66.186786
72.275996
73.915720
71.292520
62.713623
54.537654
42.827725
33.290982
23.312569
18.119812
12.675524
11.146665
9.684563
##ZVALUE=350
0.302792
0.441670
0.393987
0.599623
0.439882
0.480413
0.428557
0.485778
0.528693
0.537634
0.578761
0.447631
0.750422
0.699759
0.486970
0.583529
0.430942
0.594854
0.517964
0.628829
0.681877
0.594854
0.672936
0.641942
0.784993
0.607967
0.693798
0.843406
0.603795
0.549555
0.699759
0.769496
0.742674
0.872612
0.942945
0.843406
0.922680
0.989437
1.025796
1.122952
1.120567
1.086593
1.163483
1.197457
1.413822
1.340508
1.366735
1.454949
1.864433
1.798868
1.830459
2.156496
2.458692
2.646446
2.964735
3.675818
5.185604
29.034615
100.448728
323.953629
621.236563
1016.031504
1016.031504
1016.031504
1016.031504
1016.031504
1016.031504
1016.031504
1016.031504
1016.032100
821.216702
357.553959
151.465535
35.725832
14.204979
10.381937
10.018945
9.288788
8.887649
9.613633
11.019707
15.916824
21.055937
30.529499
39.155483
50.555468
59.011579
66.005588
67.877769
65.488815
59.865713
49.858689
41.569471
30.935407
24.119616
17.313957
##ZVALUE=355
0.504851
0.574589
0.578761
0.522733
0.564456
0.423789
0.577569
0.632405
0.496507
0.677705
0.569820
0.618696
0.733733
0.562668
0.530481
0.523925
0.838637
0.689626
0.758767
0.676513
0.657439
0.661612
0.685453
0.589490
0.699759
0.688434
0.730753
0.795722
0.810623
0.730753
0.818968
0.927448
0.804663
0.851750
1.018643
0.955462
0.903606
1.083612
0.969768
0.977516
1.179576
1.276731
1.213551
1.226664
1.309514
1.413822
1.493692
1.588464
1.740456
1.750588
1.667738
2.073646
2.157688
2.476573
2.518892
2.560616
2.997518
3.595948
4.057884
13.939738
54.780841
223.274827
462.962389
955.227613
1016.036868
1016.036868
1016.036868
1016.036868
1016.036868
1016.036868
1016.036868
1016.036868
972.614884
441.819429
198.437572
52.267909
18.025637
10.308623
9.621978
8.929968
8.605719
8.649826
8.924603
10.862947
13.413429
18.896461
25.318861
35.539865
43.031573
53.042769
58.785677
62.189698
60.716867
54.993629
48.462749
38.611889
##ZVALUE=360
0.519753
0.503659
0.416636
0.340939
0.656843
0.656843
0.478625
0.624657
0.566840
0.680685
0.521541
0.607967
0.546575
0.559688
0.742674
0.687838
0.704527
0.544786
0.567436
0.624657
0.619888
0.685453
0.690818
0.703931
0.796914
0.930429
0.781417
0.780821
0.696778
0.908971
0.701547
0.732541
0.803471
0.933409
0.964999
1.049638
0.887513
0.939965
0.877976
1.012683
1.199841
1.229644
1.194477
1.056790
1.322627
1.216531
1.537800
1.463890
1.427531
1.552701
1.553893
1.670718
1.669526
1.819730
2.072453
2.256632
2.526641
2.564788
3.095865
3.566742
4.110932
5.657673
29.043555
96.541643
326.134562
636.493564
1016.031504
1016.031504
1016.031504
1016.031504
1016.031504
1016.031504
1016.031504
1016.031504
1016.032100
681.496859
284.319520
111.128688
25.650859
11.704564
9.263754
9.023547
8.417964
8.129478
8.119941
7.969737
9.116530
11.269450
15.766621
20.761490
28.567910
36.428571
46.058893
51.262975
55.514574
55.862665
##ZVALUE=365
0.501871
0.454783
0.597835
0.506639
0.558496
0.505447
0.581741
0.618696
0.476837
0.534654
0.627637
0.609756
0.272989
0.542998
0.550747
0.577569
0.646710
0.673532
0.637770
0.761747
0.666976
0.638962
0.639558
0.588894
0.775456
0.675917
0.736713
0.676513
0.804663
0.727773
0.821948
0.862479
0.860691
0.838637
0.850558
0.828505
1.014471
1.021624
1.032948
0.984669
1.032948
1.212955
1.151562
1.252890
1.352429
1.208782
1.310706
1.254678
1.133680
1.323819
1.416802
1.629591
1.489520
1.631975
1.881719
1.938939
2.135634
2.265573
2.400875
2.639890
2.908707
3.377795
4.054904
4.709959
10.579824
63.923597
183.658600
515.437722
934.221745
1016.026735
1016.026735
1016.026735
1016.026735
1016.026735
1016.026735
1016.026735
1016.026735
829.112530
447.486639
153.570771
54.515600
13.221502
9.414554
8.369684
8.085966
7.742643
7.138848
7.128716
7.249713
7.931590
9.338856
12.905598
16.997457
24.061799
30.251741
38.808584
##ZVALUE=370
0.339746
0.477433
0.422597
0.379682
0.438690
0.521541
0.410676
0.441670
0.389814
0.581741
0.534654
0.610948
0.545979
0.441670
0.494719
0.621676
0.709891
0.581741
0.483990
0.504851
0.535846
0.666976
0.601411
0.591874
0.732541
0.519753
0.721812
0.638962
0.717640
0.621676
0.678897
0.567436
0.680685
0.695586
0.714660
0.775456
0.701547
0.818968
1.104474
0.822544
0.951886
0.961423
0.918508
0.936985
0.951886
1.072884
1.028776
1.074672
1.225471
1.195669
1.166463
1.299977
1.265407
1.473427
1.372695
1.529455
1.541972
1.976490
1.796484
1.933575
2.276897
2.460480
2.832413
3.131628
3.503561
3.982782
6.373525
38.615465
128.370523
399.718881
750.990510
1016.031504
1016.031504
1016.031504
1016.031504
1016.031504
1016.031504
1016.031504
1016.031504
939.182639
539.830923
206.413865
87.837577
23.881793
10.047555
7.614493
7.120967
7.024407
6.669760
6.330609
6.218553
6.268620
6.724000
8.325577
10.935664
15.319586
##ZVALUE=375
0.509620
0.425577
0.426769
0.468493
0.522733
0.574589
0.353456
0.366569
0.457764
0.510812
0.484586
0.529885
0.530481
0.406504
0.463724
0.501871
0.429749
0.601411
0.482798
0.661612
0.459552
0.484586
0.338554
0.591874
0.528693
0.422597
0.550747
0.685453
0.592470
0.556707
0.636578
0.661612
0.520945
0.479817
0.767708
0.510812
0.583529
0.775456
0.788569
0.921488
0.766516
0.726581
0.744462
0.841618
0.832677
0.828505
0.940561
1.027584
0.994802
1.006722
1.086593
1.094937
1.235604
0.955462
1.070499
1.285672
1.252890
1.453757
1.470447
1.655817
1.661777
1.758933
1.946688
2.129674
2.400875
2.605915
2.873540
3.473759
4.378557
18.883944
72.727799
255.076885
537.294745
1016.031504
1016.031504
1016.031504
1016.031504
1016.031504
1016.031504
1016.031504
1016.031504
1016.031504
750.470757
362.561941
169.912577
45.596957
15.071630
7.607937
6.625652
6.524920
6.026626
5.702972
5.617738
5.463958
5.617738
6.038547
##ZVALUE=380
0.140667
0.410676
0.191927
0.087619
0.137687
0.108480
0.083447
0.122786
0.225902
0.183582
0.185966
0.158548
0.126958
0.236630
0.172853
0.149608
0.167489
0.186563
0.223517
0.137687
0.143647
0.106692
0.094771
0.319481
0.249743
0.143647
0.230670
0.412464
0.339746
0.206828
0.094771
0.321865
0.333786
0.265837
0.353456
0.282526
0.535846
0.219941
0.248551
0.259876
0.370741
0.400543
0.435710
0.614524
0.409484
0.467896
0.524521
0.375509
0.486970
0.492930
0.634789
0.711679
0.593662
0.768900
0.835657
0.737906
0.867844
0.951886
1.100898
0.961423
1.118779
1.409650
1.255870
1.476407
1.647472
1.750588
2.210736
2.547503
2.939701
3.683567
4.231930
8.956790
43.526888
207.722783
457.913876
974.507928
1015.781760
1015.781760
1015.781760
1015.781760
1015.781760
1015.781760
1015.781760
1015.781760
945.465565
466.346741
237.240791
73.117614
25.457740
8.380413
6.614923
6.055832
5.607605
5.342960
5.201697
4.977584
##ZVALUE=385
0.288486
0.417829
0.190735
0.259876
0.401735
0.289679
0.199676
0.325441
0.311732
0.253916
0.321865
0.199676
0.398755
0.364780
0.407696
0.298619
0.461936
0.279546
0.273585
0.308752
0.206828
0.341535
0.429749
0.305772
0.360608
0.397563
0.594854
0.415444
0.381470
0.522733
0.341535
0.370741
0.531673
0.482798
0.583529
0.515580
0.476837
0.449419
0.571609
0.475645
0.576973
0.597835
0.727773
0.621676
0.678897
0.805855
0.602603
0.722408
0.732541
0.900626
0.922680
0.866652
0.733733
0.907779
0.827909
1.026988
0.854731
1.184940
1.181960
1.237988
1.201630
1.352429
1.378655
1.477599
1.477599
1.714826
1.921654
2.637506
2.555847
2.926588
3.202558
3.712773
4.080534
5.294681
18.517971
123.823881
315.672755
756.892562
1016.035676
1016.035676
1016.035676
1016.035676
1016.035676
1016.035676
1016.035676
1016.035676
1016.035676
696.846843
388.242602
148.454905
53.619742
11.482835
6.912947
6.043911
5.479455
5.290508
##ZVALUE=390
0.313520
0.445843
0.441670
0.551939
0.463724
0.322461
0.160933
0.369549
0.333786
0.199676
0.258684
0.541806
0.414848
0.498891
0.417829
0.417829
0.316501
0.399947
0.461936
0.370741
0.455976
0.408888
0.327826
0.379682
0.471473
0.449419
0.515580
0.595450
0.418425
0.645518
0.574589
0.605583
0.438690
0.575781
0.573993
0.642538
0.597835
0.633597
0.557899
0.555515
0.773668
0.626445
0.634789
0.633597
0.688434
0.699759
0.711679
0.749826
0.789762
0.814795
0.835657
0.947714
0.917912
0.967979
0.844598
1.020432
1.012683
1.039505
1.059771
1.039505
1.400709
1.153946
1.286864
1.247525
1.635551
1.592636
1.848936
2.001524
2.533793
2.580881
2.892613
3.088713
3.341436
3.414750
3.630519
4.203916
9.149909
46.178699
230.740905
518.472791
1016.095877
1016.095877
1016.095877
1016.095877
1016.095877
1016.095877
1016.095877
1016.095877
1016.095877
982.955694
515.578985
261.693597
82.011819
26.392937
7.622838
6.099939
##ZVALUE=395
0.345707
0.325441
0.453591
0.298619
0.480413
0.481606
0.455976
0.487566
0.288486
0.423789
0.371933
0.346899
0.417829
0.438690
0.427961
0.486970
0.477433
0.511408
0.398755
0.649691
0.529885
0.371933
0.472665
0.430942
0.550747
0.541806
0.421405
0.508428
0.532866
0.516772
0.627637
0.533462
0.534654
0.626445
0.753999
0.613928
0.734925
0.754595
0.616908
0.587702
0.728965
0.647902
0.725985
0.711679
0.700951
0.908971
0.826716
0.745654
0.726581
0.659823
0.829697
0.974536
1.027584
0.968575
0.879765
0.981688
1.033545
1.084805
1.151562
1.094937
1.176596
1.114607
1.099706
1.464486
1.391768
1.534820
1.694560
2.127886
2.316833
2.742410
2.769828
2.890825
2.797842
2.801418
2.858639
3.143549
3.499985
4.018545
5.200505
29.074550
115.207434
413.571000
780.364871
1016.151905
1016.151905
1016.151905
1016.151905
1016.151905
1016.151905
1016.151905
1016.151905
1016.151905
712.430477
303.886533
139.256716
40.214658
##ZVALUE=400
0.381470
0.545979
0.328422
0.371933
0.391603
0.388622
0.296831
0.432730
0.398755
0.474453
0.366569
0.427961
0.455976
0.540614
0.403523
0.475645
0.331998
0.417829
0.598431
0.371933
0.383854
0.560880
0.440478
0.408888
0.509620
0.500679
0.436902
0.484586
0.512600
0.515580
0.531673
0.522733
0.716448
0.656843
0.620484
0.408888
0.555515
0.780821
0.672936
0.674725
0.543594
0.615716
0.779629
0.622869
0.651479
0.707507
0.840425
0.827909
0.678897
0.699759
0.734925
0.765920
0.746846
0.852942
0.881553
1.030564
1.001954
1.032948
1.212955
1.067519
0.989437
1.163483
1.080632
1.341701
1.423955
1.658797
1.729727
1.808405
1.930594
2.312660
2.337694
2.420545
2.657771
2.530813
2.331734
2.544522
2.741814
2.871752
3.295541
3.650784
4.227757
13.346672
54.189563
221.710801
488.641858
1009.537578
1016.126871
1016.126871
1016.126871
1016.126871
1016.126871
1016.126871
1016.126871
1016.126871
875.634551
427.028537
##END
