##TITLE=KDZ0151
##FORMAT=SPECTACLE-ASCII V-1.2
##DATA TYPE=ULTRAVIOLET SPECTRUM
##SECOND TYPE=ULTRAVIOLET SPECTRUM
##DATE=04/30/18
##TIME=12:17:08
##SPECTROMETER/DATA SYSTEM=SPECTACLE
##XUNITS=NM EM
##YUNITS=ENERGY
##YFACTOR=1
##FIRSTX=220
##LASTX=410
##NPOINTS=96
##3DDATA=Equidistant
##ZUNITS=NM EX
##FIRSTZ=210
##LASTZ=400
##ZPOINTS=39
##XYDATA=(Y..Y)
##ZVALUE=210
2.740622
3.307462
2.967715
3.783703
2.405643
3.442764
3.233552
3.462434
3.184676
2.335906
3.376603
2.667904
2.101660
1.866817
2.625585
2.544522
2.450943
2.453923
2.673864
2.780557
3.339648
3.346801
2.560616
3.116727
3.545880
3.617406
2.922416
3.926754
4.185438
3.840923
4.106760
4.404783
4.511476
4.799962
4.105568
4.084706
4.627705
4.155636
4.121661
5.205870
5.635619
4.328489
4.473925
4.339814
5.810857
5.023479
5.021691
5.693436
4.983544
4.566908
5.747676
5.346537
5.700588
5.574822
6.126761
5.509853
5.510449
5.024672
5.830526
5.359650
5.758405
5.421638
5.139709
5.209446
6.076694
5.088449
5.839467
7.825494
8.099675
8.004904
10.541677
11.573434
12.421608
14.754534
16.196966
15.699863
16.756654
16.866922
16.454458
15.689731
14.058948
12.266636
11.440516
8.903742
8.501410
7.612705
6.907582
5.156994
5.708933
5.704761
5.050898
4.786849
6.029606
7.050633
6.691813
5.987883
##ZVALUE=215
8.671880
9.291768
8.267760
6.094575
5.150437
5.121827
5.457997
6.349683
6.366968
6.379485
4.810691
5.314946
4.563928
3.638864
3.323555
2.763867
3.334880
3.086925
2.424717
2.687573
3.432631
3.161430
3.445745
3.445745
3.540516
3.550649
4.296899
4.065633
4.077554
4.282594
3.875494
4.122853
4.485846
4.546642
4.941821
4.876852
4.788637
4.543662
4.662871
5.185604
4.580617
4.344583
4.868507
5.311966
4.573464
5.362630
5.416870
5.495548
5.224943
6.179810
5.620718
6.492734
5.441904
5.970597
5.856752
6.102920
5.649924
6.045699
5.698800
6.251931
6.402731
5.329847
5.904436
5.638599
6.507635
5.903840
6.781816
6.873608
6.902814
9.151697
9.601712
10.214448
13.668537
14.780760
16.222000
16.299486
14.934540
15.235543
15.806556
15.112758
12.738705
11.233687
9.920597
9.622574
8.358955
7.842779
7.288456
5.842447
5.456805
5.006790
4.928708
5.023479
5.458593
5.517602
5.925894
5.959868
##ZVALUE=220
29.078722
26.375651
28.211474
27.850866
26.728511
22.810698
17.746687
16.282797
12.781620
12.166500
11.757612
13.525486
12.049675
12.272000
9.045601
7.756948
6.234646
5.287528
3.737807
3.963709
3.396869
2.950430
3.620982
3.902912
4.179478
3.704429
3.875494
4.405975
4.742742
4.484653
4.531741
4.732609
3.984571
5.001426
4.775524
5.060434
4.948974
5.401969
4.762411
5.736947
5.971789
5.503893
5.858541
5.120635
5.725622
5.311966
5.777478
5.808473
5.704761
5.156994
5.873442
5.595684
6.829500
6.098747
6.274581
5.652905
6.599426
5.816817
5.873442
5.968809
6.307960
5.900860
6.817579
6.468892
5.576611
7.691979
6.632805
7.239580
8.685589
9.062886
11.273623
11.729598
12.509823
13.873577
14.127493
16.976595
17.060637
15.373826
15.847683
13.842583
13.205409
10.811687
10.472536
9.328723
8.786917
8.364916
7.485747
6.567836
6.422997
6.195903
6.310940
5.409718
6.107688
5.733967
5.931854
6.030798
##ZVALUE=225
45.746565
51.251650
64.076781
77.052712
82.073808
80.141425
71.050525
58.895946
44.440627
35.241842
26.839972
25.455952
23.535490
27.566552
26.871562
22.888780
22.418499
18.339753
13.575554
8.645654
5.998611
5.667806
4.336834
4.174709
4.009604
3.827810
4.400611
5.431771
4.895926
5.584955
5.486608
5.269647
5.737543
5.811453
6.102920
5.278587
5.919933
6.266832
5.611777
6.588697
6.442666
7.541776
5.927682
5.726814
6.255507
5.578995
6.672740
6.534457
5.699992
6.921887
6.537437
7.636547
6.412864
6.115437
7.734895
6.914735
7.067919
7.955432
7.665753
7.927418
7.856488
7.973909
8.098483
7.334948
7.485747
7.612705
7.989407
9.401441
9.432435
10.564923
11.424422
12.466908
14.533997
15.834570
14.626980
16.580820
16.812682
16.866922
14.692545
14.110804
12.352467
12.012720
10.909438
9.767413
8.186698
8.306503
7.121563
7.754564
6.859899
6.757975
7.266998
6.894469
6.658435
7.132888
6.870627
7.021427
##ZVALUE=230
41.296482
44.959784
69.419742
110.322833
137.193799
175.559521
189.325809
190.628767
173.421502
146.729946
98.098516
73.503852
53.180456
46.999454
47.534704
48.894882
51.178932
46.836734
41.235685
34.159422
26.525855
16.884804
12.234449
8.575916
5.620718
5.160570
4.537702
4.893541
6.128550
5.623698
5.763769
6.473660
6.045699
6.358624
7.028580
6.484985
6.810427
6.173849
7.117987
6.886721
6.560683
7.412434
7.444620
6.696582
8.257627
6.843805
6.240606
7.331967
7.512569
7.941723
7.014871
7.614493
7.354617
7.579923
8.881688
7.987618
6.842613
7.723570
8.853674
8.653998
8.139610
8.961558
9.508729
9.278655
8.524656
8.740425
10.410547
10.393858
11.465549
12.845993
13.065934
14.933944
16.550422
17.536879
18.141866
18.885732
19.035935
17.559528
17.463565
15.881658
13.453960
15.408993
12.587905
10.610819
10.397434
9.644628
8.629560
8.478761
8.999705
8.503795
9.413958
8.277893
8.260608
7.814765
7.390976
8.954406
##ZVALUE=235
14.897585
18.003583
33.723712
76.713562
125.031471
195.474625
257.977843
327.500701
369.098783
355.873704
327.801704
271.956921
183.658004
135.070682
95.675588
78.276992
71.108937
76.645613
74.799657
80.753565
73.192716
62.083602
51.890612
34.045577
24.210811
15.112758
9.098649
7.655621
6.589890
6.816983
6.854534
7.019639
6.600618
6.877780
5.944967
7.861853
6.478429
7.568598
7.273555
7.431507
6.738901
6.998777
6.654859
7.302761
7.712841
7.698536
8.689761
7.900596
8.009672
7.793903
8.439422
8.297563
8.587837
8.094907
9.491444
9.429455
8.360744
8.904934
9.008646
9.299517
9.054542
10.039806
10.213852
9.649992
10.589957
10.923743
10.590553
11.444688
11.503696
13.642907
14.951825
17.059445
18.992424
18.850565
19.810796
18.084645
17.619729
17.818809
18.858910
17.092824
15.521646
14.727712
13.187528
12.175441
13.129711
11.984706
11.426806
11.364818
11.669993
10.056496
10.303855
10.453463
9.035468
10.766983
10.566711
9.508729
##ZVALUE=240
2.277493
2.373457
7.691979
18.730760
51.712990
95.821619
183.419585
278.397799
419.676900
509.597659
582.892895
580.908656
546.205640
439.183712
339.936614
219.722986
162.225962
107.560754
97.880960
99.567771
107.353926
114.733577
111.944675
97.814798
80.240965
62.958598
44.152737
31.689405
18.358827
12.760758
9.045601
8.077621
8.706450
7.820725
7.850528
7.541776
8.722544
7.484555
7.384419
8.093715
8.786917
7.731915
7.148981
7.410645
8.352995
8.336902
8.653998
9.108782
9.214878
8.917451
8.906722
9.333491
9.417534
8.847713
8.410811
9.090900
9.175539
9.998679
10.485649
10.231733
10.994673
10.209680
10.062456
10.521412
11.824965
11.176467
12.898445
13.581514
14.552474
16.871691
15.350580
18.625855
19.546747
21.434426
22.317767
23.335814
22.540689
20.473599
20.517707
18.020868
18.298626
17.171502
17.091632
15.724897
13.840795
14.516711
14.699697
13.121963
12.117624
11.885762
11.762977
11.844635
11.207461
11.486411
12.300611
12.094975
##ZVALUE=245
1.563430
1.754761
1.337528
1.925826
3.626943
16.052723
39.666891
103.461742
180.957913
283.978581
448.587537
569.897890
685.953498
718.880892
675.236583
592.336655
438.520908
325.695872
228.362679
142.917633
104.212761
99.660754
108.378530
124.359727
124.808550
122.627616
108.405948
87.518692
68.794489
47.215819
34.955740
21.353960
14.764667
8.982420
7.233620
7.328987
7.631779
7.241964
6.924868
6.389618
6.597638
7.130504
7.226467
7.190704
7.553697
7.204413
7.367730
7.183552
7.416606
7.681847
7.088780
7.546544
7.316470
7.466674
8.421540
7.813573
8.255839
8.026958
8.461475
8.085966
9.302497
8.764863
8.835793
9.287000
8.992553
10.157824
8.574724
11.491776
12.232661
13.468862
13.940930
15.327930
16.492605
16.735792
18.227696
18.729568
18.636584
16.949773
16.912818
15.401840
14.200807
13.963580
13.829470
13.191700
12.465715
11.874437
12.219548
11.349916
11.658669
10.418892
11.310577
10.627508
11.190772
11.205673
11.308789
10.639429
##ZVALUE=250
1.354814
1.278520
1.571774
1.831651
1.771450
1.843572
3.126860
8.452535
34.491420
75.248480
178.520679
287.717581
426.962972
611.655712
733.492970
817.672610
808.048844
715.788007
599.905849
421.109796
290.307999
184.095502
113.878846
97.327828
102.794766
113.953948
129.708648
133.499503
131.332874
118.579865
103.687644
76.068640
57.590604
34.160614
22.886992
12.854934
8.323789
6.614923
6.627440
5.860925
6.354451
6.498694
6.678700
6.485581
6.810427
6.755590
6.823540
6.102920
6.452799
7.359982
7.857680
6.762743
6.881952
6.975532
6.763935
6.615520
7.345676
7.014871
6.973743
7.163882
7.505417
7.317662
7.492900
8.734465
7.996559
8.594990
9.189844
9.672642
10.089874
11.498928
12.247562
13.259649
14.818907
14.642477
15.355945
15.100837
14.779568
15.064478
13.899803
13.854504
13.211966
11.553764
11.922717
11.484623
10.704994
10.327697
10.009408
9.864569
9.695888
9.909868
9.696484
9.815693
10.126829
10.067821
9.220839
10.353923
##ZVALUE=255
1.273751
1.293421
1.209974
1.565814
1.549721
1.253486
1.355410
1.725554
1.485944
4.608631
22.949576
59.468746
119.249821
251.475573
391.019583
601.454973
746.283531
889.205933
942.035913
880.982876
760.303736
610.361695
380.639434
247.703791
132.831931
96.598864
88.112950
99.876523
120.675564
134.119987
140.997767
137.334466
126.876831
102.756619
80.653429
52.722692
38.025975
21.322966
12.688637
8.650422
6.225705
6.216764
5.461574
6.482601
5.407929
6.211996
5.485415
5.589724
6.320477
6.064773
6.483793
6.345510
6.127954
6.364584
6.816983
6.141663
6.427765
7.051826
7.244945
7.010698
6.650686
6.876588
6.893873
7.561445
6.954670
7.355809
7.882714
8.728504
8.310676
9.519458
10.349751
11.103749
12.284517
13.433695
12.982488
13.590455
12.379885
11.635423
11.467934
12.099743
11.276603
10.377765
10.307431
10.391474
9.713769
9.849668
8.832812
9.124875
9.542704
9.100437
9.018779
9.320974
8.863807
8.559823
8.054972
9.308457
##ZVALUE=260
1.300573
1.121759
1.164675
1.524687
1.137853
1.143813
1.225471
1.570582
1.296997
1.838803
1.671910
2.855659
9.767413
41.356683
89.261532
204.356909
337.958932
557.387471
731.166601
943.813920
1016.032696
1016.032696
920.046568
757.424831
507.930517
347.296000
196.088552
122.185946
80.476999
80.867410
103.321671
121.647716
135.327578
147.760510
144.825578
129.260421
108.873844
77.929497
57.958961
34.811497
22.966862
13.726950
8.787513
5.967617
5.888939
5.894899
5.560517
5.305409
5.721450
6.308556
5.800724
5.684495
6.276965
5.851984
5.910993
5.773902
5.591512
5.407929
6.373525
6.129742
6.473660
5.551577
6.336570
6.552935
7.050633
7.276535
7.001758
6.932616
7.574558
8.826852
9.341836
9.815693
10.017753
10.714531
10.856986
11.149645
11.069775
11.553764
9.820461
10.133982
10.276437
8.783937
9.618998
8.418560
8.133650
8.401871
7.879734
8.002520
8.348823
7.910728
7.357597
7.836819
8.033514
7.931590
8.145571
7.787943
##ZVALUE=265
1.225471
1.028776
1.056790
1.013875
1.105666
1.296997
0.921488
1.081824
1.077652
1.237988
1.380444
1.317859
1.527667
2.243519
4.918575
24.357438
59.371591
153.295994
272.153616
507.398844
715.494752
902.358890
1015.996933
1015.996933
1015.996933
904.935002
670.117736
481.826663
270.590782
163.576603
98.123550
70.017576
78.839660
106.925964
126.209855
143.186450
151.938796
142.932534
130.187869
104.038715
83.064437
54.643750
36.541820
20.428896
13.007522
8.115768
6.141663
5.907416
5.383492
5.829930
5.654693
6.141663
6.180406
5.636811
5.308986
5.536675
5.139709
5.304813
5.276799
5.451441
5.862713
5.807877
5.772710
6.117821
5.643964
6.395578
6.568432
6.933808
7.290840
7.523894
7.824898
8.369684
8.946657
10.496974
9.829998
10.282993
9.992719
9.081960
8.459687
8.877516
8.090734
7.762909
8.391738
7.293820
7.656813
7.543564
7.220507
7.080436
6.930828
6.822944
7.371902
7.212758
6.978512
6.788969
7.436872
6.865859
##ZVALUE=270
0.860691
1.084805
0.956655
0.925660
1.037717
1.011491
0.947714
1.163483
0.814795
1.163483
1.435876
1.006722
1.201630
1.381636
1.653433
2.032518
2.244711
10.897517
33.704638
110.800862
213.380456
424.706936
637.871623
920.310616
1016.032696
1016.032696
1016.032696
1016.032696
866.735578
659.943819
382.998586
240.450501
116.201639
69.625974
60.681701
79.542994
104.686618
127.150416
145.559907
150.490999
146.425962
131.979585
107.561946
84.084868
56.008697
38.676858
22.785664
14.073849
8.177757
6.650686
5.708933
5.440712
5.622506
5.326867
5.638599
5.501509
5.627871
5.895495
5.719662
5.673766
5.787611
5.568862
5.277991
5.604625
5.637407
5.453825
5.662441
6.072521
6.777644
6.962419
7.468462
7.788539
7.501841
8.833408
8.662939
8.820891
8.441806
8.594990
7.482767
7.658601
7.073879
6.937981
6.829500
6.765723
6.709695
6.554723
6.749630
6.480813
6.267428
6.622672
6.487966
6.389618
6.150603
6.072521
6.150603
6.038547
##ZVALUE=275
0.844598
0.627637
0.756979
0.592470
0.829697
0.948906
0.848770
0.910759
0.988841
0.947714
0.956655
1.111627
1.139641
1.079440
1.190901
1.193881
1.387596
1.877546
1.683831
5.125403
18.734932
56.096911
164.996982
307.446718
567.422509
774.717927
1000.802517
1015.990973
1015.990973
1015.990973
994.622707
742.830634
527.055860
281.188488
163.033009
76.175928
50.238967
56.641698
77.098608
102.861524
122.276545
140.798688
146.756768
140.125751
128.467679
101.034641
81.877708
56.379437
39.113760
21.850467
13.809800
8.826852
6.088614
5.586743
5.208850
5.045533
5.103946
5.310774
5.137920
5.381703
5.869865
5.184412
5.234480
4.993677
5.377531
5.234480
5.521774
5.545616
5.858541
6.710887
6.677508
6.491542
6.988645
7.078648
7.707477
7.608533
7.857680
7.300973
7.541776
7.005930
6.953478
6.516576
6.256700
6.478429
5.928874
5.826950
5.479455
6.032586
6.004572
5.748868
5.699992
5.760789
5.697608
5.133748
5.618930
5.227923
##ZVALUE=280
0.809431
0.758767
0.800490
0.713468
0.804663
0.938773
0.996590
0.708699
0.867844
0.769496
0.947714
1.111627
0.924468
1.001954
1.160502
1.203418
1.157522
1.347661
1.513958
1.513958
1.711845
2.676845
10.129809
49.302578
119.615793
275.941491
443.370938
710.880756
917.660594
1016.031504
1016.031504
1016.031504
1016.031504
841.946602
628.175735
363.043547
217.685699
94.537735
53.117871
41.592717
51.476955
78.316927
99.950433
124.869943
138.909817
148.001909
141.133666
124.272704
104.153752
77.405572
58.281422
35.018921
23.280978
13.074875
8.972883
6.032586
5.284548
5.029440
5.111694
4.830956
4.984736
4.923940
4.991889
5.690455
5.221963
5.540848
4.786849
5.566478
5.495548
5.724430
6.022453
6.641746
6.879568
7.410645
7.112622
7.158518
6.956458
7.092953
6.790757
6.735921
6.069541
6.277561
5.988479
5.249977
5.262494
5.484819
5.658865
5.450845
5.383492
5.499721
5.443692
5.208850
5.166531
5.119443
5.163550
5.136728
##ZVALUE=285
0.558496
0.828505
0.816584
0.652671
0.647902
0.648499
0.817776
0.698566
0.690818
0.746846
0.755787
0.935793
0.808835
0.656843
1.078844
0.924468
1.266599
1.098514
1.268983
1.297593
1.509786
1.465678
1.676679
1.749992
5.986691
21.877885
75.519681
155.740976
333.375931
524.563789
805.120468
1000.706553
1016.032696
1016.032696
1016.032696
987.550020
776.143670
488.281846
310.681462
146.335959
74.333549
35.092831
33.487678
51.382780
70.209503
96.988678
116.561651
133.454800
140.003562
138.522983
126.030445
103.164911
82.778931
56.679845
39.176941
22.141933
14.050603
8.216500
5.897880
5.286932
4.860759
4.655719
4.327893
4.716516
4.690886
4.699826
5.232692
4.992485
5.311966
5.704761
5.711913
6.196499
6.303787
6.520748
6.901622
7.119775
6.267428
5.988479
5.931854
5.757809
5.954504
5.216599
5.796552
5.407929
5.024672
5.491972
4.979968
5.349517
5.280972
4.888773
5.145669
4.855990
4.971623
4.666448
4.842877
4.888773
##ZVALUE=290
0.505447
0.562668
0.766516
0.664592
0.638962
0.626445
0.635982
0.720620
0.592470
0.773668
0.743866
0.723600
0.784993
0.779629
0.932813
0.791550
0.798702
0.892878
0.995994
1.178980
1.048446
1.241565
1.328588
1.408458
1.672506
1.822710
2.669692
8.432865
38.845539
94.528794
191.828609
400.581956
619.031787
940.703750
1016.031504
1016.031504
1016.031504
1016.031504
911.551714
615.747571
410.076976
202.386975
106.682777
40.880442
26.213527
32.363534
46.305656
68.121552
86.629987
113.351941
128.529668
138.185620
134.974718
120.190978
104.115605
75.924993
56.235790
35.804510
23.690462
13.549924
9.019971
5.614758
4.802942
4.425645
4.484653
4.725456
4.380941
4.714727
4.796982
5.235672
5.592704
5.939603
5.957484
5.564690
5.800724
5.835891
5.935431
5.533695
5.631447
5.078912
5.416870
4.921556
4.727840
4.871488
4.701614
4.799962
5.127788
5.129576
4.791617
4.809499
5.021691
4.592538
4.780889
4.780889
4.734993
4.608631
##ZVALUE=295
0.795722
0.634789
0.662804
0.557899
0.658631
0.509620
0.530481
0.423789
0.632405
0.483990
0.824928
0.747442
0.755787
0.733733
0.780821
0.862479
0.814795
0.797510
1.120567
0.939965
0.972748
0.927448
0.984669
1.313686
1.277924
1.203418
1.444817
1.549721
1.884699
3.633499
19.122958
58.385730
135.432482
324.479938
524.984002
835.405588
1016.032696
1016.032696
1016.032696
1016.032696
1009.907722
743.405819
508.650541
148.902535
135.914683
27.481914
25.688410
24.235845
27.881861
43.348670
59.441924
86.624622
120.375752
124.559999
130.972862
129.298568
103.386641
99.597573
56.281686
53.292513
30.212998
22.430420
14.888644
8.401871
6.290674
4.799962
4.536510
4.226565
4.800558
4.826784
5.228519
5.684495
5.514622
6.006956
5.712509
5.778670
5.704761
5.585551
5.478859
4.873872
5.078912
4.726648
4.904866
4.727840
4.595518
4.808903
4.780889
4.735589
4.644990
4.618764
4.158616
4.258752
4.711747
4.697442
4.464984
4.464984
##ZVALUE=300
0.451803
0.487566
0.425577
0.626445
0.351667
0.525713
0.567436
0.601411
0.545979
0.479817
0.520945
0.564456
0.543594
0.559688
0.549555
0.636578
0.663996
0.611544
0.708699
0.948906
0.881553
0.828505
0.849962
1.238585
1.041889
1.120567
1.323819
1.222491
1.619458
1.883507
1.599789
2.149940
8.597970
31.379461
107.279420
213.971734
447.080731
677.698851
985.904932
1016.031504
1016.031504
1016.031504
1016.031504
937.350988
622.803569
404.812694
199.973583
105.846524
38.818717
18.288493
17.861724
24.792552
38.933754
54.759979
78.231692
96.521974
116.706491
123.890638
120.163560
112.976432
92.900991
77.097416
53.560734
37.892461
22.683740
14.747977
8.596778
6.432533
5.163550
4.849434
4.990697
5.267859
5.225539
5.487800
5.391836
5.205870
5.293489
5.456805
5.140901
4.780889
4.776716
4.738569
5.032420
4.984736
4.781485
4.445910
4.342794
4.852414
4.772544
4.465580
4.274845
4.356503
4.257560
4.265904
4.403591
4.136562
##ZVALUE=305
0.382662
0.337958
0.301600
0.414848
0.487566
0.469685
0.519753
0.359416
0.337958
0.452995
0.506639
0.459552
0.353456
0.412464
0.517964
0.485778
0.433922
0.513792
0.382662
0.653863
0.597835
0.719428
0.768900
0.890493
0.847578
0.778437
0.969768
1.063943
1.001954
1.208782
1.230836
1.403689
1.243949
2.004504
3.154874
20.202994
58.068633
169.862509
311.454535
583.162904
825.001597
1015.973687
1015.973687
1015.973687
1015.973687
996.626616
786.736012
496.657491
306.128860
135.967731
64.833760
21.605492
12.795925
15.719533
22.894740
38.071871
53.435564
75.706840
93.950629
110.621452
116.903782
116.172433
108.412504
90.092421
72.767735
50.316453
36.281943
21.542907
14.342666
8.449554
6.501675
5.546808
5.362630
5.252957
4.854798
5.008578
4.894733
4.868507
4.990697
4.838705
4.652739
4.667640
4.605651
4.763603
4.473925
4.287958
4.527569
4.216433
4.330873
4.502535
4.160404
4.403591
4.222989
4.296899
4.047751
4.313588
##ZVALUE=310
0.624657
0.554919
0.336766
0.533462
0.453591
0.431538
0.573993
0.550747
0.583529
0.458956
0.585914
0.595450
0.768900
0.514984
0.742674
0.541806
0.608563
0.606775
0.638962
0.703931
0.703931
0.786781
0.751615
0.648499
0.828505
0.797510
0.948906
0.988841
1.090765
0.978708
1.166463
1.252890
1.370907
1.340508
1.759529
1.854897
2.071857
8.626580
29.788613
101.205707
202.265978
426.216722
651.400685
970.184803
1016.103625
1016.103625
1016.103625
1016.103625
965.789557
648.209453
431.352854
214.874744
111.655593
38.000941
15.920997
10.448694
13.508797
21.416545
30.710697
49.107671
64.621568
86.430907
98.586679
109.114647
111.084580
100.934505
89.214444
69.142580
52.619576
33.823848
24.008751
14.853477
10.208488
6.720424
5.808473
4.914999
4.941821
4.513860
4.503727
4.534721
4.433990
4.562736
4.530549
4.615784
4.587770
4.742742
4.657507
4.536510
4.546642
4.352927
4.602671
4.216433
4.334450
4.393458
4.210472
4.248619
##ZVALUE=315
0.539422
0.373721
0.341535
0.385642
0.319481
0.469685
0.384450
0.408888
0.422597
0.525713
0.457764
0.577569
0.436902
0.468493
0.459552
0.429749
0.534654
0.649691
0.556707
0.727773
0.540614
0.558496
0.565648
0.520945
0.605583
0.672936
0.625849
0.763535
0.738502
0.915527
0.834465
0.983477
1.003742
1.093745
1.272559
1.290441
1.426935
1.712441
1.755953
3.825426
14.446974
64.651966
148.000717
346.935391
556.738973
892.074704
1016.018987
1016.018987
1016.018987
1016.018987
1016.018987
808.727741
572.968721
304.831862
162.120461
57.433844
22.477508
9.792447
9.330511
12.981892
18.360615
30.120611
42.724609
61.555505
78.539848
95.697641
103.281736
103.074908
98.211765
81.730485
68.444610
50.124526
35.466552
21.292567
14.147758
8.855462
6.781816
5.507469
5.000830
4.365444
4.303455
4.137754
4.376769
4.360676
4.429817
4.370809
4.237890
4.429817
4.205704
4.420877
4.094839
4.293919
4.516840
4.272461
4.015565
4.120469
##ZVALUE=320
0.327826
0.537634
0.531673
0.531673
0.341535
0.559688
0.388622
0.439882
0.325441
0.456572
0.246763
0.471473
0.429749
0.440478
0.563860
0.502467
0.491738
0.443459
0.536442
0.460744
0.466704
0.766516
0.641942
0.594854
0.697970
0.637770
0.490546
0.678897
0.815988
0.710487
0.888705
0.865459
0.810623
0.904799
1.038909
1.006722
1.159906
1.034737
1.438856
1.380444
1.762509
2.110600
8.906722
30.326843
107.920766
219.720006
449.492931
671.630502
983.325839
1016.031504
1016.031504
1016.031504
1016.031504
981.312394
660.063624
424.033999
194.035769
99.572539
34.123659
14.119744
7.767677
8.359551
11.420846
16.201735
26.719570
38.462877
56.709647
71.242452
88.605881
97.521544
98.319650
93.328953
79.735518
65.949559
46.825409
35.095811
21.812916
13.983846
8.510947
6.282926
4.961491
4.556775
4.444718
4.554987
4.194975
4.197955
4.295707
4.389882
4.230738
4.208684
4.134774
4.068613
4.222989
4.003644
3.995895
3.844500
##ZVALUE=325
0.454783
0.330806
0.321865
0.397563
0.239611
0.383854
0.362992
0.293851
0.514984
0.367761
0.439882
0.458956
0.284910
0.496507
0.455976
0.465512
0.433922
0.466704
0.466704
0.528693
0.579953
0.332594
0.419617
0.501871
0.570416
0.566840
0.526905
0.814795
0.816584
0.725985
0.757575
0.638962
0.879765
0.791550
0.755787
0.976920
0.901818
1.070499
1.157522
1.178980
1.430511
1.472831
1.629591
1.963973
3.682971
23.850799
64.349771
174.747705
321.837664
611.577630
863.000751
1016.033888
1016.033888
1016.033888
1016.033888
990.134478
764.679909
466.557741
280.115604
120.889544
56.347847
17.535686
8.600950
7.291436
7.916689
10.888577
15.380979
25.447607
37.249923
55.982471
68.908930
83.652735
91.208816
92.870593
86.738467
73.075891
60.191751
42.802691
31.102896
18.562675
12.304783
8.019805
6.339550
4.880428
4.516840
4.384518
4.256964
4.079938
3.728867
3.935695
4.067421
4.008412
3.996491
3.870726
4.021525
3.631711
##ZVALUE=330
0.413656
0.299811
0.438690
0.341535
0.313520
0.452995
0.329614
0.256896
0.321865
0.309944
0.518560
0.369549
0.456572
0.371933
0.271797
0.272989
0.413656
0.578761
0.429749
0.426769
0.551939
0.596642
0.533462
0.581741
0.547767
0.340939
0.485778
0.374913
0.593662
0.640750
0.696778
0.735521
0.673532
0.657439
0.740886
0.806451
0.979900
0.791550
0.975728
1.033545
0.984669
1.271963
1.130700
1.244545
1.551509
1.803637
2.319813
10.191798
33.734441
115.646720
224.946737
468.478799
706.163645
1007.258892
1016.040444
1016.040444
1016.040444
1016.040444
922.772884
589.044690
371.554494
169.943571
83.021522
27.697682
11.620522
6.999969
7.148981
7.751584
10.002851
16.411543
23.753643
36.429763
48.894882
66.887736
77.689886
86.414814
85.969567
78.944564
69.739819
53.013563
41.084886
27.090907
19.512773
12.278557
8.602738
6.124973
5.024672
4.420877
4.105568
3.958941
3.783703
4.128814
3.782511
3.765821
3.783703
3.792644
##ZVALUE=335
0.261664
0.427961
0.321865
0.208616
0.290871
0.192523
0.145435
0.232458
0.144839
0.452995
0.339746
0.367761
0.469685
0.306964
0.446439
0.431538
0.549555
0.369549
0.289679
0.310540
0.432730
0.372529
0.335574
0.488758
0.368953
0.446439
0.471473
0.488758
0.515580
0.657439
0.420809
0.444651
0.549555
0.688434
0.707507
0.594854
0.865459
0.730753
0.859499
0.803471
0.781417
0.860691
0.876784
1.014471
1.056790
1.321435
1.571774
1.621842
1.897812
3.745556
22.531748
61.591864
177.381635
327.921510
613.446832
889.045596
1016.031504
1016.031504
1016.031504
1016.031504
1016.031504
805.926919
472.236872
278.407931
112.258792
49.567819
15.235543
8.159876
6.758571
6.437898
7.641912
10.002851
15.052557
22.054911
35.231709
46.687722
61.669946
72.315931
80.779791
80.573559
73.677897
65.007806
52.053928
41.645765
27.933717
20.187497
12.318492
8.877516
5.992651
4.831553
4.263520
4.008412
3.838539
3.639460
3.472567
3.635883
##ZVALUE=340
0.450611
0.421405
0.447631
0.489950
0.409484
0.327826
0.424981
0.428557
0.281930
0.311732
0.412464
0.318885
0.414848
0.342727
0.369549
0.563860
0.498891
0.573993
0.580549
0.570416
0.463724
0.695586
0.542998
0.490546
0.466704
0.622869
0.609756
0.665784
0.599623
0.527501
0.590682
0.642538
0.702739
0.543594
0.682473
0.743866
0.743866
0.745654
0.776649
0.901818
0.814795
0.849962
0.911951
0.996590
0.946522
0.897646
1.268983
1.390576
1.406670
1.893640
1.722574
2.650619
8.422732
43.131709
107.843876
275.337696
475.593805
800.941586
1016.134620
1016.134620
1016.134620
1016.134620
1016.134620
876.971483
608.014464
311.161876
165.977478
62.956810
24.011731
8.314848
6.967783
6.626844
6.570816
7.595420
9.586811
14.689565
21.420717
33.220649
42.903423
57.872534
67.397952
74.312687
75.483918
69.654584
62.411427
50.208569
39.210916
26.701689
19.740462
12.943745
8.799434
5.803704
4.826784
3.883839
3.951788
3.810525
##ZVALUE=345
0.285506
0.344515
0.260472
0.404716
0.395775
0.277758
0.267625
0.414848
0.378489
0.309944
0.451803
0.336766
0.242591
0.390410
0.399947
0.296831
0.338554
0.262856
0.363588
0.381470
0.382662
0.282526
0.540614
0.358820
0.423789
0.378489
0.327826
0.381470
0.444651
0.429749
0.460744
0.486970
0.440478
0.500679
0.764728
0.559688
0.613928
0.520945
0.652671
0.619888
0.549555
0.637770
0.792742
0.814795
0.798702
0.812411
0.832677
1.016855
1.023412
1.127720
1.139641
1.132488
1.291633
1.736879
3.630519
23.302436
66.839457
182.136893
332.525969
611.169934
852.344632
1016.072035
1016.072035
1016.072035
1016.072035
965.541601
719.927549
423.429012
237.507820
91.793537
38.340688
12.244582
7.387996
6.210804
5.855560
5.946755
6.408691
8.599758
12.218952
20.379424
28.510690
42.300820
51.549673
61.581731
66.783428
69.661736
66.437721
58.455467
49.787760
38.004518
28.806925
18.217564
12.910962
8.258820
6.061792
4.539490
##ZVALUE=350
0.249743
0.327826
0.217557
0.306964
0.326633
0.263453
0.328422
0.277758
0.240803
0.320673
0.303984
0.252724
0.313520
0.414848
0.359416
0.488758
0.562668
0.418425
0.169873
0.344515
0.479817
0.322461
0.371933
0.414848
0.395775
0.373721
0.392795
0.334978
0.409484
0.389814
0.383854
0.431538
0.410676
0.398755
0.496507
0.478625
0.447631
0.322461
0.561476
0.584722
0.602603
0.602603
0.629425
0.514984
0.777841
0.696778
0.644922
0.770688
0.838637
0.962615
0.913739
1.030564
1.152754
1.135468
1.231432
1.574755
2.195835
12.019873
38.637519
123.279691
240.073800
483.985543
709.028840
995.349884
1016.031504
1016.031504
1016.031504
1016.032100
819.845796
487.448573
296.550989
133.563876
58.782697
15.592575
7.667542
5.942583
5.444884
5.272627
5.148649
6.001592
7.696748
12.043715
16.860962
25.659800
34.558773
45.805573
54.903626
60.657859
64.098835
61.012506
55.225492
45.328736
36.435723
25.448799
18.646717
12.334585
##ZVALUE=355
0.143647
0.389814
0.397563
0.209808
0.356436
0.456572
0.431538
0.317693
0.177622
0.329614
0.398755
0.294447
0.357628
0.329614
0.355840
0.407696
0.296831
0.337958
0.359416
0.409484
0.328422
0.277758
0.354648
0.394583
0.449419
0.462532
0.412464
0.328422
0.372529
0.357628
0.507832
0.508428
0.503659
0.621676
0.504851
0.469685
0.494719
0.444651
0.593662
0.489950
0.422597
0.601411
0.681877
0.672936
0.870824
0.768900
0.652671
0.652671
0.775456
0.694990
0.740886
0.776649
0.790954
1.019835
1.255870
1.249909
1.261830
1.560450
1.751781
5.807877
21.224618
82.673430
172.403455
372.686386
593.137741
913.004875
1016.031504
1016.031504
1016.031504
1016.031504
907.361507
602.613688
376.177430
164.639950
76.957941
22.424459
8.858442
5.831718
5.295873
4.993677
4.722476
5.092621
5.289912
7.010698
9.659529
14.999509
21.550655
31.087995
38.738847
48.894882
53.799748
57.319999
56.080818
50.353408
44.040680
33.655763
##ZVALUE=360
0.373721
0.178814
0.156760
0.256896
0.206828
0.267625
0.233650
0.044703
0.287890
0.535846
0.276566
0.268817
0.275970
0.244975
0.448823
0.481606
0.265837
0.347495
0.255704
0.296831
0.347495
0.277758
0.374913
0.292659
0.414848
0.244975
0.533462
0.482798
0.367761
0.376701
0.409484
0.464916
0.481606
0.489950
0.511408
0.509620
0.494719
0.401735
0.569820
0.474453
0.633597
0.561476
0.459552
0.420809
0.594854
0.596642
0.589490
0.651479
0.820756
0.669956
0.882745
0.791550
0.813603
0.995994
0.979900
1.114607
1.062751
1.153946
1.301765
1.429915
1.739860
2.713799
9.281635
45.010448
109.785795
275.647640
461.549759
755.326748
990.075469
1016.031504
1016.031504
1016.031504
990.064740
689.492822
464.296937
232.440829
118.818879
40.723681
14.800429
5.976558
5.184412
5.171895
4.670620
4.395843
4.502535
4.661679
5.725622
8.192658
11.287928
17.526746
24.626851
34.607649
41.058660
48.017502
51.093698
51.814914
##ZVALUE=365
0.194907
0.347495
0.223517
0.189543
0.237823
0.294447
0.243783
0.273585
0.363588
0.343919
0.457764
0.311732
0.381470
0.337958
0.333786
0.406504
0.269413
0.346899
0.376701
0.256896
0.414848
0.311732
0.319481
0.331998
0.465512
0.577569
0.455976
0.382662
0.318885
0.223517
0.417829
0.477433
0.397563
0.441670
0.378489
0.424981
0.392795
0.541806
0.424981
0.498891
0.470877
0.461936
0.584722
0.624657
0.686646
0.466704
0.546575
0.583529
0.519753
0.668764
0.744462
0.835657
0.709891
0.689626
0.668764
0.929832
0.986457
0.925660
1.027584
1.228452
1.282692
1.432896
1.599789
1.861453
4.158616
25.020838
67.940950
184.900761
347.431898
642.122626
868.038535
1016.032696
1016.032696
1016.032696
999.584794
728.378892
515.409708
282.761455
154.329538
55.438876
21.511912
6.888509
5.346537
4.688501
4.487634
4.106760
3.765821
3.774762
4.024506
4.767776
6.204844
9.859800
14.491677
21.707416
28.546453
36.673546
##ZVALUE=370
0.384450
0.287890
0.366569
0.205636
0.160933
0.287890
0.286698
0.166893
0.293851
0.396967
0.465512
0.454783
0.280738
0.349879
0.316501
0.226498
0.222921
0.314713
0.116825
0.215769
0.248551
0.316501
0.338554
0.253916
0.366569
0.390410
0.445843
0.332594
0.320673
0.339746
0.317693
0.258684
0.326633
0.383854
0.196695
0.259876
0.343919
0.243783
0.409484
0.537634
0.482798
0.456572
0.448823
0.458956
0.357628
0.455976
0.493526
0.471473
0.509620
0.538826
0.568628
0.736713
0.601411
0.674725
0.591874
0.758767
0.672936
1.014471
0.894666
1.085997
0.889897
1.177788
1.139641
1.277924
1.457930
1.602769
2.301931
12.742877
43.369532
141.437650
265.748501
507.832766
738.785863
1007.831693
1016.031504
1016.031504
1016.031504
837.224722
612.460971
338.358879
189.623833
73.736906
33.032894
10.563731
5.650520
4.604459
4.095435
3.891587
3.688931
3.563762
3.577471
3.726482
4.127622
5.781651
8.311868
12.900829
##ZVALUE=375
0.237823
0.138879
0.193715
0.201464
0.228882
0.146627
0.140667
0.047684
0.253916
0.335574
0.202656
0.198483
0.100732
0.155568
0.321865
0.288486
0.335574
0.236630
0.269413
0.198483
0.222921
0.008941
0.388622
0.249743
0.166893
0.331998
0.226498
0.223517
0.285506
0.338554
0.336766
0.320673
0.214577
0.328422
0.370741
0.300407
0.387430
0.322461
0.285506
0.372529
0.400543
0.267625
0.383854
0.470877
0.634789
0.353456
0.561476
0.307560
0.484586
0.471473
0.502467
0.494719
0.528693
0.712872
0.563860
0.606775
0.519753
0.335574
0.645518
0.649691
0.693798
0.787973
0.894666
0.933409
1.016855
1.031756
1.192689
1.449585
1.738667
5.948544
22.917986
85.123777
182.448626
405.035019
628.506541
935.914516
1016.031504
1016.031504
1016.031504
961.720943
740.630627
448.266864
276.602507
124.098659
60.643554
18.799901
7.546544
4.454851
4.154444
3.935695
3.613830
3.476739
3.190637
3.290772
3.239512
3.523827
##ZVALUE=380
0.183582
0.183582
0.231862
0.184774
0.185966
0.226498
0.285506
0.214577
0.328422
0.162721
0.212789
0.301600
0.216961
0.123978
0.421405
0.169873
0.174642
0.199676
0.289679
0.330806
0.339746
0.218749
0.130534
0.196695
0.149608
0.238419
0.355840
0.284910
0.324845
0.203848
0.474453
0.379682
0.366569
0.347495
0.314713
0.278950
0.279546
0.357628
0.133514
0.282526
0.312924
0.421405
0.346899
0.513792
0.432730
0.421405
0.298619
0.384450
0.315905
0.530481
0.448823
0.260472
0.404716
0.513792
0.458956
0.454783
0.475645
0.631809
0.458956
0.828505
0.646710
0.588894
0.619888
0.654459
0.919700
0.833869
0.997782
1.019835
1.305938
1.407862
1.774430
2.844930
16.545653
52.787662
160.429478
294.891000
558.501482
809.348822
1016.031504
1016.031504
1016.031504
1016.031504
847.401619
622.592568
359.483957
210.638642
84.549785
37.556887
10.251999
5.030632
4.121661
3.925562
3.441572
3.440976
3.318787
3.331900
##ZVALUE=385
0.231862
0.219941
0.219941
0.201464
0.101924
0.134706
0.204444
0.150800
0.235438
0.229478
0.263453
0.155568
0.183582
0.153780
0.223517
0.234842
0.241995
0.243783
0.189543
0.323653
0.201464
0.212789
0.283718
0.271797
0.253916
0.242591
0.198483
0.315905
0.298619
0.240803
0.132918
0.231862
0.189543
0.385642
0.299811
0.325441
0.295639
0.528693
0.335574
0.283718
0.404716
0.329614
0.317693
0.181794
0.182986
0.411868
0.290871
0.356436
0.406504
0.473857
0.388622
0.324845
0.463724
0.445843
0.324845
0.408888
0.478625
0.406504
0.581741
0.521541
0.731945
0.687838
0.651479
0.537634
0.809431
0.755787
0.787973
1.010895
1.050830
1.225471
1.438856
1.504421
1.595616
2.059937
5.936623
36.599636
95.223784
239.512920
416.484475
724.555850
959.326029
1016.044021
1016.044021
1016.044021
996.723771
729.386806
509.443879
269.730687
150.709748
60.193539
23.159981
6.287694
4.197955
3.586411
3.294945
3.282428
##ZVALUE=390
0.131726
0.139475
0.077486
0.133514
0.171661
0.353456
0.189543
0.206828
0.301600
0.208616
0.179410
0.202656
0.149608
0.210404
0.301600
0.226498
0.154972
0.209808
0.248551
0.112653
0.093579
0.135899
0.144839
0.143647
0.226498
0.214577
0.230670
0.251532
0.180602
0.289679
0.384450
0.323653
0.309944
0.271797
0.231862
0.318885
0.091791
0.262856
0.369549
0.246763
0.355840
0.224710
0.502467
0.295639
0.436902
0.443459
0.377893
0.302792
0.375509
0.369549
0.352859
0.367761
0.412464
0.471473
0.368953
0.347495
0.427961
0.370741
0.498891
0.532866
0.475645
0.563860
0.628829
0.544786
0.672936
0.769496
0.922680
0.853539
0.931621
1.114607
1.237988
1.231432
1.337528
1.482964
1.451969
1.517534
3.132820
19.534826
63.365698
191.245675
350.189805
638.992786
856.778026
1016.031504
1016.031504
1016.031504
1016.031504
866.838694
653.641820
386.979580
221.556425
89.522004
39.491653
10.551810
4.781485
3.761649
##ZVALUE=395
0.207424
0.192523
0.083447
0.042915
0.239611
0.240803
0.124574
0.233650
0.265837
0.202656
0.192523
0.332594
0.211596
-0.004768
0.129938
0.275970
0.185966
0.227690
0.265837
0.030994
0.200868
0.205636
0.244975
0.340939
0.190735
0.137687
0.227690
0.213981
0.130534
0.239611
0.131726
0.067949
0.254512
0.106692
0.226498
0.286698
0.240803
0.218749
0.244975
0.211596
0.248551
0.261664
0.316501
0.476837
0.359416
0.425577
0.295639
0.264645
0.277758
0.285506
0.312924
0.298619
0.170469
0.346899
0.418425
0.448823
0.426769
0.564456
0.464916
0.574589
0.490546
0.556707
0.578761
0.683665
0.647902
0.750422
0.647902
0.864863
0.862479
0.980496
1.138449
0.993609
1.031756
1.141429
1.202822
1.337528
1.218915
1.549721
2.105832
11.035800
41.258931
141.745806
265.787840
502.910018
725.261569
1007.748842
1016.028523
1016.028523
1016.028523
1005.776525
788.483620
474.392772
289.026499
123.374462
57.196617
17.922521
##ZVALUE=400
-0.066757
-0.059605
-0.076890
-0.032783
-0.001788
-0.005960
0.030994
0.084639
-0.032783
0.023842
0.015497
0.010729
-0.022650
-0.149608
0.099540
-0.076890
0.061989
-0.106692
-0.023842
0.086427
-0.104904
-0.076890
0.034571
-0.049472
0.025630
0.044703
0.008941
0.004768
0.091791
0.144839
0.044703
0.114441
-0.018477
0.053644
0.085831
-0.003576
-0.233650
0.097752
0.141859
0.150800
0.066757
0.146627
0.132918
0.135899
0.200868
0.297427
0.130534
0.162721
0.065565
0.192523
0.146627
0.103712
0.128746
0.212789
0.206828
0.291467
0.294447
0.202656
0.108480
0.260472
0.226498
0.222921
0.297427
0.352859
0.380874
0.500679
0.386834
0.572801
0.503659
0.558496
0.678897
0.904799
0.795722
0.892878
0.734925
0.685453
0.767708
0.957847
1.042485
1.237988
1.496673
5.434752
21.677613
81.077814
172.378421
374.521017
581.660867
871.838927
1015.836596
1015.836596
1015.836596
1015.836596
850.922465
556.886792
363.319516
179.117918
##END
