##TITLE=FDDW2
##FORMAT=SPECTACLE-ASCII V-1.2
##DATA TYPE=ULTRAVIOLET SPECTRUM
##SECOND TYPE=ULTRAVIOLET SPECTRUM
##DATE=12/26/17
##TIME=12:42:30
##SPECTROMETER/DATA SYSTEM=SPECTACLE
##XUNITS=NM EM
##YUNITS=ENERGY
##YFACTOR=1
##FIRSTX=220
##LASTX=410
##NPOINTS=96
##3DDATA=Equidistant
##ZUNITS=NM EX
##FIRSTZ=210
##LASTZ=400
##ZPOINTS=39
##XYDATA=(Y..Y)
##ZVALUE=210
13.118982
14.366508
11.150837
11.324883
10.000467
8.561611
8.352995
7.591844
6.160736
4.594922
4.242659
2.709627
2.240539
1.900792
2.213717
2.022982
1.589656
2.644658
1.784563
2.672672
2.767444
2.172589
2.232790
2.914667
3.717542
3.782511
5.143881
5.681515
7.274747
8.734465
10.013580
9.353757
11.756420
12.001991
12.260675
12.291670
12.824535
11.425614
11.612773
13.123751
11.336803
10.655522
10.715723
9.585619
10.129809
10.575652
10.013580
9.542704
7.585883
7.950664
8.027554
7.616878
6.936789
7.187724
6.516576
6.090999
5.848408
5.952716
6.534457
5.765557
5.772710
5.365610
5.611777
5.641580
5.617738
5.012751
5.402565
5.739927
5.990863
6.231666
7.487535
8.621812
9.844899
9.485483
10.219812
10.595918
10.736585
9.902716
9.612441
8.609891
8.392930
7.092953
7.462502
6.125569
6.027818
4.213452
5.335808
4.337430
4.525781
5.536675
7.929802
10.835528
13.049841
18.365979
20.412803
25.550723
##ZVALUE=215
35.814643
34.713745
28.521419
21.099448
19.808412
15.414953
15.555620
14.963746
13.978481
13.776422
10.201931
9.734631
5.753636
5.120635
2.800822
2.657771
2.335906
2.509952
2.012849
1.795888
2.567768
2.634525
2.742410
3.649592
3.829598
4.731417
7.018447
7.939935
8.741617
10.331869
11.165738
13.180971
13.412833
15.676618
15.315413
15.510917
15.407801
16.517639
14.287829
14.973879
13.899803
14.294982
13.263822
13.056993
11.827946
11.830926
10.858774
10.091662
10.247827
7.928610
8.652806
8.559823
7.982850
7.169843
7.287860
7.404685
7.222891
7.098913
5.970597
6.304979
5.973577
6.218553
6.444454
5.780458
5.683899
5.351901
5.801916
5.859733
6.290674
7.295609
7.139444
8.062720
8.289814
8.145571
8.999705
10.277629
10.488629
9.461641
10.333657
8.482933
8.668900
8.074641
5.876422
6.137490
5.348921
4.924536
4.570484
4.562736
4.429817
4.136562
4.498959
3.780723
4.426837
5.085468
7.210970
9.471774
##ZVALUE=220
76.563954
80.528855
72.736740
66.045523
59.018731
42.261481
35.380721
26.629567
24.904609
23.710728
25.010705
23.801923
23.506880
17.601848
13.510585
10.225773
7.344484
4.114509
3.775954
2.589822
3.117919
3.247857
3.062487
3.193617
4.451871
5.275607
7.179976
8.287430
11.453629
12.844801
13.668537
14.964938
17.523766
17.535686
20.617843
18.718839
20.463467
19.774437
19.310713
20.254850
17.627478
17.103553
16.760826
15.627742
15.267730
14.743805
13.018847
13.148785
11.369586
11.585951
10.421872
11.448860
10.982752
9.459853
8.658767
9.878874
8.535981
7.876754
8.483529
7.947683
7.466674
7.741451
7.669926
6.872416
6.851554
7.362962
7.061958
7.043481
7.086992
7.471442
7.754564
8.970499
10.274649
10.289550
11.606812
11.774898
9.479523
11.259913
9.285808
9.399652
8.796453
8.318424
8.150935
6.803870
6.204844
5.823970
5.012751
5.487800
4.705787
4.536510
3.883839
3.436804
5.118847
4.158616
3.694892
4.404783
##ZVALUE=225
102.252960
104.416609
118.938684
133.221745
132.670999
122.039914
103.805661
77.294707
61.341524
45.250654
37.260652
37.357807
39.432645
39.044619
36.047697
32.387972
23.750663
20.301938
13.690591
9.390712
7.020831
3.763437
3.930926
4.732609
4.903674
6.273985
7.150769
9.369850
10.736585
13.517737
14.985800
18.432736
18.203855
20.152926
19.926429
21.149516
21.536946
20.010471
20.061731
19.553900
17.945766
17.986894
18.324852
17.233491
16.092658
15.866756
13.835430
13.985634
13.193488
11.928678
12.927651
12.010932
10.930896
11.980534
11.955500
9.902716
10.692477
11.380911
9.615421
10.554790
9.834766
9.767413
8.503795
9.093881
8.480549
7.842779
8.932948
8.354783
9.171963
9.463429
9.523630
10.369420
10.025501
10.636449
11.706948
11.109710
10.829568
10.677576
10.508895
8.801818
9.504557
7.978678
6.619692
6.680489
6.960630
5.870461
6.670952
6.121993
5.729795
5.940795
5.347729
4.940629
4.721880
4.481673
5.611777
5.467534
##ZVALUE=230
65.119863
73.418617
106.610656
158.943534
200.311542
222.834945
227.329731
215.702653
191.288590
140.704513
107.416511
80.683827
60.657859
56.174994
58.492422
59.828758
60.221553
57.374835
46.338439
41.371584
25.463700
20.476580
12.883544
7.784963
6.284714
5.596876
7.615685
7.956624
10.963678
11.693835
12.539625
14.593601
16.641617
14.835596
16.797781
17.925501
17.166734
19.183755
19.169450
17.065406
17.931461
16.280413
17.617941
17.088652
15.400648
14.697909
15.377998
14.776587
12.637973
13.112426
12.745857
11.486411
12.156963
11.935830
11.964440
12.221932
11.266470
11.293888
10.504723
10.938644
10.403991
10.390878
9.404421
10.492802
11.225939
10.528564
9.962916
10.037422
10.627508
10.472536
11.004806
13.129711
10.663867
12.075901
12.103915
13.221502
12.537837
12.522936
10.731816
10.980964
10.946989
10.079741
9.178519
8.422732
8.588433
7.979870
6.664991
7.347465
6.360412
6.883740
7.208586
6.638765
6.314516
6.926656
6.273985
6.150603
##ZVALUE=235
18.831491
21.629930
43.461919
91.234446
146.173835
222.610831
274.019837
333.798528
355.057716
353.927016
307.719707
247.792602
171.243548
124.355555
96.387863
84.905624
79.783797
86.645484
89.763999
91.380477
83.139539
67.887902
55.888891
36.342740
24.693608
16.214848
10.772943
8.454919
8.011460
9.494424
10.054708
10.198951
11.273623
11.945963
12.946725
13.213754
13.164878
14.185905
12.880564
13.316870
14.995933
13.433695
14.168620
14.497638
12.768507
14.422536
13.749599
12.729764
14.692545
13.171434
12.632608
12.153983
12.471676
12.243986
12.567639
11.324883
11.548996
12.535453
11.065602
11.293888
11.565685
10.785460
11.504889
11.597872
11.354685
10.945797
11.184812
10.674596
11.437535
12.073517
12.792945
14.903545
13.410449
14.059544
13.320446
15.518665
14.286637
12.301803
12.953877
12.020469
11.058450
11.292696
10.426641
9.703636
9.154677
8.132458
8.032918
8.700490
8.071661
7.620454
7.995963
7.914901
7.439852
7.476807
7.607937
7.145405
##ZVALUE=240
1.452565
1.710653
6.700754
17.959476
47.171712
84.186792
164.082646
245.135427
358.485579
428.844690
477.167964
467.887521
426.271558
335.453749
270.982981
172.778964
127.439499
94.336867
89.953542
103.038549
105.088949
108.998418
112.043619
99.279881
81.261992
61.813593
43.365955
32.713413
19.636750
14.174581
10.112524
9.894967
9.341836
8.464456
9.076595
10.249615
10.384917
10.856986
11.529922
11.999607
12.083650
11.791587
11.761785
12.496710
12.716651
12.778640
12.728572
12.787580
13.428926
12.476444
11.771917
11.145473
11.315942
11.228919
10.781884
11.331439
10.752678
11.325479
11.189580
11.008978
10.834932
11.642575
10.803938
11.260509
11.711717
10.249615
10.035634
10.765791
10.439754
12.345910
12.649894
12.195706
12.500882
14.363527
12.520552
14.514923
13.212562
12.543797
13.058782
11.681914
10.537505
10.074973
10.075569
9.601712
9.757876
8.654594
9.330511
8.363724
8.704662
8.228421
8.010864
8.225441
8.765459
8.252859
7.713437
7.104874
##ZVALUE=245
1.194477
1.436472
1.421571
1.423955
3.804564
11.660457
37.052631
73.742867
159.572959
245.730877
359.730721
453.199744
523.141623
541.504622
517.688990
439.319611
356.421471
246.733427
178.704858
110.148787
93.372464
95.374584
107.282996
116.864443
124.462843
120.868683
107.940435
91.084838
68.595409
53.471923
36.323667
21.638870
15.217662
10.488629
9.069443
8.803606
9.465814
10.418892
10.595918
11.511445
10.876656
11.132956
11.971593
12.036562
11.883974
11.380911
12.135506
11.939406
12.298822
11.552572
10.976791
11.338592
10.805726
11.445880
10.365844
9.794831
9.543896
10.796785
9.800792
9.456873
8.893609
9.434819
9.310842
9.171963
8.592606
8.275509
8.527637
9.508729
10.094643
10.007620
10.423660
11.614561
11.401772
11.113882
12.298822
11.722445
11.482835
11.543632
10.537505
9.096861
9.736419
9.889603
9.710789
8.455515
8.742809
7.512569
7.622838
8.086562
7.352829
7.746816
6.600618
6.373525
6.802678
7.279515
6.890893
7.837415
##ZVALUE=250
0.959635
1.186728
0.946522
1.589656
1.346469
1.797676
2.204776
6.444454
25.503635
57.708621
135.465860
226.768851
327.129960
473.029017
559.197664
613.095760
613.831878
551.919937
463.320613
320.965648
224.174857
149.589777
97.549558
85.372925
96.574426
109.907985
128.548741
131.816864
127.459764
118.345618
101.500750
76.662898
56.839585
34.728646
24.102926
15.351772
12.994409
11.953712
10.502934
11.695623
11.933446
13.238788
13.045669
12.926459
12.146831
11.937618
12.314916
12.426972
11.251569
11.700988
11.330843
11.686683
11.195540
10.357499
9.963512
9.581447
9.568930
9.487867
9.156466
8.440614
8.920431
8.810759
7.985830
8.088946
8.743405
8.626580
8.173585
7.216930
8.269548
8.767843
8.510947
8.439422
9.094477
9.437799
8.727908
9.579659
9.224415
8.487701
8.986592
8.341670
8.067489
7.955432
7.119775
7.554889
7.184744
7.102489
6.808639
6.983876
6.117821
6.421804
6.197691
6.133914
5.496740
5.498528
6.026626
5.963445
##ZVALUE=255
0.783801
0.757575
1.014471
1.100898
1.157522
1.406670
1.384616
1.109838
1.590848
3.949404
17.890930
44.505000
88.675618
187.980533
292.903781
452.737808
557.441711
661.265850
693.186522
649.610758
566.253662
454.003811
293.138623
189.035535
108.136535
85.420609
82.061887
96.348524
119.998455
133.075714
139.852762
136.446953
126.423836
102.176666
83.137751
57.109594
40.930510
26.484728
20.397902
14.899969
13.973713
13.558865
13.627410
13.979673
13.897419
13.700724
13.456941
12.354851
13.040900
12.468696
12.407899
11.503696
11.647940
10.301471
9.707808
9.346604
9.460449
9.123683
8.335710
8.478761
7.698536
8.079410
7.747412
7.589459
7.345676
7.509589
6.925464
6.976724
7.260442
7.042885
7.462502
8.293986
8.124709
8.111000
7.943511
8.411407
8.509755
7.975698
7.337928
6.397963
6.642938
6.720424
6.331801
6.209612
5.878806
5.645752
5.673766
5.154610
5.826950
4.922748
5.503893
5.541444
4.602671
5.287528
5.413890
4.950762
##ZVALUE=260
0.879765
0.893474
0.954866
0.957847
1.173615
0.939965
0.920892
1.151562
1.009703
1.135468
1.264811
2.030730
7.286668
29.998422
65.112710
151.086450
254.033804
377.655625
554.431677
664.530993
753.231645
752.285719
653.119683
540.284514
365.734696
251.483917
146.204829
97.985864
73.273778
79.743862
100.361705
121.042728
138.944983
146.473646
143.971443
133.083463
112.051964
83.223581
65.081716
43.914914
31.752586
21.318793
17.869473
14.408827
15.087724
14.600754
13.967752
13.446808
12.725592
12.721419
12.397766
11.557937
11.398792
11.255741
10.146499
10.254979
9.206533
8.590817
8.402467
8.285642
8.317828
7.385612
7.738471
6.690621
6.974936
6.693602
6.609559
6.952882
6.564856
6.424785
7.596612
7.097721
7.873774
6.829500
7.181764
7.194877
7.084608
7.036924
6.494522
6.326437
5.474687
6.161928
5.458593
4.802942
5.486608
4.685521
4.985929
4.617572
4.881620
5.345941
4.409552
4.574656
4.665852
4.802942
4.503727
4.924536
##ZVALUE=265
0.779629
0.675917
0.804663
0.862479
0.948906
0.797510
0.874996
1.075864
0.964999
1.122952
1.199841
1.058578
1.361966
1.438856
3.636479
17.949939
45.151711
113.535523
197.826028
367.746949
515.752435
657.278895
793.209672
817.707777
752.911568
647.855997
492.515564
350.410938
196.375847
122.876763
86.102486
69.982409
79.542994
108.421445
127.415657
146.972537
153.528452
149.775743
135.596991
112.114549
88.061690
63.967705
46.863556
31.566620
22.843480
17.952919
15.112758
13.413429
13.875961
12.895465
12.705922
12.038946
11.176467
11.057854
10.109544
9.785891
9.625554
9.071827
8.706450
8.451939
7.669926
7.386804
7.153749
7.078648
7.255673
7.149577
6.592870
5.914569
6.632805
6.906986
6.196499
6.576777
6.896853
6.687641
6.840825
7.146597
6.559491
6.424785
6.246567
5.761981
5.833507
4.775524
4.533529
5.038977
4.934669
4.479885
4.533529
4.476905
4.627705
4.807711
4.365444
4.489422
4.296899
4.469752
4.034638
4.242659
##ZVALUE=270
0.703931
0.707507
0.731945
0.496507
0.786781
0.794530
0.889897
0.730753
0.954866
0.810623
0.871420
0.943542
0.982881
1.240969
1.182556
1.381636
1.718998
8.002520
24.711490
76.741576
156.557560
272.513628
471.896529
631.002784
799.405575
858.885646
849.044919
775.163770
604.858994
455.350876
320.706964
173.544884
103.792548
64.607859
62.526464
84.705949
108.012557
133.711696
145.803690
154.431462
150.677562
132.021904
114.990473
87.476969
66.446662
43.226480
31.569600
21.975636
16.593933
14.392734
12.447834
11.937618
11.890531
10.860562
10.344982
10.073781
9.982586
8.338690
8.960962
8.617640
7.948875
7.841587
7.390976
7.272959
7.052422
7.083416
6.650686
6.586909
6.842613
6.301999
6.661415
6.852746
6.383657
6.623864
6.607771
6.275773
6.342530
5.730987
5.628467
5.508661
5.244613
5.058646
4.649758
4.767776
4.798770
4.718900
4.574656
4.093647
4.272461
4.329681
4.247427
4.592538
4.085898
3.875494
4.357696
4.133582
##ZVALUE=275
0.706911
0.648499
0.573993
0.538826
0.699759
0.684857
0.774860
0.684857
0.730753
0.884533
0.759959
0.668764
0.804663
0.945926
0.990629
0.999570
1.282692
1.317859
1.374483
3.760457
14.693737
42.418838
125.676990
231.466889
425.063968
572.003722
742.337704
845.379829
893.742442
848.129988
746.678710
558.400750
398.635864
216.462612
132.104754
66.895485
51.768422
60.905814
79.791546
109.208822
126.988888
145.864487
150.402784
148.198605
133.056641
106.450915
87.510943
62.649846
46.395659
28.480887
20.795465
13.932586
11.797547
10.457635
9.787679
9.169579
8.621812
8.844733
8.551478
8.776784
8.149743
7.874966
7.898808
7.457733
6.953478
6.575584
6.875992
6.847978
6.045699
6.448627
6.739497
6.173849
7.027984
6.589890
6.724596
6.505847
6.143451
6.149411
5.844831
5.459785
5.508661
5.010962
4.719496
4.880428
4.916787
4.580617
4.373789
4.518628
3.935695
4.392862
4.201531
4.232526
3.911853
3.889799
3.984571
3.947616
##ZVALUE=280
0.628829
0.732541
0.731945
0.787973
0.722408
0.536442
0.716448
0.681877
0.720620
0.715852
0.744462
0.759959
0.975728
0.983477
0.985861
0.981688
0.890493
1.161695
1.250505
1.251698
1.446605
2.153516
7.824898
36.769509
86.363554
203.855634
320.417881
513.861775
660.864711
823.451877
896.536708
889.847875
798.311830
617.614985
461.924672
276.312828
165.460706
76.069832
48.189759
42.976737
54.223537
79.233646
99.684596
124.202967
137.817860
145.309567
139.261484
124.614835
106.111765
80.018640
60.637593
40.394664
27.766824
17.298460
12.930632
9.328723
9.075999
8.294582
7.802844
7.350445
7.139444
6.943941
7.189512
7.476807
6.845593
7.002950
6.375909
6.088614
6.975532
6.595850
6.683469
6.189942
6.907582
6.657839
6.450415
6.269813
5.827546
5.986691
5.621910
5.359650
5.372763
5.233884
4.979968
5.113482
4.827976
4.594922
4.648566
4.508495
4.486442
4.678965
4.436970
3.927946
4.279613
3.951788
4.159808
3.708601
##ZVALUE=285
0.455976
0.592470
0.673532
0.573993
0.411868
0.709891
0.629425
0.644922
0.723600
0.673532
0.575781
0.663996
0.642538
0.804663
0.662804
0.708699
0.983477
1.010895
0.977516
1.189709
0.977516
1.296997
1.315475
1.354814
4.513860
16.003847
53.627491
112.832785
244.457722
383.289456
580.895543
731.081963
878.221989
922.418833
852.169991
741.688609
539.264679
379.144549
205.308795
119.547844
54.587722
33.391714
34.813881
47.889948
71.346760
93.950629
116.210580
130.252838
138.337612
134.252906
120.727420
105.541945
77.770948
59.447885
38.470626
26.665926
15.773773
11.122823
8.149743
7.389784
6.965995
6.518960
6.484985
6.221533
6.327629
6.196499
6.452799
5.942583
6.407499
6.436706
6.357431
6.484985
6.853938
6.397963
6.201863
6.167889
5.621910
5.756617
5.680919
5.230904
5.329847
5.286932
5.222559
4.774928
4.801750
4.739761
4.773736
4.690886
4.518628
4.525781
4.417896
4.452467
4.718900
3.926754
4.139543
4.079938
##ZVALUE=290
0.427961
0.371933
0.388622
0.454783
0.372529
0.503659
0.344515
0.363588
0.411868
0.386834
0.383854
0.521541
0.415444
0.479817
0.664592
0.424981
0.577569
0.586510
0.640750
0.879765
0.803471
0.995994
0.911951
0.929832
1.264811
1.301765
1.822710
6.433725
31.443834
72.387457
168.883801
282.485485
488.550663
655.439496
837.330818
915.920734
906.914473
817.872882
630.396605
473.724008
282.149911
168.673992
73.973536
38.851500
23.715496
28.927922
45.611858
62.829852
87.576509
106.669664
125.037432
133.229494
130.415559
120.093822
98.533630
79.217553
53.119659
37.992597
23.928881
16.040802
9.962916
7.658601
6.294847
5.886555
5.841851
5.876422
5.789995
5.849600
6.022453
5.751848
5.878806
5.916953
5.859733
6.026626
5.975962
5.741715
5.402565
5.477667
5.401969
5.376935
5.160570
5.009770
5.138516
4.672408
4.658699
4.898906
4.643798
4.501939
4.456639
4.437566
4.610419
4.318953
4.044771
4.265904
4.085898
4.132986
##ZVALUE=295
0.468493
0.480413
0.364780
0.429749
0.473857
0.498891
0.464916
0.470877
0.581741
0.563860
0.473857
0.447631
0.644922
0.536442
0.577569
0.541806
0.561476
0.880957
0.637770
0.636578
0.800490
0.829697
0.792742
0.854731
0.948906
1.142621
1.122952
1.235604
1.674891
2.919436
15.601516
43.646693
99.537969
231.240988
373.461843
595.514774
748.862028
887.037516
928.912759
861.555934
742.936730
537.433624
372.352004
196.193457
109.849572
43.936968
23.398995
19.576550
26.468635
42.192936
57.352781
82.561970
99.769831
118.636489
125.680566
122.220516
114.032626
93.493462
75.324774
52.314997
37.337542
22.569895
15.366673
9.523630
6.970763
5.754828
5.486608
5.153418
5.212426
5.601645
5.537868
5.862713
5.528927
5.986691
5.731583
5.505681
5.578995
5.299449
5.310774
5.076528
5.046725
5.200505
4.981756
5.145669
4.825592
5.097985
4.574656
4.453659
4.668832
4.825592
4.845858
4.667640
4.334450
4.651546
4.140735
4.387498
##ZVALUE=300
0.492930
0.327826
0.387430
0.509620
0.368953
0.529885
0.434518
0.506639
0.421405
0.548959
0.601411
0.722408
0.597835
0.634789
0.636578
0.674725
0.579953
0.699759
0.536442
0.464916
0.600815
0.791550
0.883937
0.776649
0.865459
0.854731
0.938773
1.106858
0.936985
1.040697
1.227856
1.630783
5.662441
21.879673
76.955557
148.633718
299.666524
456.949472
681.672692
812.068582
916.700959
917.437673
803.474784
662.328601
444.597602
293.280482
148.971677
79.923868
30.024648
16.453862
16.160607
22.888780
37.111640
52.239895
74.620843
91.720819
111.281872
117.459893
117.800832
109.393001
92.471838
75.268745
53.475499
38.308501
22.760630
15.270710
9.275675
6.508827
5.637407
5.355477
5.281568
5.170703
5.338788
5.394816
5.209446
5.274415
5.216599
5.267859
5.042553
5.215406
4.984736
4.731417
4.917979
4.624724
4.462600
4.923940
4.568696
4.466772
4.620552
4.181862
4.609823
4.405975
4.476905
4.365444
4.097819
4.285574
##ZVALUE=305
0.423789
0.554919
0.522733
0.421405
0.383854
0.337958
0.418425
0.506639
0.495911
0.538826
0.486970
0.552535
0.348687
0.472665
0.393987
0.539422
0.598431
0.532866
0.668764
0.634789
0.659823
0.614524
0.692606
0.623465
0.694990
0.943542
0.853539
0.821948
0.886917
1.032948
0.888705
1.300573
1.200438
1.395941
2.278686
14.945865
42.544007
121.098757
218.186975
401.630998
563.226938
768.088698
882.929564
920.988917
867.390037
690.262914
541.290641
349.124670
220.602751
100.401640
50.171614
18.165708
12.155771
14.646649
20.874739
36.025643
50.268769
70.892572
87.382793
103.749633
110.712647
110.392570
103.107691
87.020993
71.523786
49.521923
35.877824
21.317601
14.633536
8.930564
6.679893
5.423427
5.457997
4.741549
4.975796
4.906654
4.673600
4.708767
4.414916
4.655719
4.767776
4.642606
4.553795
4.484653
4.575849
4.719496
4.698634
4.454851
4.458427
4.279613
3.931522
4.443526
3.810525
3.879666
4.064441
4.111528
##ZVALUE=310
0.380874
0.439882
0.249743
0.314713
0.397563
0.447631
0.431538
0.453591
0.403523
0.316501
0.448823
0.480413
0.515580
0.523925
0.549555
0.444651
0.478625
0.458956
0.592470
0.558496
0.661612
0.494719
0.494719
0.668764
0.498891
0.733733
0.664592
0.600815
0.784993
0.876784
0.967979
1.058578
1.022816
1.132488
1.296997
1.398921
1.396537
6.378889
21.808743
71.336627
143.724680
298.260450
452.466011
668.883920
815.749764
925.370455
915.650725
805.789828
666.595697
449.217558
306.423903
153.765678
81.699491
29.899478
13.881922
9.827614
12.591481
19.810796
29.605627
45.991540
60.848594
81.773996
94.479918
103.799701
104.277730
97.687840
86.230636
67.814589
52.133799
33.084750
23.184419
14.240742
9.182692
6.309748
5.216599
4.654527
4.446507
4.361868
4.103780
4.031658
4.391670
3.835559
4.155636
4.240870
4.145503
4.450679
4.256964
4.198551
4.349947
4.324913
3.688931
3.847480
4.179478
3.939867
3.993511
3.857613
##ZVALUE=315
0.304580
0.370741
0.478625
0.381470
0.343919
0.454783
0.366569
0.477433
0.512600
0.454783
0.531673
0.575781
0.528693
0.521541
0.385642
0.559688
0.542998
0.404716
0.395775
0.499487
0.421405
0.480413
0.518560
0.713468
0.644922
0.726581
0.602603
0.786781
0.736713
0.695586
0.979900
0.841618
0.898838
1.016855
0.906587
1.147985
1.066923
1.233816
1.433492
2.942681
10.742545
44.785738
102.095604
235.468745
374.050736
592.290759
737.852454
876.234770
918.060541
850.978494
737.884641
532.401800
378.739834
203.294754
110.613704
42.313933
18.506646
9.020567
8.648634
12.250543
17.147660
28.437972
39.837956
58.227777
74.568987
90.808868
97.837448
99.363923
93.573928
79.067945
64.620972
47.353506
34.326911
20.305514
13.537407
8.099675
5.866885
4.592538
4.410744
4.008412
4.063845
3.871918
3.675818
3.883839
3.890991
3.777742
3.792644
4.052520
3.825426
3.725886
3.635883
3.924966
3.872514
3.807545
3.722906
3.342628
##ZVALUE=320
0.283718
0.447631
0.355840
0.175834
0.373721
0.393987
0.499487
0.420809
0.340939
0.212789
0.469685
0.382662
0.413656
0.472665
0.507832
0.516772
0.353456
0.355840
0.524521
0.459552
0.608563
0.243783
0.310540
0.333786
0.413656
0.648499
0.375509
0.606775
0.633597
0.645518
0.660419
0.643730
0.764728
0.681877
0.795722
0.833869
0.950694
0.808835
0.937581
1.133680
1.062751
1.584888
4.582405
26.617646
65.448880
167.785883
279.778838
471.826792
630.607605
804.835558
890.801549
885.061026
803.625584
618.809462
456.721783
258.079767
146.083832
60.060620
28.479695
10.560751
7.482767
8.129478
10.022521
15.499592
23.043752
37.897825
50.842762
67.202449
81.132650
92.260838
93.547702
87.416768
77.626705
58.711767
45.325756
30.546784
20.976663
12.152791
8.119941
5.233884
4.356503
3.860593
3.822446
3.633499
3.543496
3.651977
3.411770
3.615618
3.606677
3.349781
3.544688
3.415942
3.412962
3.624558
3.134608
3.568530
##ZVALUE=325
0.385642
0.299811
0.277758
0.192523
0.324845
0.384450
0.328422
0.408888
0.367761
0.418425
0.278950
0.372529
0.445843
0.416636
0.440478
0.339746
0.329614
0.402927
0.536442
0.429749
0.509620
0.570416
0.529885
0.536442
0.439882
0.518560
0.512600
0.405908
0.543594
0.405908
0.612736
0.699759
0.533462
0.539422
0.702739
0.736713
0.788569
0.816584
0.844598
0.919700
0.997782
1.116991
0.882745
1.292825
2.527833
15.555620
43.009520
113.475919
207.051635
387.312770
543.644428
739.143491
838.721991
886.092782
830.544829
665.816665
511.306524
317.257643
193.804502
84.565878
41.356683
13.892651
7.428527
6.040931
7.026792
9.971857
13.771653
23.461580
34.065843
51.511526
64.052939
78.081489
86.108446
85.956454
81.580877
69.351792
56.745410
40.809512
29.361844
17.700791
11.585951
6.670952
5.233884
4.225969
3.881454
3.645420
3.565550
3.300905
3.379583
3.285408
3.127456
3.248453
3.102422
3.128648
3.040433
3.192425
##ZVALUE=330
0.469685
0.297427
0.300407
0.243783
0.336766
0.435710
0.383854
0.288486
0.278950
0.293851
0.466704
0.433922
0.380874
0.357628
0.437498
0.447631
0.618696
0.604987
0.559688
0.391603
0.431538
0.498891
0.204444
0.408888
0.460744
0.405908
0.468493
0.388622
0.496507
0.490546
0.488758
0.547767
0.624657
0.623465
0.723600
0.515580
0.695586
0.580549
0.831485
0.920892
0.845790
0.982881
0.971556
0.954866
1.303554
1.160502
1.567602
6.822944
22.128820
75.020790
145.918727
294.874907
437.498689
644.205809
772.433877
865.124464
844.751000
725.623965
586.532950
383.496881
249.913931
117.716789
60.096979
21.202564
9.520650
5.781651
5.557537
6.390810
8.176565
14.293790
20.920634
32.874942
44.860840
61.917901
72.245002
80.884695
81.720948
75.809956
66.626668
50.841570
39.085746
25.348663
17.479658
11.124611
7.801652
4.961491
3.980994
3.575683
3.318787
3.272891
3.166795
3.065467
3.052950
3.111959
3.127456
3.050566
##ZVALUE=335
0.345707
0.421405
0.381470
0.418425
0.311732
0.415444
0.404716
0.373721
0.397563
0.452995
0.325441
0.418425
0.473857
0.321865
0.395775
0.519753
0.365973
0.195503
0.265837
0.502467
0.367761
0.327826
0.335574
0.494719
0.424981
0.361800
0.585914
0.531673
0.601411
0.602603
0.545979
0.537634
0.553727
0.572801
0.511408
0.680685
0.581741
0.738502
0.626445
0.652671
0.810623
0.778437
0.961423
0.844598
0.978708
0.924468
1.148582
1.136661
1.277924
3.287792
11.271834
46.171546
97.537637
219.841599
356.255770
564.609766
706.644654
824.986696
841.979980
758.726001
643.931627
442.338586
304.740667
160.259604
84.534883
29.227734
12.287498
6.112456
5.236864
5.283952
5.754828
7.934570
12.024641
20.781755
29.971600
44.608712
56.359768
68.636537
74.282885
75.113773
71.336627
61.051846
50.402880
37.457943
27.949810
17.673969
12.144446
7.111430
5.266666
3.774762
3.317595
2.986789
2.883673
2.951622
2.937913
3.084540
##ZVALUE=340
0.302792
0.324845
0.353456
0.327826
0.387430
0.228882
0.247955
0.379682
0.339746
0.258684
0.184774
0.288486
0.347495
0.283718
0.222921
0.413656
0.293851
0.241995
0.353456
0.218749
0.249743
0.280738
0.376701
0.274777
0.378489
0.274777
0.327826
0.513792
0.352859
0.401735
0.443459
0.456572
0.548959
0.403523
0.565648
0.475645
0.605583
0.465512
0.685453
0.652671
0.720620
0.633597
0.765920
0.705719
0.625849
0.740886
0.799894
0.874996
0.969768
0.956655
1.167655
1.588464
5.314946
27.836561
68.301558
172.065496
289.704800
479.686856
623.380542
773.993731
822.897553
784.260631
689.330697
514.803529
368.353724
201.029778
109.326839
41.468740
17.154813
6.827712
5.416870
5.066991
5.046725
6.099939
7.679462
12.838840
18.604994
29.844642
40.164590
53.691864
63.723922
69.894791
70.745945
66.512823
58.550835
46.802759
37.004948
25.215745
18.491745
11.310577
7.491708
4.784465
4.039407
3.111959
2.909899
2.800822
##ZVALUE=345
0.342727
0.196695
0.306964
0.311732
0.260472
0.223517
0.236630
0.345707
0.351667
0.291467
0.400543
0.268817
0.139475
0.279546
0.235438
0.355840
0.263453
0.454783
0.395775
0.412464
0.391603
0.296831
0.406504
0.347495
0.398755
0.280738
0.405908
0.365973
0.294447
0.340939
0.419617
0.418425
0.508428
0.494719
0.464916
0.571609
0.653863
0.612736
0.667572
0.392795
0.564456
0.594854
0.537634
0.578761
0.523925
0.662804
0.646710
0.676513
0.818968
0.733733
0.861883
0.936985
0.988841
1.079440
2.328753
14.968514
43.312907
118.310452
207.231641
373.995900
515.410900
693.516731
774.818659
792.020559
728.126764
563.538671
423.529744
255.560875
146.431923
58.066845
26.049614
8.594990
5.537868
4.730821
4.651546
4.473925
5.117655
7.394552
10.541677
18.158555
25.804639
39.474964
47.666430
57.005882
63.150525
65.488815
63.836575
54.940581
47.298670
35.679936
26.711822
16.492605
11.647940
6.951690
5.081892
3.717542
##ZVALUE=350
0.298619
0.261664
0.439882
0.227690
0.383854
0.158548
0.280738
0.210404
0.207424
0.280738
0.289679
0.254512
0.258684
0.186563
0.206828
0.394583
0.381470
0.409484
0.142455
0.303984
0.290871
0.329614
0.373721
0.367761
0.364780
0.387430
0.507832
0.288486
0.358820
0.420809
0.399947
0.314713
0.452995
0.455976
0.386834
0.448823
0.533462
0.529885
0.499487
0.461936
0.568628
0.618696
0.578761
0.584722
0.470877
0.629425
0.612736
0.546575
0.758767
0.652671
0.584722
0.876784
0.858903
0.868440
1.123548
1.104474
1.453757
6.901622
23.881793
75.774789
146.686435
293.190479
426.108837
601.601601
713.946819
779.546499
746.657848
624.094009
482.527018
293.130875
181.170702
84.078908
39.096475
11.596680
5.928874
4.463792
4.270673
4.031658
4.096627
4.526973
6.229877
10.490417
15.018582
23.084879
30.506849
41.922927
50.947666
58.103800
59.651732
58.589578
52.846670
42.649508
34.615993
23.856759
17.203689
11.104941
##ZVALUE=355
0.457764
0.389814
0.570416
0.429749
0.612736
0.393987
0.430942
0.281930
0.330806
0.420809
0.477433
0.377893
0.509620
0.527501
0.495911
0.566840
0.507832
0.312924
0.498891
0.369549
0.530481
0.527501
0.547767
0.623465
0.417829
0.567436
0.490546
0.504851
0.588894
0.607967
0.605583
0.580549
0.514984
0.750422
0.668764
0.728965
0.562668
0.715852
0.554919
0.536442
0.660419
0.506639
0.725985
0.694990
0.692606
0.713468
0.824928
0.821948
0.874996
0.735521
0.834465
0.787973
1.074672
0.946522
0.835657
1.095533
1.085997
1.172423
1.319647
3.635883
12.491941
49.255490
101.807714
217.307806
342.450738
533.927679
655.058026
748.319626
751.958489
647.259951
531.235933
353.474617
227.083564
101.919770
49.485564
15.437603
7.237792
4.574656
4.426837
4.111528
3.992915
3.867745
4.229546
5.683899
8.025765
13.396740
19.208789
28.630495
36.148429
45.244694
50.665736
54.139495
53.441525
47.394633
41.386485
31.829476
##ZVALUE=360
0.300407
0.310540
0.336766
0.266433
0.356436
0.323653
0.345707
0.184774
0.379682
0.389814
0.370741
0.382662
0.488758
0.349879
0.502467
0.330806
0.503659
0.344515
0.265837
0.334978
0.445843
0.240803
0.398755
0.341535
0.377893
0.369549
0.356436
0.417829
0.403523
0.510812
0.570416
0.401735
0.417829
0.331998
0.461936
0.425577
0.430942
0.514984
0.319481
0.533462
0.451803
0.561476
0.453591
0.519753
0.620484
0.476837
0.620484
0.569820
0.698566
0.624657
0.715852
0.727773
0.648499
0.848770
0.791550
0.867844
0.794530
0.926852
1.102686
0.964999
1.195669
1.838803
5.381703
25.663972
63.286424
157.959461
262.680650
428.688526
568.407774
699.307919
734.835863
686.532855
588.158965
407.878757
273.950696
135.373473
71.711540
26.656985
10.786653
4.741549
4.204512
3.821850
3.677607
3.629923
3.457665
3.653765
4.447699
6.945729
10.087490
15.655756
22.228956
31.778812
38.586855
46.004653
48.735738
48.732758
##ZVALUE=365
0.262856
0.335574
0.308752
0.260472
0.271797
0.211596
0.158548
0.322461
0.460744
0.271797
0.336766
0.469685
0.328422
0.251532
0.383854
0.426769
0.353456
0.395775
0.251532
0.226498
0.218749
0.180602
0.343919
0.284910
0.371933
0.517964
0.342727
0.430942
0.205636
0.360608
0.255704
0.499487
0.466704
0.337958
0.530481
0.333786
0.428557
0.463724
0.406504
0.331998
0.338554
0.512600
0.397563
0.508428
0.474453
0.569820
0.250936
0.513792
0.632405
0.614524
0.533462
0.491738
0.653863
0.476837
0.763535
0.755787
0.685453
0.831485
0.761747
0.894666
0.894666
1.043677
1.007915
1.446605
2.642870
13.893843
38.762689
102.946758
192.038417
358.752012
487.381816
631.371737
701.963902
699.322820
623.849034
462.513566
332.512856
184.875727
100.549459
37.147999
15.028715
5.256534
3.960729
3.645420
3.406405
3.370643
3.094673
2.933741
2.944469
3.813505
5.264878
8.786917
12.463927
20.094514
26.057959
34.104586
##ZVALUE=370
0.250936
0.285506
0.300407
0.247955
0.180602
0.275970
0.249743
0.489950
0.338554
0.295639
0.552535
0.264645
0.357628
0.305772
0.264645
0.207424
0.380874
0.222921
0.421405
0.441670
0.298619
0.213981
0.376701
0.144839
0.448823
0.404716
0.478625
0.329614
0.488758
0.431538
0.383854
0.399947
0.447631
0.419617
0.445843
0.406504
0.435710
0.431538
0.367761
0.445843
0.411868
0.506639
0.510812
0.497699
0.525713
0.372529
0.480413
0.565648
0.639558
0.626445
0.481606
0.598431
0.623465
0.699759
0.809431
0.577569
0.475645
0.608563
0.753999
0.662804
0.688434
0.756979
0.808835
0.889897
1.088977
1.367927
1.491904
7.296801
23.506880
74.636936
143.768787
279.279947
408.077836
581.892729
671.883821
703.359842
652.656555
518.674850
389.887691
225.583911
131.027699
52.832961
23.848414
7.631779
4.411936
3.535748
3.357530
3.280640
2.874732
2.687573
2.763867
2.872944
3.431439
4.644990
6.784797
10.991693
##ZVALUE=375
0.310540
0.215769
0.304580
0.189543
0.343919
0.208616
0.190735
0.184774
0.391603
0.424981
0.273585
0.176430
0.137687
0.186563
0.292659
0.352859
0.315905
0.263453
0.227690
0.239611
0.150800
0.364780
0.270605
0.267625
0.348687
0.248551
0.509620
0.342727
0.420809
0.287890
0.460744
0.469685
0.266433
0.264645
0.339746
0.459552
0.452995
0.244975
0.338554
0.443459
0.422597
0.513792
0.384450
0.307560
0.477433
0.300407
0.346899
0.413656
0.352859
0.246763
0.499487
0.438690
0.631809
0.547767
0.521541
0.400543
0.248551
0.530481
0.467896
0.597835
0.429749
0.624657
0.623465
0.576973
0.729561
0.892878
0.926852
1.053810
1.308918
2.864003
16.223788
41.803718
110.710859
200.886726
361.417532
489.434004
629.699826
689.802766
671.150684
590.104461
426.063538
306.339860
173.916817
98.876953
39.172769
16.920567
5.439520
3.790855
3.180504
2.991557
2.872944
2.828836
2.771616
2.453923
2.536774
2.847910
##ZVALUE=380
0.326633
0.276566
0.364780
0.362992
0.363588
0.377893
0.231862
0.150800
0.236630
0.256896
0.217557
0.338554
0.268817
0.350475
0.259876
0.378489
0.302792
0.381470
0.384450
0.253916
0.294447
0.307560
0.222921
0.370741
0.269413
0.316501
0.191927
0.270605
0.300407
0.300407
0.450611
0.535846
0.502467
0.477433
0.612736
0.569820
0.612736
0.471473
0.488758
0.479817
0.491738
0.458956
0.402927
0.446439
0.382662
0.378489
0.486970
0.559688
0.457764
0.464916
0.369549
0.479817
0.554919
0.526905
0.476837
0.418425
0.467896
0.525713
0.467896
0.578761
0.507832
0.622869
0.546575
0.568628
0.664592
0.542998
0.868440
0.812411
0.861883
1.153946
1.266599
1.952648
6.488562
31.497478
74.882507
176.683664
285.969973
450.361967
572.831631
681.335926
693.805814
611.273646
510.370731
360.366702
244.968534
122.375488
62.899590
22.075772
9.200573
3.954768
3.200769
2.992749
2.878904
2.776980
2.683997
2.473593
##ZVALUE=385
0.299811
0.214577
0.203848
0.350475
0.275970
0.175834
0.461936
0.245571
0.286698
0.216961
0.410676
0.349879
0.288486
0.380874
0.288486
0.206828
0.348687
0.432730
0.311732
0.314713
0.375509
0.478625
0.432730
0.424981
0.497699
0.422597
0.335574
0.491738
0.568628
0.530481
0.650883
0.711679
0.576973
0.739694
0.635982
0.743866
0.799894
0.761747
0.811815
0.943542
0.753999
0.555515
0.755787
0.637770
0.634789
0.494719
0.457764
0.634789
0.599623
0.639558
0.554919
0.643730
0.610948
0.620484
0.678897
0.544786
0.548959
0.583529
0.557899
0.513792
0.405908
0.702739
0.559688
0.505447
0.561476
0.392795
0.535846
0.616908
0.728965
0.951886
0.977516
1.097918
1.169443
1.303554
3.284812
17.685890
46.458840
119.057894
212.083459
378.632545
508.238673
642.668009
685.410500
659.710765
587.203503
436.455607
311.908722
171.586871
98.980665
40.922761
16.698837
5.192757
3.257990
2.997518
3.013611
2.850890
##ZVALUE=390
0.326633
0.365973
0.252724
0.259876
0.230670
0.164509
0.304580
0.247955
0.276566
0.177622
0.258684
0.014901
0.185966
0.222921
0.385642
0.115633
0.161529
0.247955
0.163913
0.314713
0.226498
0.151992
0.397563
0.318885
0.283718
0.344515
0.413656
0.525713
0.392795
0.492930
0.645518
0.654459
0.864863
0.959635
0.995994
0.821948
0.971556
0.891685
0.876784
0.856519
0.856519
0.629425
0.791550
0.748634
0.571609
0.638962
0.536442
0.508428
0.580549
0.629425
0.587702
0.585914
0.372529
0.635982
0.643730
0.451803
0.503659
0.414848
0.517964
0.533462
0.470877
0.389814
0.426769
0.607967
0.486970
0.551939
0.604987
0.557899
0.877976
0.806451
0.868440
0.834465
0.879765
0.904799
1.023412
0.974536
1.788735
9.065866
28.908849
91.159940
172.208548
323.574543
442.248583
577.495694
651.741028
681.833029
633.269548
506.996512
389.322639
240.132809
141.129494
58.530569
26.289821
7.648468
3.514886
3.068447
##ZVALUE=395
0.324845
0.331998
0.199676
0.237823
0.336766
0.225902
0.286698
0.284910
0.096560
0.256896
0.197887
0.249743
0.187755
0.321865
0.165701
0.169873
0.302792
0.376701
0.245571
0.267625
0.239611
0.336766
0.313520
0.390410
0.397563
0.444651
0.439882
0.412464
0.624657
0.535846
0.828505
0.979900
0.957847
1.135468
0.980496
1.161695
1.139641
1.061559
1.153946
0.953674
1.023412
0.809431
0.905991
0.825524
0.917912
0.866652
0.836849
0.605583
0.744462
0.517964
0.568628
0.673532
0.636578
0.619888
0.605583
0.631809
0.451803
0.438690
0.617504
0.434518
0.560880
0.472665
0.438690
0.543594
0.533462
0.646710
0.589490
0.570416
0.744462
0.662804
0.909567
0.838637
0.926852
0.747442
1.019835
0.831485
1.024604
0.929832
1.171827
4.502535
16.852617
61.758757
122.337937
244.991779
360.445976
524.266958
624.475479
691.654682
674.831867
579.931736
457.399487
286.837816
183.280706
87.488890
42.098761
13.919473
##ZVALUE=400
0.498891
0.376701
0.423789
0.334978
0.421405
0.255704
0.199676
0.229478
0.211596
0.163913
0.319481
0.261664
0.206828
0.225902
0.163913
0.385642
0.172853
0.206828
0.193715
0.222921
0.370741
0.180602
0.190735
0.374913
0.277758
0.168681
0.366569
0.392795
0.625849
0.604987
0.753999
0.906587
0.997782
1.017451
1.009703
0.962615
1.146793
0.975728
1.063943
0.984669
0.988841
0.849962
0.923872
0.741482
0.908971
0.709891
0.726581
0.661612
0.529885
0.659823
0.679493
0.486970
0.644922
0.526905
0.526905
0.463724
0.534654
0.624657
0.502467
0.488758
0.430942
0.421405
0.415444
0.515580
0.721812
0.578761
0.612736
0.683665
0.626445
0.731945
0.707507
0.657439
0.610948
0.598431
0.759959
0.692606
0.772476
0.691414
0.886917
0.873804
0.907779
2.737641
9.553432
35.913587
78.955889
179.011822
288.191438
451.243520
561.987758
657.402873
675.140619
606.715679
505.109429
340.995789
226.511955
116.100907
##END
