##TITLE=FQP00651
##FORMAT=SPECTACLE-ASCII V-1.2
##DATA TYPE=ULTRAVIOLET SPECTRUM
##SECOND TYPE=ULTRAVIOLET SPECTRUM
##DATE=12/26/17
##TIME=16:17:32
##SPECTROMETER/DATA SYSTEM=SPECTACLE
##XUNITS=NM EM
##YUNITS=ENERGY
##YFACTOR=1
##FIRSTX=220
##LASTX=410
##NPOINTS=96
##3DDATA=Equidistant
##ZUNITS=NM EX
##FIRSTZ=210
##LASTZ=400
##ZPOINTS=39
##XYDATA=(Y..Y)
##ZVALUE=210
2.750754
2.482533
2.428889
3.197789
2.218485
2.757907
2.648830
2.823472
3.995895
2.302527
2.888441
3.220439
3.619790
3.311634
3.613830
3.732443
3.752708
3.951788
4.280806
4.786849
5.431771
4.536510
5.123615
5.819798
5.963445
5.773902
6.478429
6.187558
6.713867
6.962419
7.724762
7.140636
7.465482
7.235408
7.661581
8.398890
7.474422
8.004904
7.688999
8.545518
8.916855
7.827878
8.571744
8.800626
9.617805
9.160638
8.761883
9.152889
8.669496
9.255409
10.065436
9.893775
9.370446
10.463595
9.845495
10.817647
9.806752
9.892583
11.093616
12.134910
9.922981
10.684729
11.211634
10.647774
11.832714
11.597872
12.697577
15.294552
16.052723
21.028519
21.929741
27.738810
30.967593
35.198927
41.749477
44.170618
44.389963
49.363971
47.208667
45.028925
42.540431
35.973787
31.245947
27.032495
21.304488
17.521977
14.783740
12.248755
11.149645
10.617971
10.291934
10.340810
9.760857
9.068847
10.657907
11.056662
##ZVALUE=215
8.344650
8.947849
8.109808
6.550550
5.700588
4.997849
4.446507
4.802942
5.860925
4.949570
5.096793
5.031824
5.414486
5.063415
3.991723
4.062653
3.317595
3.713965
4.136562
4.312992
4.381537
5.461574
5.714893
5.729795
6.510615
6.414652
6.760955
7.559657
6.865859
6.583929
7.130504
7.321835
7.463694
8.208752
7.822514
7.673502
8.281469
9.153485
8.290410
8.888841
8.672476
9.961724
8.762479
9.339452
8.681417
9.089708
9.699464
10.785460
10.503531
10.061860
10.695457
10.575652
9.479523
11.680722
11.324883
10.512471
9.299517
10.691881
10.203719
11.472702
10.008812
10.436773
11.678934
11.302829
12.848973
12.065768
12.428761
13.412833
13.418794
17.484426
17.847419
21.594763
24.082661
27.913451
31.007528
34.875870
35.245419
36.605597
35.112500
32.544732
30.773878
29.882789
28.102994
21.679997
20.805597
17.186999
13.820529
11.981726
10.860562
10.969639
10.301471
9.148717
10.108948
8.695722
8.932948
9.653568
##ZVALUE=220
30.497909
34.361482
35.713911
37.046671
34.763813
29.379725
22.618771
14.952421
12.346506
10.868907
12.665987
12.317896
12.293458
11.555552
9.883642
8.222461
7.052422
5.380511
5.102754
5.150437
4.851818
4.275441
4.971623
6.219745
6.391406
6.561875
6.775856
7.137656
7.830858
7.815957
7.532835
9.013414
7.953644
9.194613
9.047985
8.778572
8.423924
9.362698
7.859468
9.342432
8.676648
8.066893
10.160804
9.874701
9.794831
10.054708
9.942651
8.394718
9.737611
11.315942
9.561777
9.468794
9.117723
10.398626
10.594726
10.239482
9.894967
9.787679
9.873509
11.321902
11.029840
10.503531
9.312630
10.972619
11.968613
11.085868
10.555983
12.778640
12.549758
15.257597
17.001629
19.481778
23.503900
25.834441
29.788613
30.194521
32.746792
31.783581
31.734705
31.583905
29.954910
27.035475
24.848580
20.267963
18.751621
16.754866
13.084412
11.201501
11.459589
10.034442
9.488463
9.337664
8.393526
9.316802
9.429455
9.040833
##ZVALUE=225
57.531595
60.970783
80.978870
105.613470
114.633441
113.926530
103.409886
87.775588
65.186620
50.455928
33.096671
25.929809
24.981499
26.892424
25.596619
24.036765
20.509958
19.696951
13.406873
9.960532
7.314682
6.638765
6.862879
7.465482
6.900430
7.504821
7.766485
7.737875
9.672642
8.601546
8.937716
9.491444
9.755492
11.364818
10.814667
11.110902
10.254979
9.724498
11.135936
9.105802
10.611415
11.091828
11.276603
10.108948
11.092424
9.377599
10.178685
9.956956
9.669662
10.745525
10.025501
9.862781
10.144711
10.468960
10.318756
11.061430
10.337830
10.886788
11.413693
11.625886
10.648966
10.550618
11.796951
11.189580
11.154413
11.801720
12.309551
12.598634
13.559461
14.972687
16.514659
18.713474
21.088719
23.692846
24.281740
26.614666
25.231838
24.069548
24.168491
23.037791
21.709800
17.799735
17.315745
16.130805
14.213920
13.058782
12.081861
11.488795
11.288524
11.240840
11.219978
10.609627
10.375977
10.092854
9.799600
10.103583
##ZVALUE=230
45.161843
52.662492
83.902478
133.997798
171.049833
212.490559
227.005482
222.759843
201.081634
170.802474
123.359561
88.144541
55.353642
45.065880
43.764710
47.871470
50.898790
45.594573
43.473840
34.787655
27.326941
17.585754
11.934638
8.298755
6.394982
6.493926
6.042719
7.562637
5.839467
7.660985
8.381605
7.704496
9.098649
9.018779
8.590817
8.208752
8.893609
9.459853
8.439422
7.277727
7.916689
8.862615
8.544922
7.550716
8.634925
7.207990
8.669496
8.116961
7.694960
7.931590
8.929968
8.048415
8.027554
8.491874
8.063912
8.813739
8.615851
8.303523
8.631945
9.418726
8.532405
8.905530
9.087920
9.182692
9.519458
9.545684
9.610653
10.061860
11.073947
11.234879
14.418960
15.311837
16.666651
18.695593
17.198920
18.936992
18.815994
17.078519
17.882586
17.451644
16.549826
13.921857
13.026595
12.359619
12.410879
12.370944
12.499690
12.046695
11.018515
11.448860
10.398626
10.536909
10.016561
10.640621
10.316968
11.552572
##ZVALUE=235
15.133619
17.426610
37.035942
87.821484
144.913793
224.137902
298.353434
373.007655
408.697724
394.791961
325.758457
260.262489
177.225471
125.137568
87.861419
74.300766
68.134665
75.027943
77.670813
76.507926
73.113441
63.923597
53.821802
34.776926
26.097894
14.532804
10.565519
8.305907
6.583929
6.435513
6.999969
8.045435
7.952452
8.335710
8.975863
8.140802
7.094741
8.093715
7.764697
8.978844
7.665753
8.142591
8.011460
9.140968
9.432435
8.018613
9.683967
8.124709
7.738471
7.945895
8.601546
8.544922
7.763505
9.371638
8.854866
8.831620
10.114908
10.658503
9.692907
9.867549
9.630919
11.321902
10.816455
10.818839
10.720491
11.366606
11.839867
12.159944
13.993979
14.374852
15.568733
17.833710
20.499825
19.307733
21.594763
21.004677
22.048950
22.683740
21.586418
20.790696
19.770861
17.110705
17.578602
16.443729
16.532540
14.130473
14.427900
13.611913
14.006495
13.485551
13.432503
13.373494
13.889670
14.568567
13.123751
12.929440
##ZVALUE=240
2.008677
2.410412
8.207560
19.601583
62.862635
109.248757
211.554766
308.848619
436.768532
507.075787
570.904613
565.425754
509.562492
392.866731
305.813551
193.593502
135.400891
102.749467
91.814995
100.219846
109.152794
116.295815
111.147761
101.220608
79.132915
65.343976
45.924783
33.033490
20.805597
12.668967
10.812879
8.715987
7.042885
8.423924
9.000897
8.602738
8.806586
8.193851
8.439422
8.388758
8.116961
8.864999
8.091927
8.673668
7.462502
8.781552
7.782578
9.778738
8.815527
7.853508
8.345842
9.252429
8.919835
9.321570
9.349585
9.360909
9.541512
9.713769
9.030700
10.296702
9.483695
11.036992
11.522770
11.715889
12.544990
12.407899
12.870431
12.909770
13.495684
16.117692
16.355515
19.002557
20.296574
22.320747
23.373961
24.418831
24.969578
24.544001
26.653409
24.142861
25.445819
24.122000
22.756457
22.165775
20.811558
19.483566
19.391775
17.490983
16.737580
17.068982
19.241571
16.187429
18.336773
17.262697
16.631484
16.293526
##ZVALUE=245
1.810789
1.418591
1.963973
1.605749
3.505945
16.299486
45.180917
122.348666
214.946866
381.748676
517.875552
630.380511
730.682611
726.288557
662.865639
561.890602
401.342511
295.500755
185.014606
132.750869
99.515915
98.573565
111.420751
128.801465
194.019675
122.800469
116.340518
89.799762
71.331859
49.056411
37.062764
20.385981
13.795495
9.552836
8.154511
8.081794
8.038878
7.407665
8.334517
8.128881
7.000566
8.265972
7.695556
7.319450
7.914901
7.800460
8.053780
7.041693
7.898808
8.165836
7.484555
8.430481
8.153915
7.942915
7.983446
8.409619
8.071661
9.536743
8.275509
8.078814
8.512735
9.433627
10.070801
9.676814
9.924769
10.062456
10.892749
12.142658
12.872815
14.125705
14.291406
15.404820
17.729998
18.656850
18.537641
20.626783
19.867420
19.591451
20.566583
19.320846
20.115972
19.063950
19.041896
18.127561
19.249916
17.804503
18.338561
17.698407
16.671419
16.859770
15.572906
16.948581
15.890598
16.313791
15.054941
16.226768
##ZVALUE=250
1.467466
1.406670
1.364946
1.313686
1.783967
1.679659
2.505779
8.688569
33.532977
76.465607
176.752806
283.847451
402.341485
561.116934
646.842718
711.686015
691.846609
600.570440
500.854850
340.105891
232.500434
159.481764
100.953579
91.070533
101.923943
118.193626
133.040547
135.797858
131.114721
122.190714
101.566911
74.471831
57.025552
34.087896
22.369623
13.926625
10.057688
7.766485
7.852912
7.468462
7.555485
6.976724
7.368922
7.192492
6.630421
7.279515
7.109642
6.282926
6.439686
7.163882
6.829500
6.717443
6.709695
6.016493
6.865859
6.490946
6.784797
6.775856
7.265806
7.937551
6.525517
7.576942
6.565452
7.884502
7.888675
8.654594
8.539557
9.883642
11.014938
11.131763
12.183785
12.629628
13.411641
14.366508
13.951659
15.659928
15.942454
15.256405
14.955997
15.692711
16.496778
15.295744
16.058683
14.540553
15.907884
15.523434
14.645457
15.507936
16.158819
15.445948
15.023947
15.664697
14.727712
15.819669
16.067624
15.295744
##ZVALUE=255
1.176596
1.030564
1.355410
1.168847
1.550913
1.222491
1.516938
1.223683
1.444817
5.426407
19.079447
47.417879
122.627616
205.197930
341.841578
469.546914
616.966486
694.683790
724.532008
692.947507
567.813516
447.819829
276.352763
181.438923
105.835795
86.431503
86.398721
105.105639
120.304823
141.069889
143.784881
138.755441
126.996636
102.010965
81.290603
55.592656
37.733912
21.734834
13.370514
8.234978
7.461905
6.523728
6.712675
6.152987
6.887913
5.780458
5.881786
6.738901
6.052852
6.203651
6.386638
6.135702
6.442666
6.164908
6.655455
5.582571
4.981756
5.892515
6.025434
6.463528
6.608963
6.129742
6.074905
6.859899
6.647706
7.370710
7.211566
8.221865
8.792877
8.893609
10.118484
10.230541
10.704994
11.777878
12.549758
13.595819
13.571978
11.887550
13.105869
12.874603
13.187528
12.836456
13.482571
13.761520
13.190508
13.513565
14.517903
14.570951
14.346838
14.697909
14.312863
13.808608
14.202595
14.568567
14.257431
13.954639
##ZVALUE=260
0.961423
1.069903
0.731945
0.918508
1.195669
1.099706
1.158714
1.284480
1.330972
1.313686
1.860857
2.447963
8.304715
34.104586
74.954629
175.533891
280.319452
449.110866
581.934452
742.021799
806.999803
803.699493
703.486800
577.093959
381.227732
261.770487
154.145956
100.591779
75.349808
80.756545
97.095966
124.536753
142.596960
152.230859
145.363808
129.821897
111.619830
79.415441
58.782697
36.166906
23.811460
13.341904
8.900762
6.844997
5.988479
6.159544
6.524920
5.265474
5.744696
5.974770
5.661845
6.185770
5.735755
5.835891
5.980730
5.439520
5.540848
5.835891
5.268455
5.729795
5.838871
6.033778
5.786419
6.034970
6.651878
6.090999
7.570982
6.738901
7.708669
8.374453
8.677840
8.913875
9.233952
10.887980
10.735989
11.419654
11.728406
11.761785
11.855960
12.041926
11.923909
12.345910
11.291504
12.223721
12.246966
11.899471
12.153983
12.149811
13.252497
12.799501
13.025999
12.804866
13.160706
12.360811
12.971759
13.640523
##ZVALUE=265
1.102686
0.764728
1.080632
0.877976
0.854731
1.107454
1.072884
1.013875
1.140833
1.292825
1.182556
1.587868
1.685619
1.931787
4.168749
22.418499
55.563450
132.007599
231.281519
419.864655
573.442578
722.558498
861.945748
880.810022
801.151991
676.263571
500.417948
352.915525
199.854970
125.384927
80.665946
67.383647
80.780983
110.362768
131.271482
149.371624
153.527856
146.323442
133.172870
105.224848
83.419681
54.839849
38.395524
21.386743
13.970733
8.019805
6.545782
5.640984
5.822778
5.448461
5.432963
5.929470
5.805492
5.924702
5.656481
5.893707
5.674958
5.579591
5.351901
5.199909
5.638599
5.498528
5.508661
5.913973
5.822778
5.996823
6.170869
6.870627
7.303953
7.567406
7.585883
8.807778
9.492636
9.507537
9.948611
9.982586
10.090470
10.051727
11.320710
11.030436
11.420846
10.221601
10.371804
10.807514
10.810494
10.954738
11.467934
11.373758
11.969805
11.759996
11.792779
11.979938
12.090802
11.916757
12.171865
12.494922
##ZVALUE=270
0.735521
0.934601
0.748634
0.927448
0.923872
1.017451
0.963807
1.016855
1.099706
1.213551
1.007915
1.448989
1.239777
1.407862
1.436472
1.592636
2.174973
10.707974
30.823946
97.029805
183.914900
314.473510
530.086756
698.089600
874.280930
932.662487
904.171467
819.059014
634.265542
472.408533
324.945450
171.032548
100.300908
58.223605
60.482621
84.307790
105.600953
133.388638
146.909952
152.168870
150.506496
131.063461
111.330748
81.650615
59.613585
34.635663
23.079515
13.071895
9.070635
6.253719
5.612969
5.425811
5.809665
5.196929
5.277991
5.550981
5.620718
5.562901
5.542636
5.636811
5.709529
5.758405
5.522966
5.617738
6.127954
6.050467
6.310940
6.499887
6.910563
7.766485
7.146597
7.894635
8.531809
8.637905
9.421706
8.925796
9.803772
9.514689
10.206699
9.379983
10.195971
9.514689
9.921789
10.606647
10.315776
10.221601
10.641813
10.157824
10.660887
10.772943
10.989904
10.910630
11.398792
10.601878
11.612773
12.098551
##ZVALUE=275
0.772476
0.758767
0.865459
0.813603
0.661612
0.848770
0.747442
1.007915
0.913739
0.826716
0.989437
1.204610
1.160502
1.176000
1.193881
1.397729
1.313686
1.396537
1.784563
4.707575
18.883944
52.651763
145.350695
263.724923
476.942658
638.719797
821.979642
931.972861
976.348519
913.375616
798.910856
587.407947
413.872600
220.918655
128.697753
62.081814
47.726631
58.016777
77.199936
107.597709
125.719905
145.803690
154.134631
146.941543
131.833553
103.762746
83.099604
56.124926
38.990974
22.381544
14.836788
8.554459
6.196499
5.535483
5.122423
5.458593
5.282760
5.419850
4.951954
5.773902
5.510449
5.721450
5.771518
5.975962
5.935431
5.943775
6.250739
6.333590
6.439686
7.197857
7.579923
8.439422
8.478761
9.035468
9.270906
8.649826
9.038448
9.443760
9.387732
9.287596
10.025501
9.184480
9.792447
9.591579
9.636879
9.661913
9.736419
10.075569
9.992719
9.903908
10.281801
9.914637
9.545684
9.980798
9.803772
10.967851
##ZVALUE=280
0.846982
0.768900
0.583529
0.754595
0.758767
0.704527
0.827909
0.802875
0.657439
0.945926
0.812411
0.900626
0.815988
0.890493
1.142621
0.988841
1.053810
1.158714
1.475811
1.205802
1.561642
2.702475
9.724498
42.743683
101.390481
229.577422
359.532833
577.668548
732.767582
908.368826
978.783965
956.962705
858.993530
654.827952
489.548445
281.973481
168.175697
75.731874
45.335889
40.955544
53.186417
81.300735
102.823973
127.329826
142.310858
147.537589
143.783689
123.866796
105.374455
78.789592
59.368610
36.289692
24.793744
13.752580
8.669496
6.533861
5.699992
5.687475
5.169511
5.369782
5.765557
5.736947
6.006956
5.916953
6.120801
6.326437
6.705523
6.954670
7.195473
7.091761
7.959604
8.090734
8.004904
8.963943
8.814931
8.782744
9.283423
9.001493
9.057522
9.269714
9.060502
9.105802
9.385943
9.324551
9.319782
9.451509
9.338856
9.624958
9.122491
9.606481
9.457469
9.265542
9.463429
10.064840
9.506941
9.317994
##ZVALUE=285
0.491738
0.570416
0.659823
0.687838
0.836849
0.734925
0.783801
0.795722
0.842810
0.850558
0.694990
0.858903
0.803471
0.830889
0.798702
0.784993
0.822544
0.988841
1.284480
1.239777
1.208782
1.631975
1.536608
1.561642
5.612969
18.537641
63.213706
130.718946
278.980732
429.684520
650.076866
815.922022
971.076488
1006.321907
927.387476
796.971917
571.864843
398.732424
211.260915
120.904446
54.057837
31.882524
34.768581
49.368739
75.580478
97.107887
121.257901
136.856437
146.512985
141.623616
126.305819
107.358694
81.780553
60.941577
38.136840
25.708675
13.902783
9.858608
6.829500
6.393790
6.124973
5.746484
5.902648
6.464720
6.222725
6.952882
7.071495
7.296801
6.843805
7.819533
7.568598
8.088946
8.414984
8.493662
8.966923
8.620620
9.234548
9.401441
8.968711
8.893609
9.307861
9.201765
9.171963
9.299517
9.166598
9.468794
9.173751
9.388924
9.391904
9.284616
8.959770
9.023547
9.148717
9.093881
9.173751
9.005666
##ZVALUE=290
0.574589
0.714660
0.700951
0.565648
0.969768
0.680685
0.461936
0.593662
0.775456
0.765920
0.754595
0.835657
1.002550
0.846982
0.835657
0.959635
0.706911
0.830889
0.868440
0.959635
0.950694
1.027584
1.297593
1.158714
1.601577
1.716614
2.312660
7.401705
34.625530
83.197951
161.339641
335.844755
509.814620
762.414932
912.721753
1015.897989
1008.981466
869.499445
712.279677
480.914712
315.942764
157.365799
83.298683
34.946799
24.666786
34.065843
46.833754
70.059896
91.224909
117.256641
131.546855
142.244697
138.517618
124.435425
106.869936
78.506470
58.799982
37.618876
25.423765
14.973879
10.806918
7.093549
6.685853
6.626844
6.208420
6.352663
6.836653
6.817579
7.391572
7.488728
7.814765
8.131862
8.950830
8.722544
8.950830
8.879900
9.131432
9.272695
9.043813
9.073615
9.167790
8.657575
8.954406
9.137988
9.025931
9.110570
9.291768
9.311438
9.382963
9.113550
9.312630
9.172559
9.024739
8.256435
9.229779
9.092689
##ZVALUE=295
0.424981
0.554919
0.704527
0.661612
0.590682
0.520945
0.536442
0.690818
0.518560
0.543594
0.609756
0.676513
0.543594
0.661612
0.600815
0.446439
0.630617
0.517964
0.591874
0.719428
0.687838
0.900626
1.033545
0.999570
1.002550
1.334548
1.265407
1.343489
1.703501
3.150702
16.859770
49.825907
111.420751
266.914964
429.188013
679.748654
844.211578
1004.477739
1015.799642
948.276520
808.660984
572.052002
394.397974
203.842521
112.642646
45.092702
23.256540
20.068884
27.611852
45.815706
63.897967
89.152455
107.516646
127.265453
134.242773
130.272508
120.859742
98.088980
79.776645
56.213737
40.274858
24.427772
16.344786
10.657907
8.398890
7.478595
7.027984
7.369518
7.301569
7.603765
8.168817
8.416772
8.706450
8.813739
9.014606
9.338856
8.950830
9.385943
9.370446
9.005666
9.033680
9.203553
9.173751
9.287000
9.374619
9.229779
9.218454
8.865595
9.285808
8.929968
8.766651
9.057522
8.953810
8.842945
8.968711
8.921623
##ZVALUE=300
0.473857
0.629425
0.545979
0.449419
0.468493
0.573993
0.629425
0.544786
0.663996
0.553727
0.609756
0.689626
0.714660
0.582933
0.683665
0.673532
0.814795
0.797510
0.752807
0.940561
0.661612
0.954866
0.773668
0.850558
1.030564
1.030564
1.017451
1.277924
1.358986
1.289845
1.624823
3.781915
18.717647
27.655959
86.807013
192.847848
434.559584
574.343801
859.639645
941.289663
1015.897989
1007.534862
876.701474
715.690851
470.700860
189.421773
156.883001
34.574866
32.220483
16.478896
23.452640
25.993586
41.177869
56.928992
82.837939
101.116896
119.719505
126.608610
126.569867
117.544532
96.831918
79.950690
56.630969
41.668415
25.149584
17.712712
11.599660
9.738803
8.098483
8.218884
8.258820
8.280873
8.252859
8.721948
8.866787
8.782744
9.180903
8.888841
9.486675
9.565949
9.223819
9.892583
9.706616
9.354949
9.739995
9.213686
8.915663
9.247661
8.958578
9.262562
9.044409
8.866787
9.135604
9.103417
8.896589
8.834600
##ZVALUE=305
0.558496
0.562668
0.487566
0.593662
0.427961
0.507832
0.820756
0.582933
0.663996
0.586510
0.481606
0.663996
0.477433
0.602603
0.483990
0.464916
0.579953
0.635982
0.809431
0.740886
0.814795
0.872612
0.716448
0.672936
0.898838
1.020432
0.988841
0.942945
1.016855
0.957847
1.251698
1.223683
1.512766
1.819730
3.016591
17.749667
49.456954
143.124461
261.310935
481.998920
673.270822
896.303654
1010.385752
1015.897989
972.708464
763.201714
588.421822
373.366475
230.042934
102.991462
50.793886
19.179583
12.903810
16.531944
23.703575
39.838552
56.864619
78.537464
96.153617
114.039779
120.883584
119.589567
110.404491
95.246434
77.338815
53.144693
39.113760
25.503635
17.744899
11.838675
9.803772
9.301901
9.099841
9.098649
9.449720
9.301901
9.179711
9.066463
9.241700
9.608865
9.347796
9.773970
9.631515
9.513497
9.446740
9.822845
9.119511
8.855462
9.164810
9.297729
8.809566
9.016991
8.858442
9.070635
8.943677
8.900762
##ZVALUE=310
0.458956
0.514984
0.484586
0.591874
0.615716
0.544786
0.556707
0.502467
0.585914
0.480413
0.581741
0.594854
0.575781
0.629425
0.631809
0.562668
0.677705
0.528693
0.659823
0.588894
0.693798
0.646710
0.811815
0.835657
0.946522
0.834465
0.778437
0.976920
0.966787
1.079440
1.195669
1.095533
1.230836
1.260638
1.418591
1.540780
1.624823
7.774830
25.494695
89.607835
179.112554
366.538763
563.025475
816.752911
963.876843
1015.897989
1015.897989
889.123678
725.357533
483.497977
320.131779
160.993934
84.797740
31.225681
14.600754
11.147857
14.627576
23.327470
33.070445
50.916672
68.393946
91.431737
104.009509
113.915801
115.674734
105.138421
94.465613
74.351430
58.318973
38.524866
27.599931
17.936826
13.484955
10.213852
9.469986
8.971691
9.373426
8.894801
9.054542
8.985996
9.176731
9.707808
9.740591
9.446740
9.715557
9.487867
9.428859
9.352565
9.795427
9.907484
9.234548
9.425879
9.233952
8.907914
8.757710
8.800626
##ZVALUE=315
0.540614
0.424981
0.553727
0.523925
0.414848
0.389814
0.272989
0.587702
0.495911
0.605583
0.607967
0.574589
0.658631
0.491738
0.476837
0.704527
0.490546
0.537634
0.622869
0.650883
0.581741
0.733733
0.567436
0.798702
0.815988
0.737906
0.683665
0.803471
0.760555
0.851750
0.914931
0.952482
0.962615
1.045465
1.097918
0.973940
1.225471
1.601577
1.661777
3.475547
13.586879
58.875680
129.673481
294.371843
469.630957
742.495656
906.643867
1015.897989
1015.897989
961.826444
812.437534
576.295853
403.362513
214.677453
117.325783
43.220520
19.183755
10.371804
9.984970
14.515519
19.685626
32.863617
45.050979
65.494776
81.794858
99.095702
107.522607
108.906627
103.079677
87.312460
71.387887
53.622723
39.703846
25.143623
18.233657
12.717843
10.701418
9.813905
9.326935
9.435415
9.271502
9.407997
9.342432
9.291768
9.563565
9.408593
9.273887
9.496808
9.365678
9.646416
9.726882
8.827448
9.046793
9.271502
9.160638
8.897781
##ZVALUE=320
0.471473
0.404716
0.386834
0.300407
0.520945
0.510812
0.371933
0.364780
0.480413
0.577569
0.474453
0.626445
0.539422
0.565648
0.618696
0.474453
0.455976
0.582933
0.508428
0.785589
0.540614
0.579953
0.651479
0.613928
0.631809
0.830889
0.728965
0.808835
0.764728
0.862479
0.857711
0.544786
0.809431
0.917912
0.803471
0.932813
1.067519
1.066923
1.281500
1.297593
1.557469
1.911521
8.259416
28.814673
101.364851
201.197863
399.509668
592.443943
848.125815
993.395448
1015.897989
1015.897989
887.839794
718.637705
480.006933
307.575464
142.394900
75.226426
28.306842
13.465881
8.690953
9.222627
12.967587
18.184781
29.633641
41.031837
60.003996
76.048970
93.862414
103.044510
104.226470
98.535419
85.512996
70.838928
51.481724
38.517714
25.118589
18.509626
12.898445
10.681748
9.686947
9.347796
9.380579
9.247661
9.400845
9.446740
9.527802
9.633899
9.375811
9.315610
9.173751
9.205937
8.945465
9.152889
8.848906
8.981824
##ZVALUE=325
0.445843
0.378489
0.505447
0.421405
0.406504
0.345707
0.403523
0.441670
0.597835
0.592470
0.507832
0.412464
0.482798
0.505447
0.443459
0.527501
0.472665
0.569820
0.484586
0.625849
0.620484
0.640750
0.659823
0.711679
0.692606
0.843406
0.809431
0.557899
0.656843
0.695586
0.776649
0.829697
0.693798
0.616908
0.944734
0.937581
0.962615
1.155734
1.009703
1.110435
1.049638
1.401901
1.452565
1.546741
4.671812
17.637610
69.180727
150.365829
333.055854
510.382652
763.249993
927.737951
1015.897989
1015.897989
950.853825
789.818764
531.745553
365.752578
193.695426
105.661750
39.459467
17.815828
8.684993
8.186698
9.324551
11.857748
18.301606
26.459694
42.832494
56.884885
75.679421
87.736845
96.950531
99.268556
90.128779
80.993772
62.633753
50.210953
33.665895
24.663806
16.994476
13.073683
10.834932
9.945631
9.576678
9.516478
9.185672
9.000897
9.078979
9.221435
9.064674
9.229779
8.923411
8.652806
8.864999
8.965731
##ZVALUE=330
0.436902
0.466704
0.439882
0.552535
0.429749
0.417829
0.249743
0.348687
0.377893
0.495911
0.516772
0.582933
0.622869
0.438690
0.554919
0.487566
0.500679
0.545979
0.521541
0.508428
0.489950
0.512600
0.577569
0.605583
0.810623
0.615716
0.611544
0.586510
0.553727
0.738502
0.594854
0.781417
0.719428
0.780821
0.688434
0.780821
0.891685
0.723600
0.983477
0.976920
1.025796
0.928640
1.079440
1.222491
1.469851
1.594424
2.191663
10.102987
33.872724
114.605427
217.077732
418.240428
600.100756
836.163759
969.211459
1015.903950
981.892943
816.383958
648.798943
411.574841
263.891816
125.374794
63.744783
22.967458
10.854602
7.643700
7.706881
8.992553
11.497736
17.725825
25.538802
40.061474
52.351952
71.273446
81.878901
90.694427
92.105865
85.478425
75.568557
59.973001
47.402978
32.061934
24.642944
16.299486
13.127923
10.573864
9.917617
9.443760
9.139776
9.126663
9.015799
8.945465
8.799434
8.698702
8.579493
8.835793
##ZVALUE=335
0.289679
0.345707
0.424981
0.414848
0.369549
0.478625
0.531673
0.540614
0.400543
0.381470
0.482798
0.511408
0.567436
0.370741
0.433922
0.454783
0.458956
0.498891
0.465512
0.418425
0.430942
0.454783
0.483990
0.541806
0.559688
0.713468
0.531673
0.635982
0.852942
0.537634
0.527501
0.821948
0.691414
0.745654
0.659823
0.722408
0.781417
0.719428
0.679493
0.753999
0.923872
0.924468
0.875592
1.047850
0.870824
1.164675
1.226664
1.301765
1.443624
4.423857
17.531514
71.386695
148.848891
321.403742
494.763851
744.334459
897.619724
1002.622843
995.019674
867.895484
721.525550
485.716462
326.812863
168.683529
88.741779
30.707717
14.351606
8.484721
7.765889
8.049607
8.867979
11.433959
16.015768
26.077628
36.602616
52.944422
65.056682
78.279972
84.286928
85.618496
80.626607
68.466663
58.619976
44.939518
34.872890
23.654699
17.845631
13.146996
11.130571
9.508729
9.130836
8.617640
8.593798
8.541942
8.359551
8.307695
##ZVALUE=340
0.391603
0.232458
0.174642
0.114441
0.240803
0.165701
0.013709
0.187755
0.402927
0.350475
0.304580
0.266433
0.367761
0.420809
0.361800
0.218749
0.319481
0.444651
0.232458
0.358820
0.500679
0.405908
0.463724
0.303984
0.485778
0.437498
0.448823
0.381470
0.334978
0.280738
0.379682
0.366569
0.296831
0.560880
0.479817
0.421405
0.571609
0.620484
0.556707
0.391603
0.527501
0.660419
0.690818
0.742674
0.670552
0.896454
1.035929
0.912547
0.924468
1.138449
1.328588
2.125502
7.924438
43.471456
108.359456
261.997581
428.169966
664.470792
830.777884
981.354713
1007.041931
922.447443
786.543489
571.718812
396.450758
204.984546
111.683607
46.227574
19.534826
8.616447
7.985830
7.611513
7.693768
8.951426
10.928512
17.095804
23.590922
35.592914
47.816634
63.301921
72.534680
79.858899
80.788732
75.800419
68.753958
55.720806
44.487715
31.943917
24.384856
17.305613
13.084412
10.165572
8.981824
8.360744
8.175969
8.142591
##ZVALUE=345
0.435710
0.334978
0.397563
0.513792
0.366569
0.563860
0.449419
0.436902
0.391603
0.433922
0.468493
0.410676
0.503659
0.432730
0.465512
0.426769
0.431538
0.470877
0.461936
0.390410
0.413656
0.600815
0.542998
0.423789
0.536442
0.637770
0.607967
0.577569
0.540614
0.554919
0.520945
0.575781
0.534654
0.607967
0.426769
0.582933
0.641942
0.639558
0.634789
0.671744
0.777841
0.829697
0.770688
0.623465
0.899434
0.853539
0.941753
0.826716
0.934601
1.034737
1.119971
1.362562
1.358986
1.509786
4.009604
16.850829
75.406432
159.510970
331.725478
503.955483
749.194622
885.788798
977.254510
960.476995
825.074911
675.441623
456.506014
296.386480
136.297941
67.696571
23.431778
11.745691
8.058548
7.499456
7.443428
7.448792
8.355975
10.413527
15.128851
21.372437
33.537745
43.065548
56.391954
65.403581
72.885752
75.549483
71.046948
64.811707
52.817464
42.994618
31.870604
24.213791
16.311407
12.931824
10.303855
8.448958
##ZVALUE=350
0.460744
0.554919
0.351667
0.391603
0.375509
0.258684
0.344515
0.250936
0.407696
0.372529
0.520945
0.360608
0.321865
0.227690
0.379682
0.464916
0.388622
0.308752
0.267625
0.546575
0.440478
0.310540
0.493526
0.419617
0.406504
0.459552
0.570416
0.541806
0.446439
0.405908
0.607967
0.519753
0.555515
0.434518
0.517964
0.558496
0.421405
0.543594
0.547767
0.603795
0.666976
0.464916
0.667572
0.634789
0.786781
0.770688
0.909567
0.730753
0.825524
0.975728
1.092553
1.030564
0.984669
1.077652
1.240969
1.268983
2.081990
7.339716
36.734939
87.489486
210.852623
349.015594
570.398569
733.548403
889.678001
930.237770
859.727859
733.492970
500.417948
338.120461
179.780722
97.306967
34.572482
15.410781
8.098483
7.364750
6.569624
6.729960
7.054806
7.515550
10.327697
13.861656
20.511746
27.970672
39.518476
49.723983
60.215592
65.810680
69.004893
66.733956
59.920549
51.771998
39.848685
31.393766
22.036433
16.973615
##ZVALUE=355
0.509620
0.529885
0.456572
0.496507
0.466704
0.386834
0.468493
0.455976
0.590682
0.467896
0.578761
0.531673
0.719428
0.582933
0.553727
0.534654
0.578761
0.533462
0.766516
0.643730
0.547767
0.454783
0.823736
0.594854
0.577569
0.692606
0.617504
0.711679
0.712872
0.734925
0.593662
0.617504
0.611544
0.788569
0.750422
0.742674
0.728965
0.642538
0.858903
0.668764
0.676513
0.805855
0.739694
0.759959
0.750422
0.807643
0.849962
0.861883
0.801682
1.020432
0.979900
0.914931
0.955462
1.092553
1.020432
1.067519
1.253486
1.395941
1.832843
4.619956
16.356707
62.396526
128.604770
274.258852
429.094434
654.320717
791.702867
884.411931
873.121023
736.805797
589.293838
387.012959
245.664716
108.367801
52.699447
17.714500
9.021759
6.885529
6.657839
6.716847
6.706715
6.587505
7.566810
9.411573
12.286901
18.111467
24.260879
34.715533
42.806864
52.909851
58.445930
62.192678
60.886741
54.514408
48.755407
37.764907
##ZVALUE=360
0.447631
0.398755
0.327826
0.339746
0.437498
0.279546
0.334978
0.424981
0.391603
0.402927
0.338554
0.361800
0.395775
0.480413
0.354648
0.370741
0.458956
0.444651
0.415444
0.436902
0.558496
0.703931
0.495911
0.584722
0.485778
0.362992
0.499487
0.527501
0.534654
0.462532
0.387430
0.553727
0.383854
0.497699
0.470877
0.512600
0.628829
0.430942
0.558496
0.631809
0.927448
0.625849
0.544786
0.515580
0.652671
0.601411
0.477433
0.764728
0.702739
0.669956
0.750422
0.822544
0.860691
0.838637
0.870824
0.902414
0.954866
1.089573
1.333952
1.423955
1.509786
2.228618
7.334948
32.636523
79.126954
196.663737
325.105786
524.347425
684.732795
833.899975
867.546797
800.305009
673.207641
455.268621
299.718976
145.737529
76.354742
28.314590
12.470484
6.651878
6.115437
6.110668
5.996823
5.885959
5.931854
6.851554
7.645488
10.359883
13.606548
20.182729
27.135611
38.387775
44.804811
53.444505
55.975914
56.017637
##ZVALUE=365
0.617504
0.461936
0.472665
0.613928
0.489950
0.639558
0.708699
0.562668
0.548959
0.688434
0.552535
0.637770
0.681877
0.646710
0.650883
0.450611
0.657439
0.663996
0.632405
0.580549
0.676513
0.638962
0.608563
0.583529
0.781417
0.607967
0.633597
0.648499
0.605583
0.586510
0.742674
0.716448
0.548959
0.496507
0.732541
0.670552
0.721812
0.702739
0.643730
0.723600
0.765920
0.852942
0.638962
0.602603
0.733733
0.720620
0.726581
0.735521
0.878572
0.788569
0.668764
0.929832
1.065731
0.976920
0.892878
0.927448
1.013875
1.111627
1.088977
1.008511
1.262426
1.463890
1.606941
1.807809
3.481507
18.909574
51.108599
131.834745
243.705511
447.597504
602.189898
772.763491
844.199657
824.476480
721.566081
520.384908
365.208983
199.458599
108.878613
39.561987
16.592741
7.204413
6.152987
6.092787
6.034970
5.988479
5.714893
5.730987
6.137490
6.977916
8.668900
12.249947
16.584992
24.692416
32.047629
40.265918
##ZVALUE=370
0.362992
0.342727
0.328422
0.318885
0.241995
0.291467
0.450611
0.406504
0.338554
0.368953
0.386834
0.423789
0.370741
0.378489
0.517964
0.366569
0.283718
0.233650
0.333786
0.431538
0.372529
0.395775
0.498891
0.419617
0.345707
0.483990
0.558496
0.389814
0.432730
0.458956
0.479817
0.490546
0.288486
0.480413
0.386834
0.400543
0.494719
0.651479
0.457764
0.410676
0.453591
0.500679
0.611544
0.422597
0.581741
0.490546
0.638962
0.500679
0.749826
0.611544
0.597835
0.708699
0.681877
0.737906
0.691414
0.833869
0.730753
0.794530
0.714660
0.742674
0.924468
0.894666
1.199841
1.230836
1.169443
1.452565
2.015829
9.791851
30.697584
94.544888
182.615519
352.208018
510.960817
720.279813
817.987919
833.047032
757.128000
586.929917
432.263017
242.638588
137.422681
54.564476
24.827719
8.824468
5.963445
5.503893
5.406737
5.153418
5.158782
5.052686
5.110502
5.397797
6.005764
7.525682
10.193586
14.700890
##ZVALUE=375
0.338554
0.442863
0.300407
0.326633
0.400543
0.265837
0.334978
0.413656
0.510812
0.421405
0.427961
0.414848
0.375509
0.287890
0.233650
0.297427
0.361800
0.368953
0.418425
0.583529
0.461936
0.330806
0.522733
0.594854
0.561476
0.436902
0.473857
0.448823
0.306964
0.413656
0.463724
0.396967
0.445843
0.524521
0.507832
0.447631
0.380874
0.577569
0.496507
0.460744
0.365973
0.398755
0.504851
0.270605
0.416636
0.364780
0.537634
0.609756
0.672936
0.504851
0.534654
0.605583
0.635982
0.610948
0.528693
0.722408
0.677705
0.672936
0.601411
0.652671
0.792742
0.754595
0.780821
0.700951
0.875592
1.174808
1.034737
1.083612
1.404881
4.501939
16.048551
57.957768
123.639703
278.045535
430.136919
640.691519
764.508843
834.609866
805.139542
660.128593
508.892536
310.201645
195.131898
95.366836
47.800541
16.061664
7.476807
5.250573
4.980564
4.909635
4.668832
4.424453
4.557967
4.421473
4.821420
5.355477
##ZVALUE=380
0.293851
0.495911
0.365973
0.312924
0.399947
0.249743
0.241995
0.287890
0.405908
0.417829
0.433922
0.349879
0.398755
0.354648
0.203848
0.400543
0.262856
0.399947
0.360608
0.171661
0.251532
0.369549
0.425577
0.244975
0.493526
0.413656
0.503659
0.319481
0.608563
0.307560
0.403523
0.520945
0.378489
0.317693
0.447631
0.365973
0.517964
0.577569
0.581741
0.449419
0.444651
0.499487
0.564456
0.377893
0.420809
0.361800
0.522733
0.412464
0.602603
0.608563
0.477433
0.443459
0.540614
0.548959
0.527501
0.479817
0.374913
0.650883
0.647902
0.832677
0.580549
0.714660
0.777841
0.629425
0.710487
0.742674
0.819564
0.935793
1.036525
1.332760
1.357794
2.311468
8.895993
41.860938
98.307729
228.367448
364.567637
565.473437
712.727904
827.340484
826.931596
713.052750
574.387908
380.414724
250.834823
122.887492
63.710809
22.819638
10.033846
5.373955
4.690886
4.752874
4.434586
4.596710
4.269481
4.464984
##ZVALUE=385
0.356436
0.276566
0.430942
0.353456
0.252724
0.415444
0.397563
0.285506
0.278950
0.292659
0.345707
0.280738
0.281930
0.233650
0.328422
0.247955
0.278950
0.293851
0.449419
0.423789
0.424981
0.363588
0.274777
0.324845
0.377893
0.309944
0.569820
0.316501
0.490546
0.435710
0.449419
0.423789
0.403523
0.399947
0.381470
0.449419
0.451803
0.310540
0.460744
0.335574
0.410676
0.496507
0.454783
0.445843
0.520945
0.408888
0.434518
0.492930
0.398755
0.473857
0.536442
0.372529
0.506639
0.342727
0.456572
0.572801
0.426769
0.491738
0.506639
0.689626
0.713468
0.741482
0.850558
0.651479
0.611544
0.690818
0.762939
0.805855
0.761747
1.056790
1.228452
1.097918
1.272559
1.570582
4.326701
23.540854
60.800910
154.054761
273.460746
485.302806
640.192032
790.167451
829.077959
784.123540
680.984855
494.063497
347.401500
185.591578
104.321837
42.737722
17.713904
6.022453
4.442930
3.957748
4.055500
3.940463
##ZVALUE=390
0.273585
0.392795
0.250936
0.245571
0.315905
0.418425
0.335574
0.279546
0.363588
0.280738
0.183582
0.309944
0.393987
0.457764
0.353456
0.332594
0.269413
0.213981
0.267625
0.320673
0.391603
0.498891
0.197887
0.260472
0.359416
0.425577
0.317693
0.472665
0.319481
0.349879
0.301600
0.391603
0.300407
0.190735
0.270605
0.443459
0.407696
0.303984
0.501871
0.429749
0.447631
0.412464
0.516772
0.413656
0.467896
0.213981
0.567436
0.412464
0.321865
0.298619
0.408888
0.327826
0.324845
0.523925
0.517964
0.559688
0.482798
0.620484
0.565648
0.425577
0.451803
0.695586
0.427961
0.670552
0.629425
0.752807
0.786781
0.794530
0.938773
0.947714
1.042485
1.110435
1.128912
1.011491
1.170635
1.301765
2.592802
10.254979
45.708418
104.164481
240.525603
376.820564
565.036535
698.522925
814.125538
822.910666
729.014874
604.179502
406.009555
269.496441
137.544870
70.806742
24.970770
10.019541
4.485846
4.102588
##ZVALUE=395
0.380874
0.202656
0.357628
0.409484
0.347495
0.364780
0.384450
0.296831
0.320673
0.174642
0.319481
0.290871
0.205636
0.226498
0.263453
0.325441
0.248551
0.227690
0.108480
0.280738
0.245571
0.318885
0.386834
0.221729
0.083447
0.453591
0.297427
0.418425
0.325441
0.241995
0.315905
0.309944
0.395775
0.363588
0.381470
0.420809
0.338554
0.487566
0.530481
0.443459
0.304580
0.518560
0.295639
0.477433
0.278950
0.462532
0.486970
0.440478
0.364780
0.531673
0.489950
0.365973
0.492930
0.478625
0.558496
0.376701
0.547767
0.374913
0.509620
0.435710
0.521541
0.477433
0.473857
0.628829
0.598431
0.592470
0.674725
0.632405
0.742674
0.901818
0.907779
1.046658
0.925660
0.932813
0.901818
1.086593
0.948906
1.257658
1.575947
6.648898
24.091601
83.895922
166.133642
325.660706
473.044515
672.024488
786.018968
848.067999
816.506743
681.989789
528.985858
322.476625
201.632977
93.450546
44.539571
15.047789
##ZVALUE=400
0.330806
0.322461
0.262856
0.346899
0.344515
0.412464
0.320673
0.281930
0.273585
0.247955
0.404716
0.261664
0.265837
0.320673
0.489950
0.274777
0.279546
0.248551
0.485778
0.329614
0.240803
0.311732
0.383854
0.314713
0.286698
0.305772
0.402927
0.364780
0.411868
0.475645
0.245571
0.397563
0.435710
0.336766
0.367761
0.422597
0.523925
0.460744
0.527501
0.359416
0.397563
0.272989
0.395775
0.611544
0.327826
0.406504
0.418425
0.338554
0.375509
0.550747
0.389814
0.560880
0.378489
0.367761
0.443459
0.462532
0.516772
0.442863
0.573993
0.449419
0.470877
0.411868
0.467896
0.580549
0.558496
0.525713
0.643730
0.710487
0.814795
0.829697
0.898838
0.884533
0.973940
0.869632
1.069903
1.111627
0.896454
1.090765
1.052618
1.212955
1.324415
3.829598
13.496876
48.414469
105.202794
235.283971
374.747515
582.988858
721.126795
824.835896
835.430622
721.268654
584.524870
380.908847
245.693922
121.140480
##END
