##TITLE=FQP00351
##FORMAT=SPECTACLE-ASCII V-1.2
##DATA TYPE=ULTRAVIOLET SPECTRUM
##SECOND TYPE=ULTRAVIOLET SPECTRUM
##DATE=12/26/17
##TIME=13:14:01
##SPECTROMETER/DATA SYSTEM=SPECTACLE
##XUNITS=NM EM
##YUNITS=ENERGY
##YFACTOR=1
##FIRSTX=220
##LASTX=410
##NPOINTS=96
##3DDATA=Equidistant
##ZUNITS=NM EX
##FIRSTZ=210
##LASTZ=400
##ZPOINTS=39
##XYDATA=(Y..Y)
##ZVALUE=210
2.345443
2.118945
1.979470
2.469420
2.530813
2.512932
2.999902
3.340840
3.145933
2.403855
2.486706
2.199411
2.918839
2.836585
2.587438
2.788901
3.408790
3.107786
3.637671
3.428459
3.755689
4.508495
4.274845
4.460812
4.472733
4.950762
5.508661
4.901886
4.635453
5.624890
5.456805
5.619526
5.378723
6.065965
5.854964
5.883574
6.976724
6.156564
6.061792
6.253719
6.624460
6.593466
6.292462
7.274747
7.388592
7.502437
7.154942
6.968975
8.425713
8.046627
8.049607
8.346438
7.455945
7.701516
8.195639
7.963777
7.565618
8.168817
8.533597
8.405447
8.845925
8.772612
9.487867
8.147955
9.040833
10.507703
9.529591
10.702610
13.646483
14.128685
16.874671
18.756986
23.454428
25.398731
28.479695
31.984448
36.677718
37.574768
34.931898
38.744807
34.738779
32.711625
29.279590
26.093721
19.282699
17.954707
11.859536
10.880828
8.966923
8.054972
9.025931
8.390546
9.300709
8.952618
8.843541
8.583665
##ZVALUE=215
8.284450
8.189678
6.244779
5.891919
5.577803
4.924536
4.503727
5.182624
4.645586
5.164742
6.063581
4.442930
4.770756
3.564954
3.246665
3.689528
3.129840
4.106760
3.703833
4.488826
4.259944
4.577637
4.802942
5.360842
5.131960
4.683733
5.871654
5.712509
5.829930
6.089807
6.641746
6.925464
7.449985
6.905794
7.442832
7.265806
7.305741
8.589625
7.873774
8.552670
8.559823
8.341670
8.065701
8.383989
7.981658
8.251667
8.707643
9.133816
8.792877
9.723902
8.638501
8.576512
10.273457
9.310842
10.444522
10.549426
9.451509
9.797812
10.125637
10.838509
10.021925
11.126995
9.861588
9.004474
10.640621
11.267662
12.337565
13.988614
15.176535
15.508533
17.594695
21.825433
23.967624
29.888749
32.229424
35.820603
36.024451
37.628412
38.750768
38.124919
35.489798
32.414794
30.825734
24.884939
21.034479
15.698671
13.430715
10.698438
11.549592
9.983778
9.278655
9.379983
9.372830
10.298491
9.287596
10.492802
##ZVALUE=220
32.811761
37.617683
39.752722
38.564801
37.946701
28.425455
24.115443
15.899539
13.944507
11.605620
11.992455
11.802912
11.574626
11.906624
8.776784
8.713603
7.314682
5.993843
5.980730
5.908608
4.668832
5.968809
5.822778
6.138682
6.692410
7.971525
7.322431
7.782578
7.728934
8.940697
9.107590
8.611679
9.183884
8.722544
9.551644
9.455681
9.671450
9.464622
9.478927
9.313822
8.912683
9.723902
10.054708
9.678602
10.294914
9.884834
9.464622
9.359717
9.923577
10.288954
9.735823
10.104775
9.916425
10.697842
10.362864
10.552406
10.320544
10.050535
11.904836
11.084676
10.446906
11.306405
11.405945
11.157990
10.416508
12.204647
12.624860
14.625788
15.744567
18.153787
19.741654
25.343895
27.801991
31.722784
33.394694
38.069487
39.283633
38.834810
40.124655
40.207505
38.056970
31.816959
32.924414
27.319789
22.004843
18.691421
14.796853
12.880564
10.605454
10.336637
11.122823
9.133816
9.175539
9.609461
11.426806
10.127425
##ZVALUE=225
68.253875
71.064830
97.960830
122.694969
133.992434
135.998726
128.143430
101.089478
71.843863
52.447915
32.768846
26.567578
24.085641
25.880933
26.074648
25.101900
20.755529
18.700957
14.729500
11.505485
8.662939
7.141829
6.848574
5.887747
6.362796
7.481575
6.481409
8.537769
8.746982
8.837581
9.798408
10.036826
10.216832
11.146665
11.140704
10.386705
11.278987
11.540651
10.518432
10.682940
11.645555
10.560751
10.887980
11.041760
10.943413
9.660721
10.263920
11.212826
10.390878
11.086464
11.190772
11.151433
11.337996
11.451840
12.196898
11.706948
11.750460
12.347698
11.960864
12.322664
12.818575
13.327599
12.386441
11.867881
12.865663
13.692975
13.652444
14.916658
16.511679
19.102693
21.605492
25.290847
28.381944
31.419992
34.263730
34.513474
36.107898
36.280751
33.606887
33.248663
31.613708
29.005408
26.410818
22.546649
21.728873
17.406940
15.146732
13.603568
12.642741
12.049675
11.621714
11.351705
12.296438
11.404753
12.388825
11.107922
##ZVALUE=230
55.606961
64.245462
106.502771
166.283846
222.023726
276.740789
302.447677
300.303698
279.014707
241.377950
160.959959
109.724998
65.766573
50.696731
48.495531
47.854781
51.833987
52.254796
46.929717
38.578510
29.344559
18.483996
15.812516
10.334849
8.608699
7.494688
8.401871
9.316802
9.667873
8.818507
11.328459
10.356903
10.905862
11.084676
10.084510
11.392832
11.596680
10.745525
12.208819
12.332797
10.124445
10.013580
9.051561
11.469722
12.159944
10.952950
10.246634
11.308789
10.610819
10.120869
11.710525
12.983680
11.734962
11.395812
12.944937
12.696981
12.661815
13.850927
13.139844
12.124777
12.504458
13.163686
12.698770
13.812780
14.365911
13.671517
15.058517
15.297532
17.015934
18.347502
21.291971
22.110939
26.292801
27.478933
29.492974
32.036901
30.687451
31.791925
27.996898
28.201938
28.109550
24.721622
21.801591
19.671917
18.192530
16.541481
15.387535
14.058948
12.883544
13.832450
11.637807
12.048483
13.131499
13.021827
11.662841
12.440681
##ZVALUE=235
16.828775
21.777749
48.670769
118.887424
203.824639
330.948830
418.241620
543.088913
588.485599
593.713522
527.397990
427.120924
291.054845
203.393698
125.504732
90.513825
77.365637
78.771710
80.238581
83.201528
78.692436
66.046715
53.552985
38.277507
26.818514
17.631650
13.363957
10.938644
10.845661
9.876490
10.852814
10.645986
10.259748
10.630488
11.817813
11.153817
11.519790
10.993481
11.850595
10.858774
11.306405
10.717511
12.575984
10.986924
11.206865
10.770559
11.535883
10.935664
11.343956
12.542605
11.143684
12.032986
12.213588
12.559891
12.373924
13.772845
13.423562
12.601614
13.567805
12.517571
12.128949
14.343858
13.225675
15.049577
13.659596
15.719533
15.949607
15.473962
16.841888
18.311739
21.646619
24.414659
26.115775
25.080442
26.264787
26.805997
26.886463
27.021766
26.867986
24.679899
23.161769
22.121668
20.501614
20.603538
17.335415
16.543865
17.427802
16.488433
15.473962
15.691519
14.716983
14.443994
13.751984
15.732646
15.125871
14.269948
##ZVALUE=240
2.306700
2.113581
6.986856
20.687580
50.409436
125.543475
228.588581
410.485864
550.230742
709.334612
793.169737
793.885589
744.313002
579.653978
451.374650
291.883945
204.287767
132.988691
102.904439
97.919703
111.737847
113.704801
110.665560
101.766586
78.587532
62.026978
46.312809
33.419728
19.591451
15.301704
11.346936
9.457469
9.926558
9.537935
8.675456
9.872913
10.484457
9.584427
9.255409
9.999871
9.630919
9.793639
8.655787
9.167790
9.551644
10.336637
9.848475
10.391474
9.159446
11.413693
11.060834
10.443926
10.509491
11.801720
10.978580
11.239648
12.324452
11.946559
13.064742
12.645721
13.638735
13.916492
14.823675
14.569759
15.615821
14.513731
14.929771
15.930533
18.321872
18.752813
19.348860
21.621585
24.307966
25.908947
24.993420
25.805831
25.975704
22.797585
25.156736
23.485422
23.046732
19.910932
20.927787
21.207929
19.317865
18.441677
20.281672
17.377734
17.904639
17.372966
16.677976
17.332435
17.061830
16.353726
17.248988
16.615987
##ZVALUE=245
1.495481
1.428723
1.203418
1.378655
4.006624
11.765957
38.547516
82.845688
199.883580
318.113565
527.814627
669.748783
788.989663
852.235556
815.180540
699.460506
557.636619
369.534492
254.384875
148.651600
110.973716
101.525784
110.185742
119.018555
126.020908
127.445459
111.452937
93.838573
68.413615
53.374767
38.088560
21.924973
13.991594
10.065436
7.961988
7.404685
7.793903
7.766485
7.262826
7.900000
8.400679
8.377433
8.064508
7.233620
7.894635
7.006526
7.786751
8.001924
8.385777
9.050965
8.017421
8.524656
10.273457
8.940697
8.453727
9.594560
9.295940
9.930730
11.442900
11.918545
11.030436
10.788441
11.252761
11.738539
12.656450
11.278987
12.169480
14.159679
14.765859
14.790893
15.684962
17.329454
18.179417
18.523932
18.601418
19.107461
20.027757
21.023750
19.403696
18.177629
19.073486
18.469691
18.197894
16.244650
17.624497
16.898513
16.170740
17.891526
16.872883
15.947819
15.349984
15.334487
16.190410
15.505552
16.111732
16.319752
##ZVALUE=250
1.129508
1.183748
1.425743
1.669526
1.621842
1.898408
3.015995
8.342862
36.816597
77.196956
177.384615
295.172930
431.653857
624.895692
751.153827
849.004984
829.415917
729.675889
607.130527
411.314964
265.240669
168.796778
103.802681
90.142488
98.395944
113.751888
130.521655
132.835507
130.321980
116.793513
104.103684
75.579882
57.238936
34.341812
21.274686
12.946725
9.670854
7.331967
6.849766
6.898642
6.829500
6.805658
7.049441
6.977916
7.460713
6.533861
6.443858
6.350875
7.152557
6.549954
6.976724
7.116795
7.667542
8.055568
7.794499
8.634925
7.584691
8.500814
8.934736
9.440780
8.323789
8.690953
9.875894
9.939671
10.258555
10.283589
11.874437
10.386705
11.733770
12.498498
13.546944
14.265776
15.616417
15.381575
16.708970
16.819835
17.731786
17.220974
17.268658
17.677546
17.003417
16.462803
16.954541
15.081763
15.604496
15.500784
15.589595
15.375614
14.459491
15.389919
15.338659
15.901923
15.734434
15.341640
14.713407
15.148520
##ZVALUE=255
1.250505
1.277924
1.128912
1.419783
1.325607
1.331568
1.577735
1.539588
1.860857
5.326867
29.671788
72.643757
146.495700
293.188691
427.436829
616.999865
733.518004
836.742520
856.779814
773.741603
658.869743
508.207679
315.869451
200.092793
110.491514
86.813569
86.250901
98.343492
119.228959
135.463476
142.199993
136.422515
127.000809
102.721453
79.312921
51.922798
35.827756
21.351576
14.287829
9.277463
6.893873
6.452799
6.621480
6.736517
7.358789
6.230474
6.167889
6.095767
6.581545
6.328821
6.173849
6.959438
6.588697
6.614923
6.976724
6.958842
7.193685
7.280707
6.724596
7.710457
7.726550
7.595420
7.582903
8.222461
8.680820
8.590817
8.890629
9.525418
9.894967
10.895729
11.081696
11.485815
12.843609
13.653636
14.018416
15.563965
14.937520
15.176535
15.173554
14.539957
14.791489
14.305711
13.926625
15.108585
14.944673
14.606714
13.923645
14.296770
14.943480
14.477968
14.589429
13.982654
15.262961
14.198422
14.661551
14.298558
##ZVALUE=260
1.141429
1.005530
1.031756
0.974536
1.065731
1.489520
1.516938
1.206994
1.282692
1.578927
1.690984
3.068447
11.165738
50.915480
106.583834
225.013494
351.874828
544.791818
683.999658
833.825469
892.847776
866.586566
759.899020
584.507585
426.234603
250.381827
161.648989
94.939470
73.799491
81.406832
100.411773
125.930905
137.334466
146.366954
143.780708
128.361583
109.132528
79.811811
59.489608
35.807490
24.552941
12.862682
9.708405
6.763935
6.382465
6.077886
6.328821
5.988479
5.778670
6.173849
6.113648
6.682873
6.481409
6.277561
6.346703
6.611943
6.288886
6.821752
6.493926
6.684661
6.977916
7.425547
6.708503
7.185936
7.601976
7.996559
8.188486
8.866787
8.904934
9.936690
9.508729
10.714531
11.989474
11.357665
12.258887
12.592673
12.389421
12.519956
12.577772
12.606978
12.137890
12.654662
12.544990
13.073683
12.104511
12.447834
12.588501
13.173819
12.724996
13.885498
13.474822
13.472438
13.579726
13.869405
14.047623
13.794899
##ZVALUE=265
1.032948
1.055598
1.163483
1.065731
1.123548
1.187921
1.170635
1.276731
1.193881
1.195669
1.454949
1.542568
1.378655
1.790524
5.185604
20.213723
73.007941
140.882730
239.832997
462.103486
659.445524
921.908617
1015.897989
1015.897989
1007.502079
804.098845
618.611574
376.555920
241.294503
126.203895
82.722902
67.301989
78.685880
105.788708
123.863816
146.620870
151.452422
144.521594
131.350756
104.716420
81.005692
53.747892
37.231445
20.484924
12.835860
8.763671
6.744862
6.423593
5.775690
6.097555
6.450415
6.050467
6.240606
6.800890
6.470680
6.738901
6.985664
7.451773
7.183552
6.719828
7.340908
6.956458
7.251501
7.476807
7.887483
7.463694
8.136630
8.178949
8.673668
9.431839
9.504557
10.018945
10.787845
10.892749
11.266470
11.145473
11.724830
11.796951
10.670424
11.186600
11.152625
11.230707
11.640787
11.514425
12.208819
12.379885
11.641979
11.995435
12.247562
12.215972
12.459755
11.960864
11.928678
11.844635
12.087822
13.029575
##ZVALUE=270
0.859499
0.913739
0.809431
1.060963
0.997782
1.001954
0.946522
1.255870
1.153946
1.029968
1.114607
1.290441
1.468658
1.558661
1.808405
2.004504
1.917481
9.166002
28.264523
89.915991
182.512403
330.239534
613.523722
839.730501
1015.878916
1015.878916
1015.878916
1007.682681
778.941512
566.998720
374.918580
190.927982
106.889606
59.352517
57.374835
79.321861
102.121830
128.859878
143.850446
149.785876
144.392848
127.554536
109.005570
78.370571
58.484674
34.246445
21.777749
13.652444
9.329915
6.656647
6.390810
6.414652
6.592870
6.185770
6.531477
6.998777
6.614923
6.906986
7.342696
7.600784
7.711649
7.262826
7.865429
7.155538
7.821918
7.470846
7.806420
8.299947
8.196831
9.101629
9.245872
9.883642
9.502769
10.625720
10.402799
10.480881
10.547638
10.533929
10.362864
10.856986
10.504723
10.668635
11.065602
10.608435
11.047721
10.696650
10.636449
11.195540
11.084676
10.829568
11.579990
11.107922
11.424422
11.395812
11.531711
11.244416
##ZVALUE=275
0.890493
0.992417
1.043677
0.685453
0.785589
0.808835
1.040697
0.851750
0.841618
0.918508
1.042485
1.011491
1.294613
1.174808
1.182556
1.059771
1.469851
1.624823
2.026558
3.883839
15.042424
60.456991
135.362744
305.115581
493.253469
767.809749
942.963958
1015.897989
1015.897989
1014.918685
888.589621
634.664893
438.197851
233.597755
133.170485
65.167546
48.440695
56.919456
75.097680
102.814436
123.882890
142.944455
145.325661
140.757561
128.695965
103.011727
80.348849
56.308508
38.526654
22.932887
15.163422
9.658933
7.653832
7.014871
6.783605
6.893873
7.212758
7.353425
7.045865
7.300973
7.999539
7.846951
8.050799
7.824898
7.979870
8.158684
8.155704
8.465648
8.359551
9.075999
10.026693
10.433793
9.950995
10.363460
10.465980
10.476708
10.462999
10.428429
9.720922
9.955764
9.681582
10.602474
10.023713
9.564757
9.802580
10.968447
10.117888
10.069609
9.623766
10.126829
9.827614
10.053515
10.362864
10.552406
10.415912
10.521412
##ZVALUE=280
0.800490
0.837445
0.858903
0.918508
0.973940
0.989437
0.981688
0.945926
1.098514
1.057982
1.064539
1.047850
0.975728
1.152754
1.198649
1.375675
1.366735
1.410842
1.299977
1.649857
1.763701
2.334714
10.508895
33.367872
112.391710
210.601687
395.843387
577.863455
816.005468
961.445570
1016.025543
1009.941697
904.188752
681.649446
501.450896
284.446478
168.545842
74.986815
45.068860
39.109588
51.355958
76.846480
98.637938
125.136971
139.231682
142.046809
138.692856
124.080777
105.744600
76.505542
58.259964
37.362576
24.623871
14.904737
10.606647
8.314848
7.694960
7.262826
7.660985
7.851720
8.174777
8.258820
8.209944
8.449554
7.904768
8.595586
8.775592
8.443594
8.910894
9.434819
9.660721
9.622574
10.129809
10.464787
10.223985
10.678768
10.221601
10.110736
10.768771
10.424852
10.203719
9.709597
10.382533
9.415746
9.968877
9.767413
9.763837
9.915829
9.638667
9.726882
9.832978
9.974837
10.008812
10.199547
10.144711
9.931922
##ZVALUE=285
0.822544
0.738502
0.711679
0.706911
0.752807
0.566840
0.744462
0.703931
0.871420
0.720620
0.890493
0.936985
1.107454
0.724792
0.967979
0.995994
1.050830
1.124740
1.038909
1.138449
1.308918
1.392961
1.567602
1.781583
4.723668
17.297864
57.593584
123.342872
272.014737
432.030559
608.784556
849.272013
969.000459
1015.119553
947.740674
764.812827
597.072840
367.202759
230.288506
108.166933
57.859421
30.290484
31.732917
49.405694
68.920851
99.015832
116.709471
134.048462
139.948726
137.330890
127.338767
102.955699
85.146427
58.108568
41.589737
25.238991
16.933680
11.283755
9.969473
9.008646
8.810759
8.419752
8.852482
9.279847
8.890629
9.173751
9.289980
9.332895
9.987950
9.912848
10.217428
9.834766
10.570884
10.093451
10.194778
10.578632
10.386705
10.542870
10.447502
10.030866
9.833574
9.997487
10.109544
9.909868
9.646416
9.606481
9.903908
9.178519
9.839535
9.552836
9.226799
9.402633
8.936524
9.114742
9.254813
9.504557
##ZVALUE=290
0.614524
0.735521
0.497699
0.771880
0.689626
0.504851
0.622869
0.867844
0.718832
0.763535
0.805855
0.750422
0.807643
0.729561
0.742674
1.006722
0.841618
1.105666
0.848770
1.004934
1.184940
1.079440
1.263618
1.230836
1.538992
1.715422
2.246499
7.125735
33.139586
75.691938
182.201862
303.403735
520.036817
695.294738
888.376832
962.404609
949.933529
843.333602
648.548603
483.376980
283.593535
168.548822
72.837472
37.511587
22.887588
29.844642
47.777891
64.354539
92.662573
111.260414
130.389929
137.732625
135.335922
125.974417
103.770494
83.243847
57.295561
41.088462
26.391745
18.955469
13.227463
11.022687
9.961724
9.630919
9.557605
9.735823
10.398626
9.599924
10.072589
10.152459
10.198951
10.522604
10.978580
10.780692
10.996461
10.996461
10.595918
10.260940
10.350943
10.285974
10.439754
10.256767
9.919405
9.758472
9.721518
9.259582
9.869933
9.861588
9.509921
9.213686
9.451509
9.183884
9.180903
9.140968
9.135604
8.977652
##ZVALUE=295
0.596642
0.607967
0.554919
0.468493
0.676513
0.596642
0.749826
0.794530
0.694990
0.635982
0.684857
0.609756
0.655651
0.810623
0.751615
0.729561
0.760555
0.823736
0.711679
0.984669
1.128912
0.970960
1.048446
0.941753
1.308918
1.303554
1.413822
1.260638
1.827478
2.946854
16.430616
44.542551
125.740767
232.286453
433.591604
601.793528
813.801885
932.654738
968.154669
912.091732
742.995739
578.061938
356.629491
222.727656
101.406574
50.442815
22.234917
19.982457
29.533505
42.829514
66.508651
84.491968
108.876824
124.747753
133.612752
131.262541
118.214488
102.349520
79.785585
61.666965
40.846467
28.807521
19.142628
14.918447
11.570454
10.781884
10.663867
10.731816
10.906458
10.689497
11.230707
11.034608
10.950565
11.348724
11.097789
11.112690
10.992885
10.792613
10.768771
10.429621
10.123849
10.268688
9.997487
10.355711
9.992719
9.953976
10.067821
9.862781
9.502769
9.581447
9.184480
9.443760
9.195805
9.196997
9.068847
8.759499
##ZVALUE=300
0.668764
0.488758
0.627637
0.517964
0.472665
0.728965
0.600815
0.706911
0.667572
0.653863
0.627637
0.814795
0.595450
0.517964
0.661612
0.720620
0.526905
0.678897
0.670552
0.782609
0.677705
0.680685
0.946522
0.984669
1.053810
1.043677
1.198649
1.225471
1.415610
1.303554
1.423955
1.818538
7.293820
25.213957
83.451867
162.784457
332.892537
505.661964
740.612745
881.239772
982.370973
972.564816
836.804509
686.575770
454.730988
293.829441
149.018764
81.057549
31.834841
17.394423
18.985868
25.679469
41.758418
57.588816
82.573891
100.844502
121.194720
128.435493
127.105713
119.575858
99.460483
82.718730
60.098767
44.196844
28.550625
20.873547
15.033484
13.073683
10.982752
10.887980
11.213422
11.140704
11.238456
11.006594
11.048913
11.052489
10.792613
10.756850
10.735989
10.882616
10.805726
10.568500
10.637641
9.883642
10.217428
10.113716
9.938478
9.673834
9.398460
9.937882
9.219646
9.767413
9.068847
9.071827
9.080768
8.847713
##ZVALUE=305
0.509620
0.668764
0.609756
0.524521
0.418425
0.608563
0.649691
0.744462
0.530481
0.668764
0.613928
0.678897
0.727773
0.551939
0.647902
0.628829
0.687838
0.764728
0.756979
0.805855
0.821948
0.878572
0.941753
0.887513
0.849962
0.845790
0.939965
1.114607
1.129508
1.194477
1.137853
1.420975
1.461506
1.601577
3.963709
13.870597
55.981874
124.363899
284.281969
447.934866
694.496036
868.888497
1014.389992
1015.897989
935.086608
783.605576
550.695658
387.068987
207.157731
113.847852
44.887662
22.863746
14.668703
17.412901
27.068853
38.382411
60.004592
75.587630
99.303722
110.665560
121.816993
121.821761
111.242533
97.730756
75.939894
59.153438
40.636659
28.572679
19.068718
15.116930
12.218952
11.387467
11.505485
11.263490
11.030436
10.668635
10.895729
10.793805
10.547638
10.590553
10.632873
10.448694
10.433793
10.364652
10.247827
10.218620
10.114908
9.954572
9.686947
9.789467
9.506941
9.639859
9.129643
9.253621
9.299517
9.299517
##ZVALUE=310
0.524521
0.639558
0.612736
0.470877
0.623465
0.644922
0.415444
0.736713
0.799894
0.617504
0.611544
0.735521
0.698566
0.653863
0.525713
0.563860
0.560880
0.628829
0.711679
0.528693
0.525713
0.768900
0.614524
0.717640
0.954866
0.938773
0.781417
0.802875
1.207590
0.955462
1.066923
1.065731
1.082420
1.416802
1.448989
1.567602
1.878738
6.990433
23.913980
79.174638
159.078836
342.056751
528.608561
785.638690
956.632495
1015.897989
1015.897989
902.934670
734.670758
484.762788
320.381522
159.444809
84.488988
32.634735
16.239882
13.399720
16.579628
24.969578
34.165978
52.699447
69.288611
91.130733
104.540586
114.238858
114.286542
106.535554
94.431639
74.354410
58.443546
39.093494
29.306412
19.801855
15.451908
12.028813
11.173487
10.238886
10.363460
10.419488
10.087490
10.321736
10.541677
9.934902
10.078549
10.389686
10.201931
10.033846
10.022521
9.919405
9.524822
9.371638
9.795427
9.131432
9.237528
8.669496
8.920431
9.053946
##ZVALUE=315
0.496507
0.545979
0.440478
0.434518
0.563860
0.629425
0.523925
0.801682
0.478625
0.630617
0.572801
0.640750
0.563860
0.670552
0.675917
0.612736
0.714660
0.575781
0.719428
0.613928
0.689626
0.720620
0.735521
0.789762
0.741482
0.657439
0.826716
0.912547
0.764728
0.853539
0.797510
0.891685
0.997782
1.116991
0.941753
1.173615
1.467466
1.424551
1.759529
3.307462
11.901855
49.949884
113.197565
266.884565
444.968939
733.791590
928.794742
1015.897989
1015.897989
1015.128493
870.712399
603.068471
417.701006
216.031671
117.700696
44.992566
20.647645
11.474490
12.189746
15.608668
21.070838
33.505559
46.049953
65.406561
80.247521
99.247694
107.151866
108.454823
102.338791
87.011456
72.641969
52.667856
38.986802
25.994778
19.202828
14.461875
11.488795
10.257959
10.245442
10.040998
9.778738
9.606481
9.807944
9.666681
9.659529
9.697676
9.893775
9.880662
9.382963
9.744763
9.476542
9.090900
9.172559
8.868575
8.974671
9.001493
##ZVALUE=320
0.409484
0.445843
0.476837
0.517964
0.410676
0.602603
0.408888
0.485778
0.544786
0.501871
0.540614
0.524521
0.544786
0.540614
0.618696
0.493526
0.461936
0.587702
0.383854
0.587702
0.641942
0.583529
0.553727
0.520945
0.762939
0.609756
0.776649
0.756979
0.974536
0.838637
0.859499
0.891685
0.809431
0.900626
0.907779
1.129508
1.212955
1.236796
1.287460
1.305938
1.561642
1.719594
5.901456
30.524731
73.980689
187.458396
322.434902
572.319627
783.915520
1013.809443
1015.897989
1015.897989
1007.369757
763.897896
543.355942
291.590691
163.408518
68.164468
32.065511
12.527704
9.894967
10.620952
13.120770
18.889904
27.714968
43.417811
57.308674
76.401830
89.788437
100.824833
103.549957
96.843839
86.138844
66.795945
52.486658
35.820603
26.094913
17.744899
13.619661
10.562539
9.919405
9.550452
9.423494
9.382963
9.011626
9.522438
9.597540
9.042621
9.046793
9.112954
9.364486
9.253621
9.424686
9.228587
8.918643
8.785725
##ZVALUE=325
0.623465
0.493526
0.544786
0.518560
0.674725
0.606775
0.518560
0.678897
0.576973
0.521541
0.573993
0.454783
0.650883
0.606775
0.769496
0.720620
0.537634
0.569820
0.514984
0.633597
0.684857
0.747442
0.736713
0.664592
0.898838
0.690818
0.832677
0.884533
0.702739
0.890493
0.853539
0.878572
1.064539
0.887513
0.959635
0.873804
1.017451
1.157522
1.187921
1.411438
1.483560
1.479983
1.510978
1.901984
3.315806
18.809438
49.830675
134.167671
250.454545
512.963533
767.386556
1015.986800
1015.986800
1015.986800
1015.986800
971.407890
704.457760
398.926735
227.774978
94.236732
45.113564
16.020536
9.638667
8.767843
9.350777
12.778640
17.583966
27.913451
39.620996
58.508515
71.394444
86.630583
93.988776
95.571876
90.601444
75.587630
64.063668
47.466755
35.590529
23.088455
17.080903
12.640953
10.684729
10.137558
9.701848
9.419918
9.658933
9.102821
9.358525
8.849502
8.875728
8.860826
9.100437
8.994937
8.889437
9.018779
##ZVALUE=330
0.282526
0.412464
0.442863
0.413656
0.411868
0.435710
0.498891
0.513792
0.439882
0.356436
0.457764
0.458956
0.393987
0.506639
0.478625
0.391603
0.403523
0.442863
0.508428
0.380874
0.475645
0.541806
0.433922
0.552535
0.489950
0.488758
0.609756
0.602603
0.563860
0.521541
0.701547
0.642538
0.688434
0.754595
0.626445
0.578761
0.728965
0.792742
0.892878
0.823736
0.945926
0.955462
0.999570
1.221895
1.279712
1.308918
1.966953
7.617474
25.767684
86.933970
167.181492
342.868567
508.756042
751.698017
907.203555
1003.147960
975.778699
826.970935
660.510659
422.894955
270.612836
128.116608
64.554811
23.548603
11.238456
7.734895
8.163452
9.088516
10.706782
17.305613
24.762750
37.276745
50.929785
69.366693
80.389977
88.420510
89.544654
83.476901
73.153973
57.840943
45.159459
30.412674
23.788810
16.814470
13.037920
10.453463
9.483695
9.281635
8.614659
8.667707
8.596778
8.454919
8.607507
8.598566
8.299947
8.481741
##ZVALUE=335
0.421405
0.491738
0.512600
0.453591
0.481606
0.462532
0.466704
0.623465
0.312924
0.400543
0.341535
0.436902
0.380874
0.470877
0.541806
0.707507
0.576973
0.601411
0.598431
0.603795
0.570416
0.578761
0.656843
0.481606
0.762939
0.585914
0.661612
0.597835
0.661612
0.762939
0.668764
0.706911
0.780821
0.785589
0.590682
0.819564
0.708699
0.698566
0.941753
0.825524
0.841618
0.985861
0.831485
0.916719
1.172423
1.183748
1.259446
1.491904
1.639724
3.075600
16.594529
45.787692
128.303766
232.699513
439.428687
628.901720
867.727995
974.157453
1001.667976
928.833485
731.323957
550.841689
327.535868
195.136666
82.668662
38.365722
14.015436
8.544922
7.217526
7.966757
9.020567
11.249781
16.815662
24.168491
36.775470
48.512816
64.806938
75.537562
83.791614
84.391832
77.979565
69.180727
56.299567
45.622587
32.909513
24.556518
16.722679
13.191700
10.481477
9.592772
8.993745
8.779764
8.265972
8.530617
8.317828
8.555651
##ZVALUE=340
0.374913
0.438690
0.540614
0.353456
0.505447
0.370741
0.512600
0.630617
0.462532
0.513792
0.444651
0.521541
0.460744
0.532866
0.489950
0.336766
0.533462
0.544786
0.420809
0.429749
0.571609
0.633597
0.553727
0.429749
0.422597
0.655651
0.663996
0.627637
0.561476
0.601411
0.781417
0.682473
0.613928
0.712872
0.737906
0.735521
0.749826
0.799894
0.781417
0.900626
0.949502
0.980496
0.922680
0.879765
0.873804
1.094937
1.033545
1.262426
1.168847
1.296997
1.481771
2.074838
6.816983
32.628775
84.823966
228.310823
398.501754
675.444007
896.160603
1015.930772
1015.930772
1015.930772
912.706852
646.125674
438.065529
217.911601
116.925836
47.436953
20.051599
8.758903
7.838607
8.043647
8.212924
9.571910
11.038780
16.701818
23.215413
34.433603
46.287775
62.485933
71.345568
78.591704
78.553557
73.970556
66.467524
54.703951
44.434667
31.562448
24.216771
16.930699
12.902617
10.574460
9.161830
8.416772
8.363724
8.058548
##ZVALUE=345
0.296831
0.447631
0.397563
0.427961
0.399947
0.457764
0.515580
0.587702
0.402927
0.474453
0.454783
0.488758
0.487566
0.402927
0.507832
0.330806
0.480413
0.546575
0.434518
0.486970
0.308752
0.369549
0.563860
0.526905
0.517964
0.581741
0.294447
0.483990
0.688434
0.546575
0.606775
0.553727
0.557899
0.655651
0.709891
0.785589
0.667572
0.775456
0.513792
0.755787
0.658631
0.726581
0.784993
0.607967
0.805855
0.858903
0.826716
0.866652
0.940561
1.034737
1.276731
1.220703
1.423955
1.826882
2.988577
17.477870
51.478744
145.961642
269.438624
525.582433
776.670575
1015.859842
1015.859842
1015.859842
1015.859842
931.666493
663.771033
370.640755
199.693441
72.344542
31.957626
12.154579
8.538961
7.857680
7.750988
7.776618
8.705854
10.742545
14.389753
22.254586
30.980706
45.235753
54.592490
64.653754
70.602894
73.287487
70.678592
62.270761
53.631663
42.062998
32.773614
22.532940
16.767979
12.232661
9.954572
8.855462
##ZVALUE=350
0.476837
0.423789
0.327826
0.512600
0.371933
0.607967
0.526905
0.338554
0.531673
0.539422
0.461936
0.369549
0.270605
0.355840
0.354648
0.392795
0.376701
0.519753
0.522733
0.546575
0.528693
0.573993
0.460744
0.549555
0.570416
0.593662
0.708699
0.515580
0.551939
0.614524
0.561476
0.559688
0.574589
0.659823
0.681877
0.549555
0.742674
0.579953
0.573993
0.660419
0.621676
0.633597
0.661612
0.638962
0.812411
0.770688
0.658631
0.756979
0.830889
0.852942
0.864863
1.063943
1.129508
0.998974
1.236796
1.393557
2.241731
7.098913
32.107830
74.798465
186.294913
322.789550
555.166602
745.807886
953.281522
1015.897989
1002.969742
867.601633
603.094697
396.859646
194.181800
103.031993
38.907528
16.479492
7.969737
7.121563
6.738901
6.952882
6.674528
7.677674
10.063648
13.326406
19.741654
26.886463
38.224459
46.954751
58.594942
63.628554
66.583753
64.655542
58.300495
50.598979
38.986802
31.170845
21.976829
17.166734
##ZVALUE=355
0.373721
0.479817
0.454783
0.511408
0.368953
0.454783
0.327826
0.448823
0.436902
0.423789
0.449419
0.471473
0.404716
0.437498
0.358820
0.429749
0.389814
0.394583
0.540614
0.531673
0.467896
0.383854
0.457764
0.398755
0.419617
0.570416
0.586510
0.459552
0.542998
0.591874
0.605583
0.531673
0.497699
0.586510
0.544786
0.596642
0.572801
0.590682
0.648499
0.523925
0.716448
0.616908
0.669956
0.687838
0.725985
0.716448
0.713468
0.753999
0.771880
0.675917
0.884533
0.997782
0.971556
1.029968
0.879765
0.970960
1.012683
1.457930
1.603961
4.040599
14.849901
58.087707
120.472908
256.296396
405.413508
627.684593
761.359930
854.766965
846.949816
721.421838
588.167906
390.388966
250.628591
111.005902
53.560734
17.492771
8.948445
6.705523
6.440878
6.132722
6.652474
6.598830
7.262826
8.996725
11.635423
17.309785
23.748875
33.921599
42.347908
51.402450
56.703687
61.018467
60.109496
54.398775
47.589540
38.283467
##ZVALUE=360
0.471473
0.318885
0.419617
0.367761
0.308752
0.411868
0.376701
0.560880
0.312924
0.473857
0.394583
0.402927
0.387430
0.405908
0.480413
0.347495
0.430942
0.420809
0.547767
0.364780
0.332594
0.345707
0.380874
0.422597
0.508428
0.428557
0.441670
0.343919
0.528693
0.460744
0.410676
0.631809
0.557899
0.487566
0.554919
0.566840
0.483990
0.605583
0.504851
0.754595
0.685453
0.590682
0.691414
0.754595
0.497699
0.595450
0.532866
0.635982
0.773668
0.670552
0.630617
0.871420
0.833869
0.810623
0.789762
0.843406
1.014471
1.015663
1.039505
1.062751
1.283884
2.058744
6.120801
28.306842
70.400834
176.044703
291.823745
478.933454
631.084442
778.535008
816.967487
758.662820
640.344620
435.586572
299.011469
156.865716
82.512498
28.261542
12.325644
6.407499
5.942583
6.162524
5.831718
5.833507
6.172657
6.453991
7.470846
10.035634
13.606548
19.681454
26.493669
36.356449
44.071674
51.125884
54.295659
54.657459
##ZVALUE=365
0.383854
0.352859
0.445843
0.287890
0.422597
0.465512
0.491738
0.428557
0.340939
0.357628
0.413656
0.379682
0.375509
0.417829
0.433922
0.376701
0.452995
0.581741
0.416636
0.398755
0.397563
0.522733
0.449419
0.552535
0.446439
0.406504
0.488758
0.480413
0.404716
0.540614
0.483990
0.468493
0.609756
0.613928
0.690818
0.484586
0.485778
0.513792
0.609756
0.702739
0.529885
0.464916
0.624657
0.660419
0.453591
0.456572
0.693798
0.462532
0.531673
0.669956
0.480413
0.703931
0.713468
0.869632
0.738502
0.814795
0.976920
0.866652
0.848770
1.031756
1.062751
1.248717
1.051426
1.492500
2.842546
15.938878
43.361783
116.074681
216.462016
401.161909
544.631481
699.419975
777.087808
766.711831
677.637458
499.228835
355.940461
200.084448
110.576749
42.049885
17.873645
7.134676
5.991459
5.767941
5.613565
5.574822
5.623698
5.435944
5.737543
6.470680
8.016825
11.970997
15.963912
23.305416
29.710531
38.490891
##ZVALUE=370
0.383854
0.408888
0.349879
0.381470
0.378489
0.442863
0.361800
0.293851
0.435710
0.367761
0.369549
0.437498
0.286698
0.355840
0.368953
0.478625
0.467896
0.407696
0.631809
0.416636
0.473857
0.360608
0.379682
0.480413
0.393987
0.551939
0.415444
0.499487
0.381470
0.397563
0.444651
0.558496
0.497699
0.513792
0.513792
0.507832
0.491738
0.524521
0.464916
0.454783
0.618696
0.584722
0.590682
0.591874
0.562668
0.583529
0.532866
0.588894
0.593662
0.551939
0.564456
0.647902
0.579953
0.524521
0.698566
0.693798
0.678897
0.722408
0.791550
0.743866
0.854731
0.933409
1.104474
1.068711
1.183748
1.258850
1.758933
7.912517
26.423931
86.510777
166.978836
325.790644
476.620793
659.710765
750.902891
781.950951
724.765658
567.743778
426.943898
242.734551
139.960647
55.222511
26.224852
10.048747
6.266832
5.252957
5.185604
5.102754
5.047917
4.884601
5.130768
5.366802
5.809665
7.742643
9.859800
14.723539
##ZVALUE=375
0.458956
0.400543
0.353456
0.442863
0.326633
0.246763
0.372529
0.312924
0.431538
0.349879
0.221729
0.366569
0.586510
0.445843
0.401735
0.470877
0.441670
0.461936
0.389814
0.401735
0.388622
0.266433
0.548959
0.528693
0.418425
0.370741
0.386834
0.329614
0.645518
0.486970
0.433922
0.648499
0.508428
0.366569
0.530481
0.470877
0.550747
0.477433
0.471473
0.506639
0.551939
0.558496
0.546575
0.621676
0.325441
0.551939
0.567436
0.557899
0.481606
0.704527
0.800490
0.661612
0.767708
0.563860
0.626445
0.561476
0.683665
0.610948
0.674725
0.624657
0.715852
0.691414
0.811815
0.792742
0.921488
0.897646
1.076460
1.255870
1.455545
3.950596
14.225841
53.156614
115.451813
258.428454
402.411819
600.470901
716.035962
783.843994
757.933855
624.725819
487.223864
300.228596
191.299915
95.892549
48.913956
16.472936
7.739663
5.149841
4.861951
4.670620
4.512668
4.682541
4.586577
4.643798
4.889965
5.408525
##ZVALUE=380
0.382662
0.366569
0.335574
0.329614
0.368953
0.325441
0.405908
0.392795
0.336766
0.488758
0.295639
0.345707
0.284910
0.328422
0.384450
0.309944
0.302792
0.271797
0.223517
0.416636
0.448823
0.356436
0.242591
0.432730
0.347495
0.354648
0.483990
0.371933
0.266433
0.354648
0.438690
0.446439
0.415444
0.447631
0.441670
0.338554
0.482798
0.453591
0.403523
0.446439
0.429749
0.485778
0.520945
0.623465
0.589490
0.482798
0.657439
0.574589
0.484586
0.504851
0.516772
0.442863
0.713468
0.696778
0.626445
0.536442
0.656843
0.513792
0.538826
0.711679
0.810623
0.484586
0.730753
0.782609
0.703931
0.898838
0.952482
0.968575
1.005530
1.195669
1.363754
2.452731
7.759929
37.813783
89.893937
212.750435
344.774723
540.822744
683.024526
801.844001
805.121660
698.760748
568.704009
380.106568
251.682997
124.254823
64.400434
23.011565
10.383725
5.140901
4.606843
4.673600
4.635453
4.241467
4.461408
4.385710
##ZVALUE=385
0.366569
0.343919
0.454783
0.401735
0.393987
0.367761
0.580549
0.403523
0.365973
0.281930
0.348687
0.335574
0.503659
0.318885
0.340939
0.425577
0.511408
0.362992
0.395775
0.352859
0.407696
0.345707
0.204444
0.438690
0.468493
0.506639
0.502467
0.413656
0.532866
0.464916
0.422597
0.384450
0.300407
0.415444
0.382662
0.508428
0.413656
0.319481
0.251532
0.496507
0.446439
0.369549
0.412464
0.543594
0.457764
0.472665
0.436902
0.486970
0.429749
0.489950
0.613928
0.488758
0.483990
0.606775
0.499487
0.575781
0.438690
0.537634
0.597835
0.602603
0.515580
0.590682
0.640750
0.608563
0.612736
0.670552
0.714660
0.835657
0.895858
0.948906
1.046658
1.164675
1.263618
1.451969
3.670454
20.431876
53.855777
137.875676
248.209834
444.484949
596.793890
746.500492
793.524981
752.777457
661.240816
484.281778
344.109535
187.917948
106.791854
43.566823
18.161535
6.056428
4.376769
4.088879
4.190803
4.073977
##ZVALUE=390
0.388622
0.380874
0.442863
0.286698
0.338554
0.261664
0.354648
0.396967
0.371933
0.261664
0.151992
0.260472
0.389814
0.095963
0.461936
0.417829
0.381470
0.421405
0.508428
0.392795
0.382662
0.480413
0.512600
0.476837
0.520945
0.392795
0.463724
0.519753
0.413656
0.381470
0.335574
0.478625
0.501871
0.430942
0.403523
0.435710
0.424981
0.324845
0.527501
0.396967
0.435710
0.449419
0.393987
0.421405
0.508428
0.370741
0.503659
0.455976
0.500679
0.467896
0.466704
0.619888
0.442863
0.498891
0.613928
0.328422
0.325441
0.536442
0.422597
0.396967
0.613928
0.551939
0.596642
0.586510
0.679493
0.759959
0.811815
0.666976
0.853539
0.858903
0.862479
1.109838
1.076460
1.258850
1.159906
1.121759
1.992583
10.766983
32.704473
100.435615
190.678835
361.277461
503.605008
665.776730
744.314790
762.164593
701.598525
550.139546
415.966511
253.726840
147.549510
60.020685
28.232932
9.469986
4.885793
4.062653
##ZVALUE=395
0.286698
0.337958
0.347495
0.141859
0.315905
0.333786
0.375509
0.469685
0.279546
0.389814
0.316501
0.339746
0.319481
0.330806
0.383854
0.271797
0.350475
0.307560
0.395775
0.230670
0.321865
0.397563
0.329614
0.333786
0.313520
0.416636
0.470877
0.414848
0.391603
0.420809
0.347495
0.418425
0.372529
0.310540
0.448823
0.303984
0.383854
0.376701
0.492930
0.475645
0.413656
0.499487
0.470877
0.443459
0.539422
0.370741
0.426769
0.298619
0.545979
0.331998
0.478625
0.458956
0.715852
0.674725
0.522733
0.557899
0.487566
0.698566
0.420809
0.526905
0.446439
0.505447
0.565648
0.631809
0.653863
0.691414
0.652671
0.627637
0.707507
0.766516
0.886917
0.916719
0.785589
0.757575
0.904799
0.964999
1.180768
1.069903
1.462698
4.462600
25.588870
61.720610
147.532821
250.032544
424.342752
567.833781
718.762875
776.647925
753.781796
658.628941
485.152602
341.848731
183.022618
98.381639
37.237406
15.856624
##ZVALUE=400
0.386834
0.289679
0.297427
0.316501
0.259876
0.439882
0.338554
0.453591
0.413656
0.429749
0.413656
0.332594
0.366569
0.398755
0.295639
0.346899
0.335574
0.242591
0.306964
0.355840
0.434518
0.344515
0.414848
0.440478
0.411868
0.515580
0.436902
0.434518
0.289679
0.279546
0.357628
0.481606
0.393987
0.425577
0.406504
0.278950
0.191927
0.470877
0.446439
0.432730
0.405908
0.418425
0.229478
0.508428
0.429749
0.455976
0.378489
0.370741
0.341535
0.392795
0.478625
0.513792
0.320673
0.557899
0.296831
0.435710
0.432730
0.548959
0.524521
0.480413
0.456572
0.576973
0.448823
0.652671
0.701547
0.598431
0.558496
0.739694
0.741482
0.742674
0.880957
0.844598
0.952482
0.792742
0.838637
0.851750
0.907779
0.831485
0.946522
1.031756
1.021624
2.550483
12.053847
35.212636
99.948645
184.057951
347.286463
485.402942
658.406615
742.524862
759.717822
695.099831
535.001755
393.627882
224.871635
134.791732
##END
