##TITLE=FSH751
##FORMAT=SPECTACLE-ASCII V-1.2
##DATA TYPE=ULTRAVIOLET SPECTRUM
##SECOND TYPE=ULTRAVIOLET SPECTRUM
##DATE=12/26/17
##TIME=17:36:44
##SPECTROMETER/DATA SYSTEM=SPECTACLE
##XUNITS=NM EM
##YUNITS=ENERGY
##YFACTOR=1
##FIRSTX=220
##LASTX=410
##NPOINTS=96
##3DDATA=Equidistant
##ZUNITS=NM EX
##FIRSTZ=210
##LASTZ=400
##ZPOINTS=39
##XYDATA=(Y..Y)
##ZVALUE=210
9.797812
9.977818
8.082986
7.531643
7.345676
7.107854
6.539822
6.071925
5.069971
3.938675
3.827810
2.485514
2.622604
2.361536
2.648830
2.684593
2.570748
3.599524
3.293753
3.610849
3.373623
3.562570
4.144907
4.838705
4.865527
4.940629
5.209446
5.574822
6.941557
7.018447
7.404685
8.659959
7.450581
9.408593
8.670688
9.206533
9.515882
8.536577
9.111762
8.767843
9.297729
8.677840
8.635521
8.122921
8.741617
9.645820
8.642673
9.225607
8.802414
7.742643
9.163618
9.104609
9.160638
8.788705
8.397698
8.600950
8.843541
8.845925
7.934570
8.007884
8.773804
7.712841
8.275509
8.251667
9.032488
9.107590
10.436773
11.167526
12.082458
13.314486
14.835000
15.868545
19.574761
23.877621
25.949478
25.293827
27.308464
27.248859
26.490688
26.110411
25.622845
23.333430
21.622777
17.759800
15.868545
12.937784
10.683537
9.807944
9.324551
9.566545
10.319948
11.542439
12.651682
14.530420
18.936992
21.709800
##ZVALUE=215
34.439564
34.183860
29.955506
22.358894
16.808510
13.997555
12.659431
11.817813
12.287498
11.256933
9.839535
8.010864
6.505847
5.083680
3.509521
3.572702
2.872944
2.949834
3.608465
3.426671
3.406405
3.803968
3.645420
3.891587
4.250407
4.607439
6.263852
6.370544
5.809665
6.913543
7.867813
8.837581
9.096861
9.184480
9.844899
9.265542
10.714531
8.948445
10.144711
9.671450
10.391474
10.664463
9.984970
8.435845
9.814501
9.509921
8.897781
7.989407
8.900762
8.415580
8.300543
10.138750
8.135438
8.300543
8.200407
7.801652
9.666681
8.591413
8.475780
9.452701
9.272695
8.513927
8.592606
7.732511
9.284616
9.535551
9.308457
10.046959
9.346604
11.360645
14.360547
15.694499
18.124580
21.535754
23.373961
23.763776
24.863482
26.160479
27.150512
26.047826
26.284456
21.520853
20.059943
16.476512
14.258623
12.040734
10.507703
8.226633
9.446740
7.661581
7.534623
7.570982
8.117557
8.399487
9.939671
10.444522
##ZVALUE=220
77.018738
77.472925
79.452991
72.147846
63.201785
47.943592
36.667585
26.442409
20.632744
22.584796
21.160841
21.356940
18.526912
15.817881
13.412833
9.187460
7.954836
5.769730
4.468560
3.696680
3.353953
4.427433
4.421473
4.924536
5.505681
6.103516
5.608797
7.742643
8.602738
10.284781
11.046529
10.967851
11.463761
12.746453
13.492703
12.828708
13.220906
13.171434
13.451576
12.030602
12.605786
12.957454
11.269450
11.374950
11.517406
10.378957
10.939837
12.315512
10.132790
9.560585
9.830594
10.621548
10.741949
9.859800
10.598898
9.653568
10.028481
10.228753
10.503531
10.190606
9.850860
9.179711
10.702610
10.921955
11.382699
10.499954
11.897683
11.963844
11.529922
15.578866
16.081929
19.399524
20.275712
24.056435
27.138591
29.356480
29.774904
31.669736
31.541586
32.478571
30.983686
25.231838
24.133921
22.222996
17.823577
14.977455
12.080669
11.330843
10.136962
9.114742
9.653568
9.019971
9.097457
8.429885
9.767413
7.963777
##ZVALUE=225
118.110776
120.596886
152.062774
172.784925
180.828571
166.465640
156.172514
120.340586
87.805986
65.091848
44.007897
33.923984
35.955906
34.428835
35.676956
30.078888
25.676489
18.947721
15.674829
9.759665
7.659793
5.820990
5.027652
6.820560
6.758571
7.533431
8.306503
9.164810
9.498596
11.040568
12.838840
13.123751
14.007688
16.155839
15.884638
16.891956
15.950799
15.979409
16.008615
16.073585
15.777946
14.677644
15.109777
13.903975
13.810992
14.813542
13.630986
12.880564
13.747811
14.012456
12.230873
13.224483
12.398958
13.136864
12.868643
12.404919
12.472868
13.346672
12.535453
13.473630
12.302995
13.880730
14.460683
12.044907
13.043880
13.444424
15.150905
15.487671
14.841557
18.005967
19.799471
20.017624
22.693872
27.376413
28.927922
29.674768
31.123757
33.206940
33.559799
33.211708
30.314922
30.108690
27.130842
25.182962
21.461844
18.430948
14.535785
14.146566
12.528896
12.130737
11.178851
11.304617
11.104941
11.041760
11.429787
11.207461
##ZVALUE=230
104.040504
113.347769
171.956420
259.293914
331.146717
393.880010
414.830446
412.755609
379.702449
313.271880
229.558945
156.428814
95.367432
69.393516
58.455467
58.944821
57.897568
54.596663
47.560930
39.667487
31.561852
19.841790
15.676618
11.755824
9.980798
8.923411
9.638667
9.993911
10.148883
13.915896
13.286471
13.524890
14.779568
16.259551
16.619563
17.236471
16.048551
15.660524
16.871691
15.371442
15.796423
16.495585
15.644431
16.489625
15.379786
16.166568
15.587807
14.555454
15.371442
15.373826
16.078949
14.136434
15.019774
15.081763
14.022589
14.993548
15.829802
14.811754
15.685558
16.058683
15.571713
15.220642
16.097426
16.249418
15.651584
17.052889
16.928911
17.850995
19.260645
23.244619
23.587942
28.542876
28.422475
35.404563
35.220981
38.122535
37.436485
37.652850
38.888454
36.877990
31.632781
31.346679
28.607845
24.869442
21.900535
19.182563
17.452836
15.743971
14.211535
13.608932
13.858676
13.693571
13.822913
12.855530
13.056993
13.126731
##ZVALUE=235
34.817457
41.299462
73.267817
161.909461
251.413584
366.975665
475.036502
571.684837
594.193935
580.104589
480.014682
389.068723
258.922577
187.473893
125.027895
91.494918
76.905489
81.275702
83.330870
82.459450
82.089901
63.151717
51.050782
36.764741
25.015473
17.572641
13.393760
10.324717
9.667873
10.656714
11.434555
11.541843
11.903644
12.091994
13.703704
13.510585
11.761785
12.821555
15.385747
12.366772
12.527704
12.214780
12.886524
13.424754
12.272596
11.842847
12.579560
12.534857
12.213588
13.119578
12.076497
12.571812
12.623668
12.341738
12.898445
12.050867
12.161732
12.691617
14.625788
12.799501
11.426806
13.818741
13.649464
12.147427
11.905432
12.284517
13.749599
13.033748
15.917420
16.732812
17.251968
20.521879
21.575689
22.936463
25.673509
25.931597
25.593638
24.176836
22.820830
21.270514
21.389723
19.040704
15.976429
17.325878
16.206503
13.040900
13.987422
14.083982
12.197495
12.378693
11.870861
12.532473
13.007522
12.589693
11.414886
10.244846
##ZVALUE=240
2.802610
2.163649
11.136532
33.118725
88.645816
161.618590
322.800875
494.561791
721.006989
856.437683
962.623954
945.590734
855.613947
658.932924
496.490598
297.684669
203.598738
126.494765
98.964572
99.916458
108.403563
115.031004
115.159750
101.523995
81.465840
64.228773
47.388673
31.544566
21.909475
15.183687
12.758970
10.194778
10.950565
11.373758
11.481643
10.871887
11.738539
11.994839
11.493564
10.846853
11.084676
11.745691
12.104511
12.779832
14.020801
12.637973
12.844801
12.645721
12.799501
12.321472
12.772679
12.893677
12.526512
12.372732
13.347864
12.979507
12.515783
12.578964
13.290644
14.031529
12.951493
13.557673
14.605522
14.504790
14.083982
15.802979
16.520619
17.619729
17.960668
18.432736
23.988485
23.244619
26.328564
27.462840
30.125976
30.626655
28.731823
29.807687
27.881861
25.414824
25.630593
21.093488
22.016764
18.399954
17.847419
15.366673
15.522838
14.685988
14.770627
15.405416
14.044642
13.722777
14.312863
13.675690
12.730956
13.793707
##ZVALUE=245
2.020597
1.604557
2.170801
2.113581
6.328821
25.406480
67.134500
170.427561
309.824944
481.464863
740.229487
916.890502
1015.829444
1015.829444
919.656754
767.038465
538.100004
385.136008
289.664865
143.096447
107.300878
100.077987
110.469460
125.073791
126.823783
123.299956
112.618804
91.476440
74.877739
49.607754
36.240816
23.812652
16.127825
10.942817
11.152625
9.755492
10.144711
10.370612
10.525584
10.810494
11.521578
10.582805
11.218786
11.617541
10.827780
11.142492
10.788441
11.216998
11.775494
10.873675
11.723638
11.213422
10.900497
12.067556
11.713505
12.048483
11.346936
11.002421
11.274815
11.587739
12.094975
12.666583
12.122989
12.034774
11.680722
12.717843
14.274716
14.230609
13.772845
15.479922
17.633438
18.506646
19.414425
21.408796
22.317767
21.987557
20.629764
21.993518
21.599531
21.086931
19.999743
18.797517
16.768575
16.109943
15.336871
13.644695
12.543797
12.203455
13.182759
12.211800
12.107491
13.415813
11.501908
11.426806
11.878610
11.565685
##ZVALUE=250
1.164675
1.240969
1.214743
1.564622
1.588464
1.686811
2.692938
8.054972
34.063458
73.348880
169.955492
280.933976
408.053994
594.070554
708.037019
793.392658
785.984993
699.957013
591.414571
413.936973
289.216638
192.217827
118.086934
96.393824
102.452636
115.917921
128.364563
136.358738
132.408738
119.795799
101.781487
77.133775
58.351755
36.516786
25.123954
15.042424
11.762977
9.468794
9.728670
9.115934
8.799434
9.861588
9.174943
9.442568
9.580851
9.334683
9.088516
9.821653
8.820891
9.383559
8.920431
8.658767
8.949637
9.102821
9.193420
8.757710
8.474588
8.081794
8.344650
7.839799
8.784533
8.191466
8.433461
8.244514
9.543896
9.211898
9.315610
10.513663
10.508895
10.781884
11.889935
12.626648
13.515949
14.484525
13.830662
15.614629
15.327930
14.756918
13.829470
13.445616
14.104843
12.318492
11.673570
11.403561
11.547804
10.731816
10.758638
9.825826
10.583997
9.878874
10.622740
10.169744
10.310411
10.048747
9.812713
11.012554
##ZVALUE=255
1.076460
0.999570
1.035929
1.114607
1.367927
1.240969
1.542568
1.864433
2.273917
5.141497
26.256442
67.269802
152.141452
337.681770
522.195697
813.129544
997.465849
1015.704870
1015.704870
1015.704870
999.390483
807.147622
505.422950
321.657658
167.691708
107.665658
93.544722
99.915862
123.426914
135.471821
142.439604
138.741732
129.345655
104.583502
83.521605
56.589842
41.160583
25.576949
17.401576
13.796687
11.673570
11.255741
10.894537
10.974407
10.707974
10.499954
10.146499
10.451674
9.785891
9.824634
10.556579
10.243654
9.762645
9.639859
8.953810
9.178519
9.307861
9.252429
9.236932
8.917451
9.484887
9.264946
8.796453
8.932948
9.580851
9.180903
9.384751
10.321736
10.190606
11.622906
12.865663
14.442801
15.147924
15.172958
16.084909
16.831756
16.731620
16.655922
15.309453
15.740991
14.928579
12.798905
12.279749
10.944605
11.085868
11.264682
10.513663
10.596514
9.576678
10.147691
9.072423
9.251833
9.445548
10.232925
10.013580
9.534955
##ZVALUE=260
1.420975
1.392961
1.419783
1.300573
1.526475
1.416802
1.594424
1.528859
1.533628
2.087951
2.264977
3.847480
14.144778
88.603497
211.114883
489.419699
765.094757
1015.830636
1015.830636
1015.830636
1015.830636
1015.830636
1015.830636
1015.830636
702.559948
467.794538
252.975821
149.809718
88.099837
85.609555
108.090639
127.040744
142.886639
153.777599
149.887800
134.287477
114.876628
84.763765
64.987540
41.500926
29.956698
20.219684
15.203953
12.544990
12.470484
11.923909
12.130737
11.108518
11.537671
11.441708
10.887980
10.991693
10.289550
10.433793
9.109974
10.086894
9.757876
8.657575
10.007620
9.655952
9.409785
8.971691
9.081960
8.956790
9.512901
9.822845
9.246469
9.627938
10.597706
11.456609
12.302995
14.056563
13.973713
15.597939
15.323758
16.964674
16.486645
16.329885
16.235709
15.685558
14.559627
13.295412
12.426972
10.691881
10.544658
10.221601
9.822845
9.142756
8.732677
9.183884
9.292960
9.424686
9.082556
9.007454
8.699894
8.502603
##ZVALUE=265
1.045465
0.997782
1.329780
1.206994
1.167655
1.245737
1.236796
1.394749
1.471639
1.521707
1.699924
1.644492
2.130866
2.594590
5.937815
33.509731
91.911554
236.305594
422.168970
744.799972
995.099545
1015.870571
1015.870571
1015.870571
1015.870571
1015.870571
799.904466
553.588867
296.450853
173.150897
92.328787
72.626472
84.045529
114.270449
133.652687
150.815845
156.973004
148.375630
131.835938
110.452771
85.828900
60.169697
43.076873
26.511550
19.719601
13.406873
12.127757
11.186600
10.705590
10.150671
10.486841
9.819865
8.773804
9.719729
8.968711
9.010434
8.736849
8.686781
9.023547
7.883906
7.869601
8.095503
7.932782
7.883906
7.801652
7.349849
7.827878
8.479953
8.980632
8.465648
9.507537
10.276437
11.269450
12.516975
11.486411
11.692643
11.603832
10.583997
11.175871
10.749698
10.212660
9.719729
8.870959
8.652806
8.205771
8.786917
7.860661
7.804632
8.409619
8.081794
8.268952
8.040667
8.126497
7.261634
7.117987
7.426739
##ZVALUE=270
0.887513
0.803471
0.911951
1.084805
0.887513
0.930429
0.943542
0.869632
1.133680
0.963807
1.239777
1.278520
1.190901
1.337528
1.483560
1.766682
3.312826
11.833906
48.768520
168.624520
315.149426
593.124628
829.315782
1015.829444
1015.829444
1015.829444
1015.829444
1011.284590
849.888921
582.283735
391.933918
201.108456
116.012692
69.064498
64.865947
86.612701
110.327601
136.156678
150.525570
157.563686
151.267648
134.216547
115.406513
84.708929
63.738823
39.744973
28.605461
17.592907
13.485551
10.462999
9.452701
8.824468
8.993745
8.601546
8.330941
8.047819
8.613467
7.796884
7.632971
7.562637
7.386804
7.254481
6.915927
7.231832
6.861687
7.079840
7.364750
7.354617
7.620454
7.678866
8.597970
8.943677
9.617805
10.000467
9.802580
9.397864
9.440780
9.257793
8.882880
8.778572
8.542538
8.146763
7.367730
7.452965
7.210970
7.228851
6.945729
7.345676
7.019639
6.812811
7.080436
6.506443
6.625652
6.850958
7.058978
7.085800
##ZVALUE=275
0.794530
0.907779
0.853539
0.612736
0.696778
0.836849
0.682473
0.931621
0.852942
0.829697
0.975728
0.928640
0.910759
1.429915
1.404881
1.284480
1.809597
1.813769
2.154708
5.503893
28.079748
101.625919
304.550529
538.715720
930.191875
1015.825868
1015.825868
1015.825868
1015.825868
1015.825868
1015.825868
798.928738
552.694798
287.686586
163.697004
75.545907
55.197477
64.236522
81.287622
111.795664
128.868818
149.977803
154.423714
147.906542
135.183930
106.189847
86.251497
61.244965
43.457747
25.633574
18.710494
12.133718
10.033846
8.339882
8.208752
7.678866
7.694960
7.445812
7.894635
7.538795
7.530451
7.202625
7.060766
7.005930
7.000566
7.117987
6.746650
7.490516
7.481575
7.679462
8.033514
8.647442
9.352565
9.378791
9.925961
9.577870
9.756684
9.668469
9.461641
8.443594
8.009672
7.633567
7.073879
7.066727
6.636977
6.620884
6.697774
6.616712
6.839633
7.087588
6.776452
6.468892
6.758571
6.239414
6.454587
6.909966
##ZVALUE=280
0.579953
0.596642
0.713468
0.785589
0.743866
0.648499
0.606775
0.791550
0.565648
0.709891
0.935793
0.986457
0.991821
0.969768
1.051426
1.277924
1.485944
1.317859
1.619458
1.595616
1.761913
2.306700
12.185574
40.603876
142.057538
291.831493
559.968948
825.994015
1015.829444
1015.829444
1015.829444
1015.829444
1015.829444
910.777450
657.539964
365.609527
216.671824
96.503496
55.318475
44.886470
56.760907
82.248449
105.645657
130.120516
145.007968
149.063468
143.668652
129.111409
111.023784
79.969764
60.552955
37.985444
26.380420
15.818477
11.293888
8.591413
7.422566
7.000566
6.904602
7.173419
7.081628
6.732941
6.586909
7.236600
6.827712
7.023811
6.761551
7.106662
7.259846
7.023811
7.746816
8.095503
8.350611
8.547902
8.522868
8.605719
7.927418
7.972717
7.439852
7.397532
7.338524
7.156730
6.849766
6.945729
6.281734
6.764531
6.398559
6.363988
6.600618
6.224513
6.303787
6.331801
6.158948
6.109476
6.292462
6.149411
##ZVALUE=285
0.612736
0.467896
0.741482
0.708699
0.489950
0.639558
0.885725
0.534654
0.792742
0.704527
0.727773
0.763535
0.718832
0.875592
0.955462
1.020432
1.085997
0.936985
1.091957
1.285672
1.281500
1.442432
1.539588
1.901388
5.508661
19.929409
72.936416
165.849924
376.756787
589.763522
910.350680
1015.829444
1015.829444
1015.829444
1015.829444
1011.177897
809.192657
497.928858
306.698680
142.241716
74.244738
36.875606
36.427975
55.161715
73.464513
103.584528
122.698545
140.443444
144.193769
142.024755
128.707886
106.852651
85.535645
58.463812
40.985942
23.242831
16.117692
9.589791
8.005500
7.456541
6.641746
6.272793
6.616712
6.258488
6.605983
6.359816
6.513000
6.313920
6.959438
6.760955
6.864667
7.631779
7.425547
7.680655
7.763505
8.070469
7.623434
7.582903
6.957650
7.058978
6.969571
6.739497
6.822944
6.566644
6.357431
6.219745
6.077886
6.171465
6.154776
6.504655
5.970597
5.928874
6.121993
6.094575
5.810857
5.868673
##ZVALUE=290
0.847578
0.737906
0.831485
0.797510
0.751615
0.721812
0.731945
0.677705
0.840425
0.637770
0.764728
0.821948
0.820756
0.793934
0.768900
0.926852
0.904799
1.033545
0.934601
0.968575
1.202822
1.327991
1.365542
1.484752
1.780987
1.818538
2.707839
8.113980
39.940476
93.058944
158.977509
390.062928
615.435839
943.239927
1016.002893
1016.002893
1016.002893
1016.002893
921.771526
618.809462
408.272743
201.618671
104.456544
42.128563
27.534962
34.315586
47.800541
71.984529
92.316866
118.066669
129.987001
142.224431
137.648582
124.493837
106.828809
78.312755
59.119463
37.347674
25.811791
15.203953
10.992885
8.049607
7.007718
5.865693
6.211996
6.270409
5.978942
6.586909
6.432533
7.268786
6.767511
7.568598
7.428527
7.456541
7.288456
7.408857
7.274747
6.871819
7.050633
6.411672
6.276965
6.208420
6.642938
6.340742
6.237626
6.672740
6.012917
6.197691
6.260872
6.118417
5.574822
6.026626
6.042719
5.674958
5.972981
5.979538
##ZVALUE=295
0.588894
0.661612
0.464916
0.515580
0.646710
0.534654
0.450611
0.612736
0.561476
0.524521
0.625849
0.584722
0.632405
0.847578
0.747442
0.717640
0.635982
0.666976
0.875592
0.899434
0.943542
1.078844
0.955462
0.998974
1.358986
1.296997
1.468658
1.508594
1.850724
3.525615
12.784004
56.827664
131.312609
313.215852
512.164831
827.728510
1015.834808
1015.834808
1015.834808
1015.834808
1010.183692
741.246939
516.615510
274.347663
149.080753
55.347681
28.016567
21.696687
28.224587
45.768619
65.328479
89.240670
107.465982
126.661658
135.484934
130.317807
121.036768
98.975897
79.733729
53.641796
39.248466
23.524761
16.224980
9.814501
7.663965
6.295443
5.936623
5.890727
5.838871
6.714463
6.620884
6.608963
6.801486
6.903410
6.953478
7.163882
6.767511
6.677508
6.571412
6.536841
6.035566
6.087422
6.209612
5.879998
5.703568
6.079674
5.677938
6.031990
6.044507
5.661845
5.731583
5.483627
5.654693
5.379915
5.362630
5.711913
##ZVALUE=300
0.350475
0.535846
0.481606
0.409484
0.642538
0.381470
0.507832
0.398755
0.405908
0.521541
0.583529
0.551939
0.658631
0.511408
0.563860
0.631809
0.782609
0.611544
0.522733
0.706911
0.707507
0.691414
0.831485
0.742674
0.980496
1.167655
1.188517
1.121759
1.330972
1.405478
1.797676
2.007484
7.975698
29.776692
102.995634
204.089880
423.959494
650.891662
969.143510
1015.830636
1015.830636
1015.830636
1015.830636
915.156603
607.343912
397.472978
198.769569
106.513500
39.864779
19.572973
18.512607
25.804639
41.478872
57.629943
82.296729
100.639462
119.425654
126.233697
124.811530
116.988420
98.012686
79.309940
54.952502
40.178895
23.597479
16.289949
10.089874
7.768869
6.519556
6.015897
6.259680
6.625652
6.341934
6.207824
6.802678
6.401539
6.165504
6.181598
6.358624
6.089807
6.216764
6.077886
5.940795
6.029606
5.968809
5.960464
5.708933
5.864501
5.605817
5.382895
5.566478
5.397797
5.390644
5.436540
5.647540
5.499721
##ZVALUE=305
0.413656
0.480413
0.236630
0.462532
0.349879
0.549555
0.324845
0.425577
0.468493
0.437498
0.440478
0.464916
0.510812
0.379682
0.545979
0.669956
0.724792
0.432730
0.687838
0.504851
0.568628
0.634789
0.675917
0.701547
0.897646
0.800490
0.991821
1.003742
0.937581
1.001954
1.224875
1.332760
1.438856
1.683831
3.271699
19.747615
56.067705
165.242553
305.051804
577.441454
821.051002
1015.829444
1015.829444
1015.829444
1015.829444
984.376073
768.939853
482.136607
301.489830
135.753751
65.275431
22.912621
13.746619
16.805530
23.735762
39.910674
54.946542
78.054667
94.308853
112.896562
119.392872
118.838549
109.889507
91.537833
75.307488
51.820874
37.424564
22.846460
15.707612
9.660721
7.661581
6.820560
6.431937
6.320477
5.914569
6.276965
5.980730
5.692840
6.182790
5.596876
5.748868
6.097555
5.855560
5.989671
5.909801
5.545616
5.658865
5.704761
5.465746
5.505681
5.255938
5.406737
5.515814
5.282760
5.472898
4.970431
##ZVALUE=310
0.307560
0.443459
0.399947
0.496507
0.354648
0.449419
0.402927
0.517964
0.344515
0.431538
0.482798
0.365973
0.478625
0.493526
0.426769
0.340939
0.484586
0.588894
0.592470
0.470877
0.525713
0.651479
0.508428
0.682473
0.440478
0.750422
0.679493
0.692606
1.041889
1.000762
1.082420
1.091957
1.141429
1.215935
1.532435
1.453757
1.857877
8.421540
29.377937
100.326538
202.772617
430.549979
674.060583
998.374820
1015.829444
1015.829444
1015.829444
1015.829444
968.758464
649.071932
428.889990
209.648609
110.322833
38.202405
16.694665
11.301637
14.580488
22.722483
32.765865
50.725937
65.850616
89.146495
102.786422
112.663507
113.215446
103.938580
92.154741
71.250796
55.616498
35.441518
25.121570
15.373826
11.091828
7.811785
6.784797
5.975962
5.960464
5.747676
5.615950
5.454421
5.318522
5.217791
5.358458
5.701780
5.513430
5.393624
5.912781
5.484819
5.517602
5.234480
5.357862
5.537868
5.196929
4.932880
5.087852
5.120635
##ZVALUE=315
0.360608
0.250936
0.355840
0.285506
0.286698
0.306964
0.341535
0.518560
0.292659
0.493526
0.337958
0.453591
0.357628
0.335574
0.441670
0.349879
0.607967
0.510812
0.504851
0.556707
0.437498
0.687838
0.551939
0.560880
0.582933
0.539422
0.638962
0.573993
0.728965
0.778437
0.791550
0.938773
0.992417
1.129508
1.023412
1.209974
1.297593
1.564622
1.839995
3.855824
14.790893
63.141584
140.821934
324.912667
539.192557
896.240473
1015.826464
1015.826464
1015.826464
1015.826464
1015.826464
785.530806
547.780991
287.723541
156.495571
56.728721
23.024678
10.593534
10.002851
13.812780
19.477606
32.173991
43.866634
65.052509
80.601573
98.784566
106.205940
106.971860
99.823475
84.039569
69.983602
51.266551
37.671924
22.995472
15.394688
9.756684
7.539988
6.162524
5.724430
5.424619
5.337000
5.525947
5.032420
5.147457
5.019903
5.193949
5.037785
5.060434
5.425811
5.316734
5.257726
5.220771
5.103946
4.826784
4.989505
5.067587
##ZVALUE=320
0.216961
0.332594
0.344515
0.217557
0.430942
0.414848
0.383854
0.226498
0.280738
0.275970
0.464916
0.201464
0.238419
0.351667
0.424981
0.485778
0.263453
0.493526
0.368953
0.451803
0.507832
0.398755
0.633597
0.536442
0.493526
0.462532
0.535846
0.604987
0.480413
0.760555
0.771880
0.683665
0.799894
0.817776
0.920892
0.918508
1.036525
1.048446
1.232624
1.452565
1.613498
2.269745
6.583929
35.192966
91.635585
245.878696
413.999557
707.838535
963.299870
1015.817523
1015.817523
1015.817523
1015.817523
942.934752
682.739615
375.749469
212.622881
89.414716
39.477944
12.478828
8.423924
9.218454
11.948943
18.011928
26.196837
42.190552
56.593418
75.093508
88.634491
100.516677
101.844668
95.154643
84.447861
64.555407
49.621463
32.557845
22.835732
14.132857
9.386539
6.885529
5.914569
5.375743
4.950762
5.226731
5.090833
5.168915
4.892945
5.014539
4.917979
4.988909
4.935861
5.135536
4.866719
4.973412
4.926920
4.937649
##ZVALUE=325
0.146627
0.244975
0.387430
0.239611
0.255704
0.329614
0.175834
0.078678
0.120997
0.150800
0.158548
0.229478
0.263453
0.218749
0.357628
0.209808
0.285506
0.245571
0.379682
0.325441
0.401735
0.377893
0.414848
0.461936
0.540614
0.379682
0.582933
0.521541
0.475645
0.589490
0.448823
0.633597
0.604987
0.635982
0.559688
1.022816
0.741482
0.610948
0.697970
0.877976
1.059771
1.226664
1.454949
1.671910
3.553629
22.034645
60.129762
166.794658
306.183696
579.288602
827.620029
1015.727520
1015.727520
1015.727520
1015.727520
996.828675
766.489506
456.058979
276.810527
126.464963
59.602857
18.022656
8.609891
7.565618
8.228421
11.464953
16.057491
26.470423
37.551522
56.875944
70.820451
86.881518
93.743801
94.220638
88.882446
74.800849
61.451793
44.195652
31.871796
19.617677
13.472438
8.350611
6.421804
5.460978
5.335808
4.981756
4.890561
4.750490
4.573464
4.641414
4.751682
4.477501
4.738569
4.564524
4.514456
4.765987
##ZVALUE=330
0.263453
0.328422
0.466704
0.271797
0.321865
0.288486
0.363588
0.290871
0.295639
0.367761
0.232458
0.369549
0.308752
0.354648
0.303984
0.206828
0.215769
0.390410
0.374913
0.431538
0.370741
0.452995
0.478625
0.575781
0.562668
0.521541
0.447631
0.441670
0.505447
0.529885
0.394583
0.639558
0.609756
0.564456
0.912547
0.706911
0.809431
0.933409
0.903606
1.005530
1.227856
0.934601
1.126528
1.150966
1.294613
1.578927
2.271533
7.584691
39.584637
95.962882
242.306590
416.893959
742.879510
988.586545
1015.830636
1015.830636
1015.830636
1015.830636
879.083872
637.236834
349.932909
194.473863
75.766444
33.849478
11.278987
7.553697
6.987453
7.672906
10.823607
15.611649
26.283860
36.691427
53.013563
66.164732
80.528855
86.496472
88.675618
82.286000
68.563819
56.334734
41.146874
30.223727
19.829869
13.733506
8.990765
7.170439
5.682707
5.224943
4.833937
4.632473
4.923940
4.676580
4.692674
4.572868
4.642606
4.599690
##ZVALUE=335
0.046492
0.084639
0.210404
-0.016689
0.231862
0.310540
0.057817
0.051856
0.231862
0.143647
0.158548
0.206828
0.043511
0.024438
0.126958
0.028610
0.199676
0.234842
0.129938
0.214577
0.182986
0.305772
0.146627
0.146627
0.411868
0.205636
0.378489
0.455976
0.263453
0.401735
0.298619
0.460744
0.412464
0.449419
0.386834
0.537634
0.485778
0.451803
0.549555
0.647902
0.540614
0.797510
0.764728
0.913739
1.132488
1.157522
1.135468
1.365542
1.424551
4.236698
16.320944
66.843629
145.625472
337.528586
555.480719
898.399949
1015.701890
1015.701890
1015.701890
1015.701890
1000.704765
692.345500
469.258428
242.236853
126.783848
42.609572
16.823411
7.433891
6.445646
6.655455
7.661581
10.003448
14.692545
24.192929
34.262538
50.270557
62.011480
74.717999
81.269741
82.965493
77.306628
64.546466
54.657459
40.662885
31.246543
20.480752
14.107823
9.008646
6.834865
5.255938
4.854798
4.703999
4.681945
4.269481
4.300475
4.241467
##ZVALUE=340
0.184774
0.297427
0.324845
0.216961
0.209808
0.317693
0.369549
0.339746
0.360608
0.313520
0.232458
0.297427
0.285506
0.154972
0.160933
0.420809
0.332594
0.411868
0.310540
0.288486
0.141859
0.294447
0.417829
0.323653
0.411868
0.375509
0.352859
0.472665
0.410676
0.564456
0.525713
0.467896
0.361800
0.590682
0.702739
0.465512
0.637770
0.531673
0.589490
0.627637
0.742674
0.798702
0.941753
0.842810
0.858903
0.783801
1.089573
0.997782
1.035929
1.151562
1.530647
2.605915
8.043647
41.832924
105.534792
270.894766
463.654995
768.634677
999.685526
1015.829444
1015.829444
1015.829444
1015.829444
802.879930
568.982959
308.507681
165.992975
61.002970
24.256706
9.132624
6.872416
6.420612
6.442666
7.442832
9.395480
15.259981
21.809936
33.862591
45.058727
60.512424
70.292950
76.055527
76.777935
71.221590
64.050555
51.535964
40.375590
28.270483
20.404458
13.318658
9.339452
6.332994
5.344748
4.853606
4.764795
4.429817
##ZVALUE=345
0.354648
0.242591
0.247955
0.101924
0.353456
0.338554
0.210404
0.199676
0.124574
0.319481
0.199676
0.137687
0.459552
0.306964
0.305772
0.341535
0.184774
0.226498
0.247955
0.165701
0.359416
0.298619
0.266433
0.282526
0.177622
0.364780
0.245571
0.353456
0.513792
0.353456
0.337958
0.424981
0.308752
0.494719
0.320673
0.464916
0.491738
0.522733
0.682473
0.597835
0.597835
0.572801
0.714660
0.610948
0.763535
0.785589
0.825524
0.760555
0.915527
0.948906
1.016855
1.247525
1.353621
1.599789
4.425645
17.672777
75.996518
158.569813
344.215631
546.187758
865.172744
1015.829444
1015.829444
1015.829444
1015.829444
957.002640
652.129650
426.768661
196.171999
95.984936
30.405521
12.938976
7.146597
6.631613
6.033778
5.779862
6.853938
8.540750
13.524890
19.489527
30.822754
41.025877
53.126812
63.009858
69.613457
71.163774
67.338943
61.354637
49.915910
40.245652
28.834939
20.657778
13.373494
9.575486
6.777644
5.418658
##ZVALUE=350
0.308752
0.193715
0.320673
0.272989
0.307560
0.243783
0.194907
0.198483
0.250936
0.121593
0.196695
0.199676
0.303984
0.171661
0.114441
0.397563
0.287890
0.299811
0.290871
0.389814
0.329614
0.302792
0.422597
0.427961
0.289679
0.300407
0.359416
0.219941
0.449419
0.433922
0.409484
0.389814
0.348687
0.474453
0.507832
0.403523
0.524521
0.435710
0.504851
0.597835
0.595450
0.525713
0.572801
0.691414
0.558496
0.567436
0.679493
0.551939
0.732541
0.877976
0.846982
0.809431
0.876784
1.176596
1.263618
1.367927
2.648830
8.807778
41.460991
98.704696
251.941681
429.458022
733.992457
974.533558
1015.829444
1015.829444
1015.829444
1015.829444
750.792027
502.429605
249.437690
135.655999
51.218867
20.140409
7.830858
6.535649
5.949736
5.361438
5.605817
5.873442
8.383989
11.386871
18.083453
24.464726
36.322474
45.272708
56.416988
62.194467
65.044761
63.432455
56.958795
48.867464
37.466884
28.323531
19.014478
13.649464
##ZVALUE=355
0.302792
0.267625
0.285506
0.277758
0.411868
0.148416
0.246763
0.228882
0.273585
0.314713
0.239611
0.264645
0.243783
0.229478
0.132918
0.346899
0.337958
0.310540
0.276566
0.314713
0.364780
0.138879
0.195503
0.350475
0.284910
0.434518
0.344515
0.441670
0.322461
0.404716
0.489950
0.422597
0.323653
0.523925
0.491738
0.298619
0.373721
0.356436
0.518560
0.383854
0.376701
0.555515
0.569820
0.545979
0.786781
0.493526
0.372529
0.691414
0.704527
0.710487
0.688434
0.733733
1.001954
0.919700
1.006722
1.011491
1.193881
1.270771
1.620650
5.431771
19.939542
79.686642
166.138411
354.518890
566.957593
888.943672
1015.829444
1015.829444
1015.829444
1015.829444
895.398855
588.073730
371.880531
163.601637
77.924728
22.610426
9.094477
6.109476
5.487800
5.147457
5.016923
5.133748
5.583763
7.220507
9.751916
15.447736
22.161603
32.448769
39.979815
49.708486
56.077838
59.216619
58.939457
52.465796
45.369864
35.534501
##ZVALUE=360
0.311732
0.273585
0.438690
0.368953
0.234842
0.064969
0.133514
0.350475
0.025630
0.360608
0.266433
0.148416
0.309944
0.248551
0.270605
0.414848
0.311732
0.337958
0.262856
0.482798
0.359416
0.256896
0.364780
0.340939
0.404716
0.359416
0.468493
0.375509
0.282526
0.311732
0.512600
0.451803
0.477433
0.619888
0.373721
0.453591
0.460744
0.523925
0.488758
0.428557
0.549555
0.457764
0.580549
0.542998
0.686646
0.561476
0.562668
0.645518
0.624657
0.600815
0.748634
0.772476
0.904799
0.852942
0.770688
0.961423
1.054406
1.231432
1.111627
1.342893
1.526475
2.278686
9.809732
32.903552
113.332868
221.922994
451.716781
680.821538
990.623832
1015.829444
1015.829444
1015.829444
966.450572
738.613605
436.599851
262.986422
109.616518
47.144890
13.256669
6.662607
5.415678
5.398989
4.922748
4.885793
4.543662
4.973412
6.031990
8.025765
12.647510
17.530918
26.258826
33.656955
43.290854
49.410462
53.270459
53.970814
##ZVALUE=365
0.203848
0.298619
0.228882
0.336766
0.287890
0.268817
0.264645
0.245571
0.107884
0.313520
0.162721
0.232458
0.256896
0.364780
0.394583
0.145435
0.258684
0.226498
0.280738
0.390410
0.351667
0.278950
0.450611
0.266433
0.434518
0.241995
0.390410
0.412464
0.349879
0.408888
0.311732
0.393987
0.385642
0.402927
0.369549
0.277758
0.526905
0.526905
0.339746
0.618696
0.575781
0.370741
0.498891
0.614524
0.626445
0.546575
0.575781
0.693798
0.628829
0.621676
0.850558
0.676513
0.788569
0.762939
0.780821
0.756979
0.846982
0.980496
1.007915
1.081824
1.200438
1.370907
1.468658
1.854897
3.748536
20.684600
61.558485
178.094506
329.148769
591.806769
829.181671
1015.829444
1015.829444
1015.829444
1015.829444
791.140795
563.504696
309.692621
168.176889
60.753822
24.113655
7.555485
5.481839
5.046725
4.676580
4.388690
4.166961
4.146695
4.441738
5.032420
6.413460
10.562539
14.673471
21.780729
28.467774
37.432909
##ZVALUE=370
0.146627
0.287890
0.239611
0.317693
0.218749
0.276566
0.331998
0.323653
0.254512
0.294447
0.298619
0.237823
0.364780
0.302792
0.196695
0.259876
0.284910
0.267625
0.256896
0.221729
0.268817
0.353456
0.330806
0.257492
0.361800
0.429749
0.289679
0.403523
0.268817
0.360608
0.501871
0.393987
0.427961
0.352859
0.312924
0.532866
0.453591
0.311732
0.413656
0.549555
0.472665
0.411868
0.534654
0.548959
0.475645
0.598431
0.435710
0.563860
0.607967
0.370741
0.636578
0.646710
0.745654
0.589490
0.675917
0.642538
0.656843
0.868440
0.637770
0.973940
0.932813
1.106858
1.217723
1.332760
1.291633
1.601577
2.215505
11.245608
39.179921
130.137801
251.654983
487.517715
720.997453
1008.939743
1015.829444
1015.829444
1015.829444
927.422643
686.771870
384.858847
215.755701
83.665848
36.643744
11.740923
5.869865
4.578829
4.480481
4.103780
4.197955
3.603697
3.687739
3.791451
4.359484
6.070733
8.423924
13.463497
##ZVALUE=375
0.198483
0.400543
0.153780
0.258684
0.283718
0.195503
0.204444
0.298619
0.352859
0.294447
0.160933
0.157952
0.217557
0.221729
0.232458
0.249743
0.291467
0.272989
0.269413
0.153780
0.167489
0.128746
0.163913
0.243783
0.338554
0.246763
0.316501
0.354648
0.286698
0.277758
0.414848
0.302792
0.379682
0.356436
0.360608
0.365973
0.378489
0.489950
0.355840
0.397563
0.508428
0.501871
0.346899
0.329614
0.505447
0.433922
0.436902
0.352859
0.546575
0.502467
0.393987
0.491738
0.564456
0.394583
0.556707
0.522733
0.405908
0.607967
0.512600
0.668764
0.699759
0.804663
0.839829
0.924468
1.029968
1.230836
1.203418
1.596808
1.647472
5.481839
20.795465
77.603459
168.759823
387.904644
611.488819
941.259861
1015.829444
1015.829444
1015.829444
1015.829444
824.802518
505.727530
312.690735
143.130422
69.140792
20.848513
8.318424
4.539490
4.273653
3.791451
3.904700
3.643632
3.443956
3.497601
3.366470
3.919601
##ZVALUE=380
0.196695
0.130534
0.084639
0.346899
0.296831
0.240803
0.057817
0.169873
0.341535
0.270605
0.202656
0.328422
0.135899
0.163913
0.041723
0.336766
0.271797
0.248551
0.249743
0.208616
0.352859
0.133514
0.321865
0.224710
0.190735
0.179410
0.279546
0.327826
0.341535
0.314713
0.359416
0.237823
0.322461
0.190735
0.380874
0.262856
0.346899
0.415444
0.341535
0.533462
0.217557
0.417829
0.374913
0.207424
0.363588
0.401735
0.449419
0.375509
0.470877
0.456572
0.428557
0.501871
0.410676
0.502467
0.506639
0.564456
0.600815
0.509620
0.537634
0.577569
0.705719
0.578761
0.738502
0.740886
0.833869
0.715852
0.849962
1.057982
1.077652
1.464486
1.737475
3.003478
10.845661
54.557920
129.366517
313.039422
515.339971
823.725462
1015.829444
1015.829444
1015.829444
1015.829444
939.190984
656.692982
437.844992
213.222504
108.321905
35.869479
13.387799
5.347729
4.343987
3.773570
3.695488
3.385544
3.417730
3.252625
##ZVALUE=385
0.203848
0.182986
0.096560
0.046492
0.149608
0.147820
0.193715
0.160933
0.199676
0.148416
0.181794
0.177622
0.214577
0.066757
0.244975
0.175834
0.190735
0.198483
0.177622
0.135899
0.240803
0.420809
0.406504
0.357628
0.441670
0.189543
0.139475
0.222921
0.283718
0.274777
0.320673
0.415444
0.412464
0.382662
0.339746
0.259876
0.387430
0.351667
0.250936
0.388622
0.422597
0.345707
0.393987
0.458956
0.411868
0.450611
0.343919
0.422597
0.283718
0.328422
0.329614
0.437498
0.377893
0.448823
0.329614
0.526905
0.472665
0.465512
0.422597
0.452995
0.520945
0.617504
0.544786
0.679493
0.768900
0.742674
0.914931
0.923872
1.096725
1.235604
1.207590
1.558661
1.720786
1.962781
5.397797
30.776858
82.048774
213.423967
384.528041
700.102448
948.729515
1015.833616
1015.833616
1015.833616
1015.833616
796.721578
567.457676
306.239724
171.149969
68.436861
26.442409
6.655455
4.069805
3.881454
3.305674
3.338456
##ZVALUE=390
0.266433
0.162721
0.323653
0.175834
0.216961
0.221729
0.230670
0.244975
0.209808
0.220537
0.180602
0.196695
0.298619
0.194907
0.111461
0.195503
0.124574
0.082850
0.075698
0.217557
0.109673
0.198483
0.242591
0.094771
0.130534
0.235438
0.261664
0.344515
0.188947
0.291467
0.422597
0.358820
0.429749
0.262856
0.355840
0.348687
0.347495
0.414848
0.577569
0.466704
0.491738
0.491738
0.438690
0.409484
0.339746
0.354648
0.592470
0.511408
0.417829
0.475645
0.305772
0.633597
0.453591
0.460744
0.515580
0.359416
0.331998
0.526905
0.530481
0.393987
0.657439
0.641942
0.637770
0.576973
0.591874
0.643730
0.728965
0.757575
1.051426
0.885725
1.182556
1.165867
1.397729
1.412630
1.540780
1.623631
2.958775
12.823939
63.085556
146.580935
348.168612
553.340912
852.296948
1015.830636
1015.830636
1015.830636
1015.830636
984.218717
670.359731
451.099873
231.571794
116.930604
38.827658
13.775826
4.596710
3.698468
##ZVALUE=395
0.197887
0.091791
0.237823
0.287890
0.287890
0.186563
0.228882
0.161529
0.118613
0.106692
0.328422
0.089407
0.335574
0.295639
0.143647
0.132918
0.226498
0.311732
0.182986
0.008941
0.250936
0.164509
0.160933
0.280738
0.245571
0.229478
0.211596
0.251532
0.400543
0.297427
0.335574
0.538826
0.427961
0.417829
0.395775
0.455976
0.316501
0.450611
0.452995
0.544786
0.468493
0.499487
0.343919
0.520945
0.494719
0.414848
0.441670
0.501871
0.566840
0.299811
0.524521
0.360608
0.257492
0.420809
0.542998
0.410676
0.432730
0.308752
0.407696
0.493526
0.486970
0.541806
0.645518
0.569820
0.515580
0.706911
0.735521
0.737906
0.984669
0.935793
1.008511
1.218915
0.895858
1.040697
1.097918
1.279712
1.417994
1.476407
1.928806
6.849766
40.050745
100.612640
235.655904
402.891040
698.267817
931.610465
1015.829444
1015.829444
1015.829444
1015.829444
810.925961
573.685765
301.597714
160.301924
57.641864
22.930503
##ZVALUE=400
0.127554
0.142455
0.151992
0.192523
0.041723
0.114441
0.186563
0.070930
0.108480
0.158548
0.125766
0.077486
0.214577
0.164509
0.124574
0.132918
0.149608
0.040531
0.195503
0.099540
0.073910
0.157952
0.094771
0.078678
0.273585
0.255704
0.193715
0.185966
0.282526
0.259876
0.311732
0.357628
0.481606
0.469685
0.363588
0.468493
0.301600
0.419617
0.456572
0.459552
0.599623
0.418425
0.553727
0.351667
0.341535
0.407696
0.435710
0.364780
0.191927
0.380874
0.290871
0.369549
0.437498
0.294447
0.435710
0.528693
0.536442
0.360608
0.500679
0.432730
0.429749
0.416636
0.422597
0.396967
0.494719
0.520945
0.469685
0.739694
0.692606
1.015663
0.816584
0.960827
1.060963
0.877976
0.912547
1.050830
0.884533
1.060963
1.044869
1.362562
1.582503
4.695654
17.265677
65.135956
144.581795
331.319571
539.227724
852.239728
1015.763879
1015.763879
1015.763879
1015.763879
932.729840
616.870522
403.563976
201.137662
##END
