##TITLE=FSH701
##FORMAT=SPECTACLE-ASCII V-1.2
##DATA TYPE=ULTRAVIOLET SPECTRUM
##SECOND TYPE=ULTRAVIOLET SPECTRUM
##DATE=12/26/17
##TIME=17:19:27
##SPECTROMETER/DATA SYSTEM=SPECTACLE
##XUNITS=NM EM
##YUNITS=ENERGY
##YFACTOR=1
##FIRSTX=220
##LASTX=410
##NPOINTS=96
##3DDATA=Equidistant
##ZUNITS=NM EX
##FIRSTZ=210
##LASTZ=400
##ZPOINTS=39
##XYDATA=(Y..Y)
##ZVALUE=210
1.430511
1.425743
1.902580
1.506805
2.244711
1.716614
1.863837
2.226830
2.849698
2.843738
2.763867
3.701448
2.910495
2.838969
3.581643
4.003644
4.101992
5.047917
5.457997
5.451441
5.057454
5.714893
6.600618
6.011724
7.165670
6.605983
7.354617
8.528829
7.536411
8.680820
9.573698
8.519888
8.806586
8.808970
9.249449
9.988546
9.381771
9.510517
10.434985
10.184646
10.424852
10.286570
9.964705
12.996793
11.701584
13.042688
12.909770
12.912750
13.139844
13.224483
13.444424
14.121532
13.384819
14.709830
14.882684
13.422966
15.052557
15.626550
13.436675
13.434887
15.653968
15.357733
16.154647
14.553666
15.862584
16.914606
16.884804
19.518733
22.039413
27.599931
31.480789
37.294626
46.874881
53.532720
59.186816
67.348480
70.313811
73.909760
72.856545
72.606802
64.750910
58.694482
47.465563
40.361881
33.342838
27.435422
20.965934
20.423532
17.013550
15.362501
15.620589
15.418530
14.787912
16.935468
15.310645
15.811920
##ZVALUE=215
4.319549
5.071759
4.022717
3.775954
2.845526
3.065467
3.169775
3.211498
3.150702
4.292727
4.680753
4.028678
4.427433
4.267693
4.075766
4.401803
5.043745
5.207658
6.244779
5.393624
5.394816
7.975698
6.735921
7.259846
8.241534
9.302497
8.963943
8.419752
9.216666
9.647608
9.505749
11.490583
10.863543
12.101531
11.808872
11.793971
11.477470
13.199449
11.850595
12.276769
11.957884
13.137460
12.645721
12.442470
11.909604
13.053417
12.302995
14.317632
14.539957
14.810562
14.572740
15.009642
14.946461
15.602708
15.357733
16.795993
14.528632
14.787912
14.923811
17.253757
17.741919
15.673637
15.927553
17.479658
17.647743
18.839836
17.983913
18.050671
21.599531
25.019646
29.471517
33.081770
41.499734
45.267940
49.246550
57.893991
57.522655
60.374737
57.167411
53.942800
52.273870
45.734644
41.795969
34.562945
29.672980
24.488568
21.781921
19.882917
17.602444
16.502738
15.082955
16.770959
15.432835
15.560985
16.387701
17.020702
##ZVALUE=220
18.348694
20.797849
20.064712
22.313595
20.705462
18.468499
15.200973
10.330677
9.852648
7.717609
8.317828
9.014606
7.931590
8.030534
9.797812
7.962584
7.138848
6.005764
6.688833
5.260706
6.967783
7.935762
8.014441
8.174777
8.506775
9.490848
8.712411
10.636449
11.801720
11.753440
12.578964
13.219714
13.235807
12.357831
13.395548
12.969971
13.496876
12.968779
14.223456
14.055967
15.466809
16.228557
13.665557
15.001893
15.880466
14.572740
17.670989
17.834902
17.080903
16.795993
16.508698
17.039776
18.062592
19.153953
17.458797
17.856956
18.090606
17.853975
19.220710
19.792914
18.534660
17.745495
19.741654
19.260645
20.095706
20.390749
20.793676
24.424791
25.967956
30.319691
34.274459
40.338635
45.917630
54.271817
58.113933
63.183904
68.198442
67.663789
69.443583
67.571998
64.586997
55.407882
50.772429
44.069886
36.246777
31.559467
24.990439
22.489429
22.714734
19.462705
19.270778
20.571947
18.830895
20.484924
19.614697
18.997788
##ZVALUE=225
38.726926
41.172504
58.227777
81.767440
89.722872
98.243952
94.724894
79.803467
60.762763
43.849945
28.776526
19.735694
18.733740
19.939542
20.522475
19.677877
18.182993
16.497970
12.504458
9.651780
9.361506
7.915497
8.487701
9.175539
9.988546
11.065602
11.024475
12.545586
12.883544
13.975501
14.881492
15.366673
15.333891
16.593933
16.448498
18.937588
14.752746
17.451644
17.740726
17.644763
19.852519
17.591715
19.097924
17.957687
18.693805
17.398596
18.269420
19.347668
18.578768
18.699765
19.290447
18.946528
19.973516
20.025969
20.440817
21.611452
21.358728
20.528436
21.341443
21.095872
21.891594
23.178458
23.267865
22.206903
23.165941
23.823977
26.208758
26.445985
28.699636
34.289956
40.473938
42.784810
45.857430
51.800609
55.638552
58.959723
60.295463
61.295629
60.934424
53.813457
53.626895
48.778653
44.559836
38.128495
35.631657
30.954480
29.069781
26.865602
27.574897
26.417971
26.376843
24.515986
26.465654
25.153756
24.058819
25.213957
##ZVALUE=230
45.226812
48.979521
83.130002
146.795511
200.193524
264.658928
293.031931
305.073857
276.185870
240.187645
175.252557
124.423504
74.619651
52.937865
42.153001
43.162704
45.656562
43.375492
37.485957
34.913421
29.375553
20.237565
14.584661
12.279749
10.290742
10.441542
11.032820
9.675622
10.880828
12.932420
13.972521
14.032722
14.502406
16.248822
16.557574
18.395782
17.649531
15.769601
17.798543
16.933680
17.698407
16.949773
18.571615
16.757846
17.971992
19.011497
17.682910
18.082857
19.173622
18.156767
19.434690
19.974709
19.284487
21.124482
20.398498
22.491813
23.918748
23.811460
25.055408
22.975802
23.740530
26.839972
24.970770
27.201772
27.277470
28.484464
29.300451
32.975674
36.379695
38.644671
41.210651
46.172738
48.352480
54.449439
55.840611
62.302947
57.817698
60.828924
60.520768
58.263540
61.019659
54.634809
52.991509
44.603944
45.238733
42.295456
44.209957
42.979717
40.979981
38.558841
38.106441
39.689541
37.496686
35.919547
35.518408
36.955476
##ZVALUE=235
16.172528
20.196438
41.948557
104.999542
180.336833
315.480828
420.818925
554.392934
626.008511
623.066425
572.398901
437.178612
321.672559
192.798972
134.459734
91.391802
66.048503
65.883994
75.213909
76.256990
71.758628
63.656569
49.311519
38.925409
25.568604
16.946793
14.413595
11.778474
10.802746
11.783838
12.582541
12.222528
13.746619
14.632940
14.201999
13.956428
14.375448
15.613437
15.993714
14.295578
15.601516
17.611980
17.186999
16.960502
16.337633
17.738938
18.387437
18.503666
18.728971
18.643737
18.500686
21.606684
20.536780
21.237731
21.748543
24.206638
21.839738
24.667978
26.260614
27.751923
29.477477
30.416846
31.106472
32.897592
34.036636
38.103461
36.324859
40.448904
44.355989
47.510862
50.111413
55.320859
57.215691
59.943795
67.952871
66.569448
69.772601
67.816973
69.862604
71.257949
69.761872
67.656636
67.634583
66.062808
65.427423
58.633685
59.653521
60.458779
62.973499
60.088634
58.652759
57.368875
54.958463
58.245659
59.000850
57.982802
##ZVALUE=240
2.748966
2.682805
7.805824
32.842755
79.429746
179.219842
305.219889
517.290831
695.035458
838.778019
947.490931
948.498845
816.591978
658.766031
450.081825
297.747850
160.150528
112.873912
93.965530
95.919967
101.263523
111.739635
104.543567
93.647838
80.663562
58.101416
46.976805
30.942559
22.863746
15.028715
12.833476
11.321902
12.413859
12.553930
11.509657
11.591911
11.738539
13.332963
13.144612
14.678836
14.797449
15.675426
15.799999
16.019940
17.240644
18.122792
18.928647
18.162727
19.827485
21.069646
21.773577
20.899773
22.593737
22.615790
22.753477
25.758743
25.968552
28.101802
28.820634
30.750632
33.750534
33.332705
35.529733
37.239790
41.604638
43.906569
46.794415
46.773553
55.752993
57.329535
63.712597
65.767765
72.686672
75.897574
82.972646
88.670850
91.875792
93.133450
93.340874
93.585849
94.304681
91.167688
89.919567
90.242624
85.017681
86.173415
84.433556
84.160566
84.207654
81.244707
80.985427
80.498457
77.628493
79.370737
79.580545
77.562928
##ZVALUE=245
1.240969
1.284480
1.159906
1.825690
5.694628
20.789504
81.007481
176.558495
383.047462
589.597821
869.128704
1015.525460
1015.525460
1015.525460
1008.784771
793.552995
601.599813
380.575657
250.419974
147.309899
102.837682
96.001625
106.579661
116.789937
125.705600
120.744705
110.235810
93.196630
72.111487
53.879619
40.189624
26.725531
17.679930
13.474822
12.518764
11.386871
13.101697
12.548566
14.848709
13.523698
14.876723
15.002489
16.344786
17.877817
17.869473
16.763806
18.289685
19.451976
18.553734
19.987822
19.929409
20.786524
22.605658
23.190975
23.609996
25.122762
25.809407
26.270747
26.802421
28.585792
30.646920
31.257868
33.706427
36.397576
39.513707
43.497682
43.324828
46.849847
49.332976
53.302646
59.539676
65.598488
67.011714
76.190829
78.281760
83.596706
83.462000
85.580945
87.201595
88.582635
88.870525
88.883638
88.682771
88.323951
90.408921
86.197853
85.330606
82.433820
85.005760
86.355805
86.814761
84.979534
84.470510
79.398751
80.167651
84.402561
##ZVALUE=250
1.505613
1.134872
1.528859
1.539588
1.729727
1.860857
3.075600
11.525750
61.082840
138.767958
312.332511
491.865873
704.558492
950.206518
1015.829444
1015.829444
1015.829444
992.508531
825.547576
556.683540
376.797915
234.709978
128.280520
96.614957
103.468895
117.422938
130.483508
138.715506
130.879879
117.480755
102.973580
78.539848
60.871840
38.198829
26.092529
18.100739
15.848875
13.675690
12.686849
12.771487
14.706850
15.144944
15.076995
16.024709
16.568899
18.078685
17.627478
17.259717
17.923713
18.304586
18.939972
20.124912
22.423863
20.932555
22.037625
22.691488
22.676587
23.249984
25.355816
26.080608
27.497411
28.707981
30.299425
31.668544
31.561852
35.755634
38.279891
41.347742
42.031407
46.523809
49.376488
51.108599
53.511858
59.597492
63.247681
68.742633
69.225430
69.307685
72.242618
74.305534
74.438453
75.988770
75.849891
76.637864
75.823665
75.945854
77.160001
79.077482
75.891614
74.461699
75.150728
76.306462
77.002645
76.084733
75.012445
75.144768
##ZVALUE=255
1.099706
0.950694
1.117587
1.235604
1.330972
1.338720
1.634955
1.582503
2.033710
6.326437
20.976663
68.873763
139.655471
275.181532
406.972766
614.437461
761.267543
898.482800
931.449533
885.722637
770.621896
564.709902
386.987925
247.982740
128.704906
92.095733
87.602735
100.048780
123.324990
136.478543
144.729614
138.006806
126.539469
106.386542
81.564784
62.089562
40.492415
29.675961
19.679666
16.446710
15.579462
15.336871
16.358495
15.467405
17.253757
18.190742
18.216968
18.025637
17.194748
18.720627
19.396544
18.728971
18.424988
20.306706
21.480918
20.635724
22.296906
22.990704
24.476647
25.686622
25.160909
25.939941
25.781989
27.440786
30.596852
32.346845
33.758879
36.357641
38.568974
40.083528
42.432547
47.000647
48.079491
51.632524
53.059459
54.926872
56.884885
60.490966
62.366724
63.520670
62.734485
63.541532
64.096451
65.509677
66.642761
66.301823
67.142844
68.306923
68.734884
69.086552
68.859458
67.166686
65.233707
69.658756
68.403482
67.216754
##ZVALUE=260
0.935793
0.904799
1.139641
0.953674
1.115799
1.275539
1.302958
1.219511
1.295805
1.522899
1.619458
2.578497
8.214712
35.054684
76.754689
183.299780
311.963558
540.691018
753.601789
1015.829444
1015.829444
1015.829444
1015.829444
1009.785533
711.535811
484.832525
278.079510
163.567662
88.879466
86.553693
103.487968
126.596689
147.580504
154.682994
146.229863
136.924982
112.191439
91.179609
65.293908
48.865676
33.858418
25.372505
21.055937
19.112825
18.015504
18.715858
18.726587
18.117428
18.793941
19.775629
19.933581
20.137429
21.170974
20.772815
21.773577
21.029711
22.784472
23.354888
23.758411
23.004413
26.185513
25.283694
26.513934
27.466416
28.372407
29.693842
31.506419
32.296777
36.865473
38.019419
39.596558
43.066740
45.478940
46.875477
50.060749
52.521825
54.057837
55.442452
56.975484
58.892965
58.277845
60.149431
62.169433
61.376691
61.092973
62.869787
61.219931
62.379837
61.425567
64.528584
63.192844
61.690807
62.421560
63.020587
63.489676
65.366626
##ZVALUE=265
0.937581
1.034737
1.100898
0.913739
1.085997
0.861883
1.020432
1.072884
0.975728
1.299977
1.366735
1.291633
1.629591
1.780987
4.943609
17.459989
63.748956
131.306648
242.402554
491.721630
711.598992
987.570882
1015.829444
1015.829444
1010.581851
803.873539
622.509718
379.923582
248.418450
132.406950
88.417530
73.815584
86.842775
116.524696
136.014819
152.728558
159.978867
153.614879
139.888525
113.841891
92.029572
64.255595
50.812960
34.419894
26.798844
23.110509
20.037889
19.921660
20.552874
20.244718
20.244718
20.676851
20.618439
21.200776
21.718740
22.757649
21.471977
21.016598
23.426414
24.027824
24.006963
24.915934
25.262833
26.349425
27.308464
29.388666
30.663610
31.539798
33.488870
35.358667
37.345886
38.711429
42.126775
43.535829
45.834780
46.693683
48.569441
49.403906
50.039887
51.126480
53.671598
54.668784
54.589510
57.426691
56.281686
57.369471
57.155490
58.268905
57.713985
56.461692
58.817863
58.300495
57.489872
57.052970
57.789683
57.772994
##ZVALUE=270
0.909567
0.857711
0.766516
0.717640
0.966787
0.917912
0.852942
0.711679
0.827909
0.899434
0.968575
1.173615
1.312494
1.119971
1.443624
1.444817
2.421737
7.385612
35.918951
83.732605
212.915540
385.523438
688.301921
896.146894
1015.859842
1015.859842
1015.859842
982.773900
741.214752
548.470616
325.839520
197.433829
118.016005
70.159435
69.101453
94.312429
116.198659
140.063763
156.680942
163.134933
158.174634
141.976476
122.391582
91.115832
70.420504
48.621893
36.637783
28.790832
23.057461
21.316409
20.985603
21.058917
20.647645
21.176934
22.347569
22.914410
22.884607
22.845864
22.943616
23.869872
24.107695
24.441481
24.828911
26.663542
26.983619
29.021502
30.297637
31.636953
33.175945
35.184622
35.961866
38.766861
39.409995
41.838884
43.210983
45.389533
45.955777
47.927499
49.289465
51.748753
51.300526
52.189827
53.131580
53.367615
54.473877
53.236485
54.926872
54.917932
54.849982
55.602789
53.596497
53.698421
55.226684
54.249763
55.725574
55.650473
##ZVALUE=275
0.830889
0.702739
0.677705
0.621676
0.616908
0.494719
0.652671
0.783801
0.777841
0.797510
1.070499
1.082420
1.110435
1.271963
1.370907
1.218915
1.429915
1.472831
1.885891
4.958510
17.095804
51.213503
155.410767
302.630663
578.306913
790.697932
1005.113721
1015.829444
1015.829444
1015.829444
937.526822
679.564476
474.682450
252.642632
149.933696
76.195002
58.304667
67.901611
86.776614
117.051601
137.623549
155.969858
161.638856
157.863498
144.928694
116.187930
95.421672
69.918633
53.520799
37.009716
29.449463
24.335980
21.890998
22.090673
21.649599
22.715926
22.432804
23.933649
23.484826
24.723411
24.972558
26.459694
27.546883
28.021932
28.114915
30.246973
31.325817
31.332970
33.122897
34.879446
36.556721
38.333535
40.801764
42.847991
43.588877
44.630766
45.646429
47.950745
47.256947
47.677755
49.621463
49.458742
52.310824
51.942468
51.914454
51.755905
52.771568
52.422881
52.527785
53.153634
52.201748
52.049756
52.757859
52.597523
53.385496
52.867532
##ZVALUE=280
0.766516
0.677705
0.532866
0.477433
0.788569
0.566840
0.496507
0.693798
0.687838
0.807643
0.736713
0.852942
0.863671
0.881553
0.962615
0.998974
0.946522
1.419783
1.385808
1.373887
1.760721
2.065897
11.175871
36.614537
120.816827
225.100517
426.892638
626.853704
897.106528
1015.830636
1015.830636
1015.830636
996.633768
759.657025
559.091568
319.306850
191.572905
90.216994
56.350827
49.164891
61.593652
88.127851
110.628605
136.400461
149.242878
156.299472
151.228905
136.174560
116.614699
90.201497
71.144700
50.618649
38.543940
28.698444
25.021434
23.185611
23.633838
23.124814
23.563504
24.687648
25.368929
26.592612
26.413798
28.780699
29.949546
30.933619
31.725764
33.169985
34.147501
36.108494
36.924481
39.072633
39.957762
43.004751
44.017434
45.423508
45.477748
47.095418
48.351884
49.450994
50.303936
50.717592
50.273538
52.247643
52.637458
53.274632
52.628517
51.724911
52.886605
51.422715
52.027702
50.957799
51.485896
51.459670
51.377416
51.245689
##ZVALUE=285
0.503659
0.608563
0.427961
0.525713
0.640750
0.530481
0.564456
0.479817
0.595450
0.749826
0.557899
0.623465
0.712872
0.811815
0.803471
0.812411
0.782609
0.847578
1.070499
1.061559
1.121759
1.358986
1.337528
1.579523
5.148649
18.489957
64.876676
136.871934
294.387937
467.970967
663.833022
919.050574
1015.829444
1015.829444
1015.829444
883.992910
688.824654
429.189801
269.353986
130.110979
70.430636
38.218498
39.634705
57.957768
79.505444
107.704997
127.690434
144.400597
151.645541
147.326589
137.670636
114.058852
95.950961
69.820881
53.767562
38.778782
31.086802
26.177764
24.637580
24.264455
25.169849
25.878549
26.797652
28.205514
29.824972
31.645894
32.909513
34.050941
35.984516
37.953854
39.300919
39.410591
41.940808
43.069720
44.653416
45.608878
46.853423
47.889948
48.967600
48.932433
49.852729
51.283836
52.057505
52.159429
52.976608
53.761601
53.425431
52.980781
52.976608
51.699877
51.663518
51.658750
50.929785
50.706863
50.517917
50.319433
##ZVALUE=290
0.415444
0.269413
0.453591
0.367761
0.209808
0.412464
0.569820
0.649691
0.698566
0.430942
0.597835
0.701547
0.722408
0.624657
0.891685
0.719428
0.724792
0.748634
0.868440
0.790954
0.704527
1.032948
1.014471
1.134872
1.227856
1.383424
1.970530
7.841587
37.479997
86.049438
201.981664
343.003869
598.586798
807.930827
1015.786529
1015.786529
1015.786529
997.565985
764.904618
571.546555
333.226919
197.517872
86.704493
45.103431
28.453469
35.385489
53.699613
70.192814
99.126697
120.019913
141.277909
147.997737
147.240758
135.240555
115.041733
95.081925
69.644451
54.680705
40.120482
33.149719
27.922988
26.680827
27.253628
27.916431
29.491782
31.296611
32.331944
32.829642
35.854578
37.038922
38.881898
40.908456
41.462779
43.592453
44.596791
45.324564
47.113895
47.849417
49.865842
49.917698
51.296949
52.286983
52.011609
52.233934
53.389668
52.790642
52.942634
52.872896
53.173900
53.458810
51.268935
51.655769
51.686764
50.853491
51.038861
51.064491
##ZVALUE=295
0.441670
0.519753
0.507832
0.679493
0.567436
0.673532
0.438690
0.366569
0.446439
0.575781
0.472665
0.671744
0.551939
0.548959
0.711679
0.545979
0.896454
0.804663
0.781417
0.807643
0.889897
0.842810
1.029968
0.885725
1.077652
1.241565
1.384616
1.456738
1.745820
3.338456
12.234449
53.816438
120.939612
285.492539
459.995866
734.751821
921.588540
1015.830636
1015.830636
1015.830636
916.460752
659.324527
457.946658
246.294737
135.217905
52.352548
29.351711
24.784803
32.282472
51.651597
69.270730
95.387697
114.088655
135.107636
142.117739
139.507651
130.362511
111.137629
94.311833
70.154667
55.874586
41.654706
35.162568
30.748844
30.720830
29.541850
30.694604
32.100677
34.313798
35.263896
37.659407
39.115548
41.564703
43.702722
43.703914
45.266747
46.412945
48.495531
49.049854
49.612522
50.630569
52.979589
51.940680
52.676797
52.658916
52.966475
53.674579
52.444935
52.383542
52.921772
50.870776
51.490664
50.813556
51.694512
49.513578
50.514936
##ZVALUE=300
0.347495
0.592470
0.374913
0.211596
0.426769
0.519753
0.467896
0.639558
0.454783
0.473857
0.583529
0.404716
0.404716
0.481606
0.537634
0.543594
0.472665
0.661612
0.568628
0.601411
0.575781
0.664592
0.769496
0.836849
0.919700
1.027584
0.989437
1.025796
1.282692
1.498461
1.428723
1.545548
7.308722
27.274489
94.630718
185.299516
380.365849
580.344796
855.980515
1008.321643
1015.830636
1015.830636
992.385745
819.568634
551.601648
359.006524
184.496641
98.816752
36.980510
21.277666
21.906495
29.029846
46.471953
62.333941
87.854862
107.640624
127.577782
135.779977
136.064887
129.843950
110.966563
93.265772
72.418451
58.197975
44.265985
37.508607
33.150911
32.988787
33.411980
34.161806
37.080646
37.890673
39.918423
40.714741
43.433905
44.968724
46.411753
47.221780
48.421621
49.857497
50.824881
50.635934
52.822828
52.505732
52.906871
52.767992
53.301454
51.756501
52.765608
53.184628
52.041411
51.342845
50.636530
51.416755
50.455928
49.984455
##ZVALUE=305
0.592470
0.471473
0.395775
0.443459
0.391603
0.482798
0.395775
0.352859
0.284910
0.442863
0.411868
0.465512
0.420809
0.469685
0.485778
0.567436
0.589490
0.494719
0.573993
0.705719
0.707507
0.695586
0.697970
0.579953
0.764728
0.789762
0.805855
0.935793
0.905991
0.915527
1.211762
1.212955
1.455545
1.610518
3.241897
18.722415
52.328706
148.381591
272.639990
507.791638
716.676712
977.701545
1015.830636
1015.830636
1015.830636
883.878469
687.087774
433.976650
271.171927
125.758648
62.530637
23.838878
17.202497
20.655990
28.137565
46.253800
60.953498
87.596774
104.878545
122.620463
131.031871
132.047534
124.323964
108.997822
92.629790
72.726607
58.651567
46.423674
39.812922
37.417412
35.545826
36.871433
37.954450
39.773583
41.944981
42.898655
45.021772
46.235919
47.884583
49.499869
50.250888
51.244497
52.393675
52.390695
53.507686
53.641796
53.999424
52.461624
52.458644
52.764416
51.708817
52.577853
52.144527
51.190853
50.811768
50.618649
##ZVALUE=310
0.375509
0.478625
0.396967
0.356436
0.407696
0.307560
0.482798
0.571609
0.329614
0.436902
0.331998
0.335574
0.310540
0.574589
0.490546
0.489950
0.470877
0.462532
0.553727
0.572801
0.664592
0.379682
0.581741
0.463724
0.693798
0.718832
0.797510
0.543594
0.841618
0.796914
0.922680
0.884533
1.150966
1.312494
1.370907
1.488924
1.918674
7.682443
27.656555
92.082620
184.335709
384.531021
582.940578
859.170556
1015.828848
1015.828848
1015.828848
1009.206772
851.221681
571.026802
381.433964
191.993713
101.720691
38.375854
19.178987
15.676618
19.366741
28.610826
38.806796
59.487820
74.872971
98.674893
114.018917
124.997497
127.838850
119.968653
109.510422
91.656446
77.245831
60.192943
51.233768
44.329762
41.245818
39.779544
40.742755
42.051673
43.722987
45.249462
46.226978
48.188567
49.413443
50.936937
50.930977
52.061677
52.713752
51.962733
53.101778
53.632855
53.062439
52.020550
53.015947
52.641630
51.329732
50.569773
51.425695
50.027966
##ZVALUE=315
0.442863
0.580549
0.365973
0.275970
0.416636
0.551939
0.484586
0.558496
0.455976
0.519753
0.502467
0.457764
0.576973
0.478625
0.460744
0.452995
0.391603
0.565648
0.579953
0.790954
0.604987
0.582933
0.507832
0.734925
0.883937
0.738502
0.660419
0.872612
0.758767
0.897646
0.892878
0.959635
0.992417
1.050830
1.367927
1.299977
1.376867
1.439452
1.779795
3.106594
17.234683
50.301552
146.149993
270.257592
516.192913
729.947686
988.343954
1015.934944
1015.934944
1015.934944
927.925706
726.448894
454.978943
285.657644
134.746432
65.508485
22.488832
14.290810
15.636683
18.799901
27.922988
38.343668
57.142973
73.475838
96.431971
110.933781
122.582912
124.132633
118.783712
108.856559
91.074705
78.117847
63.814521
54.644942
47.750473
45.275688
44.047832
44.294000
46.279430
46.940446
49.154758
49.170852
50.740838
51.891804
52.495599
52.393675
52.820444
52.811503
52.634478
52.342415
52.442551
52.755475
51.610470
50.964952
50.332546
50.408840
##ZVALUE=320
0.282526
0.288486
0.305772
0.197887
0.313520
0.356436
0.325441
0.246763
0.323653
0.349879
0.370741
0.293851
0.488758
0.319481
0.432730
0.428557
0.416636
0.544786
0.358820
0.495911
0.537634
0.643730
0.424981
0.535846
0.483990
0.586510
0.579953
0.502467
0.514984
0.624657
0.661612
0.740886
0.879765
0.890493
0.830889
1.069903
0.988841
1.153946
1.246929
1.210570
1.378655
1.710653
7.854700
26.516914
95.161796
194.286704
397.363901
592.000484
872.677565
1015.829444
1015.829444
1015.829444
1011.092663
850.722790
579.310656
382.235646
179.243684
96.497536
38.460493
19.446611
14.061928
15.366673
20.228624
25.606751
39.330721
52.080750
72.795749
89.026690
109.824538
119.552612
123.886466
119.636655
108.215809
95.899701
78.840852
67.952871
56.426525
50.800443
46.866536
46.557784
46.508908
48.527718
49.549937
49.916506
50.686598
51.728487
51.245689
51.622987
51.831603
51.142573
50.997734
51.360726
51.093698
51.303506
50.652623
49.804449
##ZVALUE=325
0.326633
0.178814
0.416636
0.521541
0.328422
0.370741
0.348687
0.366569
0.398755
0.406504
0.354648
0.526905
0.340939
0.431538
0.426769
0.584722
0.359416
0.490546
0.287890
0.480413
0.465512
0.703931
0.659823
0.481606
0.468493
0.664592
0.478625
0.593662
0.525713
0.734925
0.564456
0.700951
0.718832
0.610948
1.004934
0.814795
0.542998
1.007915
0.882745
0.973940
1.083612
1.276731
1.417994
1.719594
3.227592
20.679832
54.717660
149.522424
273.410678
524.374843
734.899640
992.085934
1015.866995
1015.866995
1015.866995
891.468525
681.556463
422.195792
256.897807
115.070939
58.063865
22.468567
14.894605
15.065670
16.899705
21.801591
28.203726
40.580630
53.507686
75.756907
90.891719
107.439756
117.416978
120.596886
116.466880
104.135871
93.425512
77.914596
67.487955
57.787895
52.712560
49.470663
49.020648
49.570799
49.563646
49.480796
50.402880
50.538778
50.454736
51.687956
50.742626
49.926639
50.874949
50.701499
50.839782
49.818754
##ZVALUE=330
0.223517
0.220537
0.231862
0.312924
0.205636
0.098944
0.316501
0.399947
0.166893
0.224710
0.090599
0.204444
0.261664
0.234842
0.304580
0.356436
0.295639
0.501871
0.396967
0.343919
0.474453
0.465512
0.409484
0.434518
0.444651
0.447631
0.464916
0.520945
0.432730
0.354648
0.399947
0.583529
0.584722
0.510812
0.609756
0.536442
0.727773
0.843406
0.952482
0.886917
1.100898
1.007915
0.937581
1.059771
1.273751
1.284480
1.911521
8.536577
28.570890
101.272464
196.410418
403.908491
600.133538
877.002478
1015.802622
1015.802622
1015.802622
981.428027
789.414644
515.387654
332.867503
157.527924
81.968904
32.748580
18.794537
15.147924
16.514659
18.879771
22.977591
31.397939
41.118860
56.679845
70.893764
91.199875
104.110837
115.483999
117.777586
112.521648
105.102658
90.397000
78.781843
66.939592
59.739947
53.760409
51.193833
49.601793
49.238801
49.864650
49.299002
48.038960
47.856569
48.891902
48.723817
48.674941
47.829747
48.400760
##ZVALUE=335
0.214577
0.121593
0.297427
0.112653
0.316501
0.219941
0.320673
0.134706
0.225902
0.296831
0.252724
0.448823
0.274777
0.287890
0.228882
0.255704
0.312924
0.303984
0.285506
0.420809
0.417829
0.491738
0.385642
0.341535
0.329614
0.420809
0.402927
0.456572
0.479817
0.486970
0.418425
0.434518
0.433922
0.588894
0.544786
0.529885
0.463724
0.559688
0.534654
0.611544
0.826716
0.799894
0.916719
0.975728
0.935793
0.864863
1.144409
1.302958
1.345873
3.754497
14.989972
61.547756
131.552815
300.014615
485.014915
767.665505
958.184600
1015.830636
1015.830636
1015.830636
885.764956
616.736412
421.442986
223.479867
119.708776
44.870973
23.196936
16.832948
16.983747
18.704534
21.261573
25.758743
31.717420
43.397546
54.598451
73.419809
87.543726
102.979541
111.110806
113.654733
109.978914
99.294782
89.963675
79.565644
69.372654
59.747696
54.544806
50.081611
47.997832
47.282577
46.525002
47.390461
46.774745
46.905875
46.880841
46.909451
##ZVALUE=340
0.118613
0.240803
0.157952
0.238419
0.216961
0.328422
0.212789
0.298619
0.289679
0.315905
0.424981
0.381470
0.305772
0.277758
0.269413
0.445843
0.346899
0.295639
0.366569
0.410676
0.442863
0.341535
0.394583
0.344515
0.440478
0.364780
0.411868
0.397563
0.345707
0.423789
0.255704
0.538826
0.497699
0.455976
0.458956
0.468493
0.587702
0.634789
0.641942
0.687838
0.686646
0.438690
0.578761
0.764728
0.779629
0.815988
0.833869
1.066923
1.051426
1.158714
1.407862
2.172589
7.249713
37.320852
92.614889
233.230591
395.637751
651.198030
856.892467
1015.829444
1015.829444
1015.829444
963.276625
718.778968
512.362719
270.067453
153.275728
65.991879
31.092763
17.818809
17.502904
18.677711
20.335913
23.476481
27.049780
34.563541
43.191910
57.102442
70.389509
87.289810
98.884702
107.790828
109.208822
105.287433
99.807978
88.263750
78.323483
65.174699
59.060454
51.715970
48.143864
45.020580
44.694543
44.393539
44.053793
44.424534
##ZVALUE=345
0.191927
0.195503
0.226498
0.036955
0.325441
0.226498
0.319481
0.335574
0.133514
0.276566
0.328422
0.234842
0.238419
0.268817
0.286698
0.337958
0.129938
0.302792
0.360608
0.170469
0.398755
0.416636
0.333786
0.183582
0.400543
0.388622
0.211596
0.425577
0.422597
0.365973
0.419617
0.348687
0.591874
0.404716
0.507832
0.428557
0.403523
0.563860
0.551939
0.569820
0.505447
0.578761
0.500679
0.684857
0.736713
0.840425
0.733733
0.715852
0.970960
0.929832
1.008511
1.093745
1.371503
1.530647
3.191829
20.173788
57.589412
157.110691
285.553932
526.764989
724.452734
978.735685
1015.830636
1015.830636
1015.830636
809.065700
608.799458
367.239714
213.107467
88.621974
44.063926
20.975471
17.372966
18.113852
19.689798
21.936893
23.562908
27.896762
32.842755
43.177605
53.985715
68.838596
79.982877
91.555715
97.889900
102.230906
100.340843
93.641877
85.540414
72.915554
63.874722
54.671764
49.188733
44.938922
43.021441
42.040944
##ZVALUE=350
0.275970
0.213981
0.355840
0.223517
0.236630
0.276566
0.179410
0.169873
0.229478
0.224710
0.372529
0.312924
0.380874
0.357628
0.298619
0.389814
0.199676
0.378489
0.327826
0.354648
0.271797
0.351667
0.403523
0.482798
0.323653
0.406504
0.358820
0.427961
0.425577
0.636578
0.567436
0.337958
0.419617
0.400543
0.404716
0.421405
0.386834
0.411868
0.594854
0.368953
0.510812
0.536442
0.496507
0.547767
0.546575
0.762939
0.748634
0.740886
0.658631
0.935793
0.884533
0.812411
0.832677
1.058578
1.239777
1.330972
1.898408
10.086894
32.617450
106.395483
204.447508
415.243506
608.677864
869.475007
1013.381481
1015.864611
1015.864611
913.516879
709.629655
430.076718
267.356634
127.606988
62.720776
24.016500
17.662644
17.005801
18.072724
19.629598
20.779967
23.831725
26.853681
33.244491
39.585829
49.880743
59.738755
73.219538
83.114505
90.636611
93.402863
92.677474
88.073611
77.377558
68.493485
58.792830
51.570535
45.841932
##ZVALUE=355
0.458956
0.429749
0.218749
0.399947
0.377893
0.484586
0.421405
0.398755
0.504851
0.422597
0.534654
0.441670
0.453591
0.453591
0.529885
0.526905
0.509620
0.391603
0.408888
0.518560
0.453591
0.386834
0.604987
0.551939
0.555515
0.673532
0.623465
0.751615
0.396967
0.347495
0.714660
0.650883
0.495911
0.489950
0.565648
0.525713
0.512600
0.468493
0.698566
0.588894
0.587702
0.728965
0.546575
0.719428
0.751615
0.833869
0.752807
0.886917
0.810623
1.017451
0.912547
1.061559
1.073480
1.164675
1.151562
1.341701
1.606941
1.552701
1.732707
5.179644
18.692613
71.892738
148.682594
315.226912
497.687459
775.728822
955.051780
1016.028523
1016.028523
962.273479
790.819526
532.040596
343.464017
156.078935
78.799725
29.422641
18.038750
16.256571
17.307997
18.366575
19.111633
21.118522
22.638440
25.823712
29.512644
36.275983
43.623447
54.768920
64.032674
74.880719
81.471801
85.673928
85.601807
80.612898
73.587894
64.566731
##ZVALUE=360
0.439882
0.486970
0.604987
0.564456
0.359416
0.490546
0.510812
0.519753
0.409484
0.495911
0.623465
0.535846
0.507832
0.789762
0.589490
0.547767
0.471473
0.633597
0.595450
0.570416
0.580549
0.584722
0.610948
0.632405
0.695586
0.511408
0.701547
0.637770
0.652671
0.766516
0.644922
0.624657
0.506639
0.745654
0.719428
0.681877
0.728965
0.630617
0.755787
0.871420
0.755787
0.858903
0.680685
0.678897
0.787973
0.559688
0.755787
0.784993
0.922680
0.960827
0.918508
0.922680
0.980496
1.095533
1.198649
1.218915
1.290441
1.208782
1.533628
1.617670
1.847744
2.658963
7.956624
36.861897
90.271831
230.304003
384.161472
632.808805
840.368867
1016.101837
1016.101837
1016.101837
887.721777
621.321797
419.380665
208.083987
112.282634
45.591593
22.907853
15.136600
15.948415
16.575456
17.358661
18.168688
19.480586
20.816922
22.689700
26.077628
30.689836
38.036704
44.892430
56.779981
65.307617
72.937608
76.242685
77.643991
##ZVALUE=365
0.486970
0.246763
0.308752
0.233650
0.211596
0.269413
0.237823
0.338554
0.384450
0.382662
0.154972
0.270605
0.176430
0.240803
0.198483
0.188947
0.325441
0.150800
0.248551
0.218749
0.280738
0.345707
0.297427
0.570416
0.463724
0.444651
0.398755
0.251532
0.400543
0.277758
0.326633
0.458956
0.356436
0.490546
0.335574
0.386834
0.422597
0.440478
0.532866
0.525713
0.414848
0.408888
0.450611
0.477433
0.469685
0.369549
0.506639
0.486970
0.544786
0.644922
0.629425
0.575781
0.610948
0.685453
0.857711
0.735521
0.862479
0.974536
1.072884
0.995994
1.210570
1.324415
1.488924
1.671910
3.530979
19.350648
56.988597
159.590840
290.269852
524.052978
728.213787
956.264734
1015.829444
1015.829444
951.105952
711.584687
510.709882
286.764503
158.747435
63.140988
28.912425
14.461875
13.889670
14.553666
14.886856
15.966892
16.613603
17.491579
18.527508
20.649433
22.567511
27.542710
32.830834
40.689707
47.485828
57.692528
##ZVALUE=370
0.181794
0.155568
0.168681
0.297427
0.247955
0.337958
0.252724
0.172853
0.189543
0.162721
0.272989
0.262856
0.256896
0.298619
0.441670
0.251532
0.263453
0.425577
0.192523
0.431538
0.208616
0.156760
0.367761
0.270605
0.290871
0.284910
0.383854
0.319481
0.367761
0.410676
0.346899
0.358820
0.245571
0.342727
0.183582
0.340939
0.262856
0.371933
0.346899
0.321865
0.424981
0.395775
0.447631
0.247955
0.396967
0.437498
0.435710
0.557899
0.636578
0.338554
0.352859
0.545979
0.629425
0.647902
0.752807
0.686646
0.672936
0.726581
0.695586
0.696778
0.885725
0.834465
1.071692
1.159906
1.229644
1.502633
2.143979
10.293722
35.218596
117.258430
221.380591
430.453420
624.346733
887.254477
1014.167666
1015.830636
1004.979610
813.289881
611.674786
348.039865
198.138952
80.113411
39.315820
17.916560
13.157725
12.990832
13.352633
14.142990
14.733672
15.265942
15.820861
16.969442
18.243790
20.849705
23.953915
29.858947
##ZVALUE=375
0.189543
0.085831
0.213981
0.257492
0.371933
0.381470
0.198483
0.316501
0.347495
0.202656
0.272989
0.086427
0.099540
0.218749
-0.016689
0.238419
0.254512
0.319481
0.160933
0.143647
0.252724
0.171661
0.319481
0.357628
0.187755
0.321865
0.295639
0.203848
0.217557
0.190735
0.290871
0.384450
0.319481
0.245571
0.271797
0.353456
0.405908
0.283718
0.284910
0.403523
0.308752
0.399947
0.519753
0.516772
0.355840
0.553727
0.439882
0.387430
0.388622
0.438690
0.545979
0.633597
0.326633
0.603795
0.493526
0.481606
0.631809
0.687838
0.541806
0.636578
0.880957
0.642538
0.648499
0.803471
0.961423
0.972748
1.129508
1.470447
1.581907
5.156994
18.613935
69.939494
152.318478
339.895487
532.146692
802.379847
968.761444
1015.829444
1015.829444
908.316970
722.025037
454.000831
285.237432
132.657886
68.463683
24.848580
14.157891
11.818409
11.915565
12.582541
12.825727
13.668537
14.206767
14.559627
15.649796
16.865730
##ZVALUE=380
0.111461
0.091791
0.054836
0.171661
0.302792
0.189543
0.170469
0.105500
0.221729
0.125766
0.238419
0.129938
0.156760
0.255704
0.332594
0.392795
0.072718
0.107884
0.335574
0.233650
0.218749
0.331998
0.189543
0.237823
0.412464
0.146627
0.243783
0.273585
0.220537
0.217557
0.280738
0.251532
0.227690
0.225902
0.280738
0.228882
0.235438
0.055432
0.205636
0.356436
0.428557
0.546575
0.354648
0.376701
0.379682
0.238419
0.346899
0.328422
0.331998
0.330806
0.382662
0.338554
0.467896
0.514984
0.504851
0.462532
0.608563
0.488758
0.568628
0.470877
0.674725
0.529885
0.574589
0.718832
0.834465
0.846982
0.934601
1.031756
1.112819
1.348853
1.629591
2.747774
9.910464
48.828721
116.795897
276.201963
448.525548
707.982779
904.819965
1015.829444
1015.829444
974.473953
810.649991
575.948954
389.082432
194.551945
101.642609
37.561655
17.883778
11.073947
11.116862
11.396408
11.666417
12.338758
12.809634
13.318658
##ZVALUE=385
0.074506
0.070930
0.149608
0.019670
0.133514
0.102520
0.149608
0.061989
0.129938
0.241995
0.096560
0.244975
0.227690
0.157952
0.101924
0.203848
0.250936
0.054836
0.129938
0.193715
0.113845
0.241995
0.225902
0.179410
0.078678
0.185966
0.281930
0.242591
0.324845
0.253916
0.204444
0.253916
0.208616
0.320673
0.233650
0.348687
0.235438
0.425577
0.380874
0.306964
0.275970
0.320673
0.313520
0.302792
0.299811
0.421405
0.337958
0.258684
0.329614
0.220537
0.419617
0.472665
0.482798
0.443459
0.457764
0.500679
0.383854
0.360608
0.445843
0.524521
0.603795
0.433922
0.553727
0.537634
0.773668
0.640750
0.829697
0.755787
0.833869
1.059771
1.258850
1.356602
1.411438
1.635551
5.691648
20.817518
78.266859
169.050694
370.220542
568.301678
841.528773
993.513465
1015.830636
1015.830636
899.446011
724.597573
465.365052
296.904445
137.636662
68.766475
25.266409
12.577772
9.551644
9.779930
10.499954
10.609627
##ZVALUE=390
0.172853
0.153780
0.040531
0.126958
0.136495
0.174642
0.105500
0.095963
0.266433
0.179410
0.229478
0.160933
0.387430
0.222921
0.155568
0.228882
0.202656
0.112653
0.110865
0.032783
0.102520
0.210404
0.143647
0.198483
0.023842
0.270605
0.177622
0.253916
0.232458
0.308752
0.243783
0.384450
0.366569
0.308752
0.248551
0.186563
0.227690
0.166893
0.284910
0.274777
0.300407
0.252724
0.414848
0.354648
0.230670
0.388622
0.298619
0.377893
0.242591
0.303984
0.473857
0.216961
0.232458
0.316501
0.319481
0.449419
0.482798
0.409484
0.478625
0.463724
0.525713
0.482798
0.402927
0.548959
0.443459
0.577569
0.839829
0.876784
0.891685
0.884533
0.925660
0.930429
1.271963
1.390576
1.314878
1.457930
2.563596
14.518499
46.020746
144.780874
276.447535
524.270535
715.137720
932.417512
1015.830636
1015.830636
1007.813811
816.561580
627.091527
387.533903
225.604773
94.583631
43.719411
14.929771
9.586811
9.163618
##ZVALUE=395
0.152588
-0.041723
0.034571
0.231862
0.186563
0.343919
0.039935
0.103712
0.099540
0.115633
0.186563
0.233650
0.217557
0.219941
0.182986
0.232458
0.057817
0.289679
0.174642
0.165701
0.133514
0.162721
0.095963
0.152588
0.119805
0.328422
0.208616
0.272989
0.345707
0.144839
0.256896
0.234842
0.160933
0.099540
0.210404
0.159740
0.397563
0.339746
0.339746
0.316501
0.317693
0.191927
0.237823
0.330806
0.335574
0.342727
0.132918
0.199676
0.298619
0.319481
0.292659
0.317693
0.302792
0.403523
0.405908
0.339746
0.376701
0.157952
0.319481
0.388622
0.391603
0.516772
0.427961
0.517964
0.710487
0.519753
0.660419
0.661612
0.751615
0.943542
0.941753
1.017451
1.126528
1.083612
1.120567
1.138449
1.066923
1.162887
1.689792
8.350611
30.602813
107.710958
206.124783
392.130613
585.721731
852.168798
1008.297801
1015.830636
1015.830636
951.544642
753.137469
469.603539
294.565558
129.526854
62.657595
22.085905
##ZVALUE=400
0.133514
0.205636
0.175834
0.065565
0.253916
0.222921
0.278950
0.132918
0.196695
0.203848
0.001788
0.144839
0.174642
0.214577
0.290871
0.316501
0.183582
0.277758
0.194907
0.263453
0.218749
0.217557
0.260472
0.242591
0.163913
0.114441
0.255704
0.094771
0.258684
0.153780
0.194907
0.246763
0.239611
0.374913
0.332594
0.373721
0.300407
0.193715
0.321865
0.196695
0.183582
0.365973
0.251532
0.280738
0.193715
0.106692
0.187755
0.460744
0.215769
0.298619
0.247955
0.148416
0.317693
0.258684
0.386834
0.351667
0.376701
0.326633
0.456572
0.414848
0.484586
0.417829
0.433922
0.447631
0.536442
0.731945
0.618696
0.749826
0.865459
0.821948
0.877976
1.057982
0.933409
0.876784
0.854731
0.846982
0.927448
1.011491
1.136661
1.196861
1.572967
4.072785
15.704632
64.215660
138.791800
306.525826
487.785935
752.391815
929.999948
1015.829444
1015.829444
985.962749
827.747583
574.998856
383.801460
196.369886
##END
