##TITLE=QP00351
##FORMAT=SPECTACLE-ASCII V-1.2
##DATA TYPE=ULTRAVIOLET SPECTRUM
##SECOND TYPE=ULTRAVIOLET SPECTRUM
##DATE=12/26/17
##TIME=13:05:43
##SPECTROMETER/DATA SYSTEM=SPECTACLE
##XUNITS=NM EM
##YUNITS=ENERGY
##YFACTOR=1
##FIRSTX=220
##LASTX=410
##NPOINTS=96
##3DDATA=Equidistant
##ZUNITS=NM EX
##FIRSTZ=210
##LASTZ=400
##ZPOINTS=39
##XYDATA=(Y..Y)
##ZVALUE=210
1.942515
1.702905
2.421737
1.768470
2.213717
2.126694
2.253652
2.205968
2.296567
2.402663
2.528429
2.612472
2.112985
2.304912
2.347827
2.344847
2.787709
2.798438
2.736449
3.138781
2.851486
3.386736
3.076792
3.790855
3.778934
4.295707
3.882647
4.163980
4.298687
3.858805
3.963709
4.491806
3.597736
4.082918
4.844666
4.795790
4.649758
5.653501
5.128980
4.741549
5.242825
5.606413
5.699992
4.409552
5.854964
6.526709
5.864501
6.301999
6.531477
6.077886
7.480979
6.715655
6.617904
7.010698
7.568598
6.951690
7.101893
7.845759
7.589459
7.623434
7.429719
7.698536
7.450581
8.601546
8.150935
8.314848
9.093881
9.145737
10.597706
12.548566
14.276505
16.285777
19.044876
23.402572
25.303960
25.680661
25.462508
26.190877
24.645925
22.818446
20.488501
20.453930
17.159581
14.936924
13.209581
9.384751
9.619594
8.916855
7.846951
7.661581
7.452965
7.604957
8.023977
6.938577
8.299947
7.738471
##ZVALUE=215
6.077886
6.089807
5.136728
4.828572
4.533529
3.636479
4.742742
4.649758
5.154610
4.554987
4.526973
3.918409
3.621578
2.738833
2.929568
2.850890
2.750754
2.223849
2.841949
2.826452
3.063679
3.146529
3.879666
3.381968
4.194975
4.077554
3.652573
3.811717
4.590750
4.149675
4.249811
4.646778
4.855990
5.157590
5.325675
5.262494
5.406737
5.675554
5.521774
4.594922
4.839897
5.354881
5.811453
5.373955
5.691648
5.662441
6.066561
6.270409
6.028414
6.768703
6.386638
6.994605
6.873608
7.117987
8.552670
8.004904
6.283522
6.696582
7.791519
7.048845
7.892847
7.002950
7.103682
7.816553
8.731484
8.147955
9.117723
9.316802
9.744763
11.619925
14.856458
15.373826
17.296672
21.382570
23.264885
23.511648
23.719668
23.405552
21.962523
21.389723
19.172430
18.117428
14.256835
12.725592
12.095571
10.573864
9.602904
7.943511
8.260608
7.622838
6.951690
7.437468
6.391406
7.103682
7.293820
6.949902
##ZVALUE=220
21.930933
22.357702
22.998452
21.326542
20.895600
16.852617
14.864802
12.127757
9.984970
10.858774
10.798573
11.469722
11.283755
11.015534
9.526610
7.863641
4.903674
4.723668
3.646612
3.582835
2.884865
3.612638
4.045963
3.903508
3.690720
4.282594
4.285574
4.405975
4.292727
4.649758
4.513860
5.171895
5.398989
5.145669
4.649758
4.869699
5.674958
5.883574
6.118417
5.385876
6.490946
6.027818
6.066561
5.774498
7.124543
5.809665
6.810427
6.857514
6.412864
6.798506
7.207990
8.063912
7.640719
6.822944
8.095503
7.641912
8.034706
7.533431
7.906556
8.070469
9.141564
8.114576
7.831454
8.224845
7.950664
8.523464
9.208918
9.476542
10.141730
11.236668
14.528632
15.327930
18.041730
20.982623
20.820498
22.188425
22.802949
23.192763
22.058487
22.004843
19.851923
16.803741
15.258789
13.743639
12.549758
10.738969
10.292530
9.333491
8.303523
7.815957
7.841587
8.363724
7.974505
7.370710
7.403493
7.429719
##ZVALUE=225
36.309958
36.195517
52.434802
63.222647
69.885850
66.197515
65.682530
50.371885
39.147735
30.128956
25.653839
22.370815
23.823977
25.274754
24.521947
23.154616
20.853877
16.752481
11.743903
8.842945
7.066727
5.268455
4.379749
3.518462
4.070997
4.823804
4.396439
4.647970
4.854798
4.529953
4.678965
4.746914
4.794598
5.812645
5.472898
5.769730
6.478429
5.823970
5.602837
6.116629
5.991459
6.689429
5.298853
6.722808
6.981492
6.031990
6.758571
7.516742
7.408857
7.619858
6.965995
7.958412
7.734895
8.447766
8.218884
7.997751
8.402467
8.402467
8.768439
9.691715
8.742809
9.461641
9.861588
8.355975
9.265542
9.190440
10.068417
10.987520
11.215806
12.196898
14.912486
14.515519
18.512607
18.808842
21.007657
21.214485
21.174550
20.619631
20.694733
17.469525
17.701983
14.642477
15.178919
14.391541
13.150573
11.018515
11.551976
10.099411
9.811521
9.749532
7.981658
9.486675
9.419918
9.003878
9.240508
8.665919
##ZVALUE=230
30.896664
35.433769
62.679648
93.703866
133.683681
157.383680
178.172588
181.494951
161.505938
133.118629
93.660951
69.676638
52.965879
45.318604
42.743683
48.614740
49.865842
48.447847
43.607950
34.154654
27.302504
18.473864
12.970567
8.589625
6.169677
5.570650
5.134940
4.721880
5.762577
5.385876
5.279779
5.861521
6.305575
5.947948
7.258654
5.767941
6.127954
5.757809
6.061792
6.842613
7.266998
7.060766
7.093549
7.457733
7.812977
7.219911
8.117557
8.027554
7.818937
7.748604
8.806586
7.894635
8.323789
8.222461
9.459853
9.982586
9.282827
9.213686
9.454489
10.485649
9.755492
10.377765
9.611845
10.939837
10.356903
11.415482
12.825727
12.856722
13.753772
15.591979
17.283559
19.391775
19.773841
21.962523
22.114515
22.298694
22.459626
22.836924
22.650957
20.027757
18.557906
16.593933
16.827583
14.747977
15.619993
12.572408
11.634827
12.422800
11.321902
13.327599
12.178421
10.400414
11.931658
11.659861
11.769533
11.051893
##ZVALUE=235
12.720823
12.941957
36.377907
67.980886
127.130747
181.944966
263.954997
313.508511
356.175900
358.447433
313.502550
260.372758
199.255943
125.716925
94.620585
76.137781
70.657730
75.107813
84.203482
81.683993
77.758431
68.474412
50.887465
36.736727
23.121834
15.833974
10.987520
8.182526
6.067753
5.799532
7.257462
7.660985
6.449819
6.858706
7.236600
7.420778
6.632805
7.153749
7.763505
7.223487
7.067919
6.549954
7.392764
7.102489
7.362962
8.370876
8.484721
7.086992
8.999705
8.659959
9.748936
9.432435
10.094643
11.150837
9.635687
10.952950
10.346770
10.859966
11.951923
12.719631
11.619925
11.603832
11.907816
12.612939
12.261868
13.895631
13.985634
14.685988
14.299750
16.507506
20.058751
21.566749
23.237467
24.856925
26.490688
25.817752
26.887655
25.307536
25.806427
24.315715
23.670793
19.489527
20.126700
18.704534
17.297864
15.463829
17.194748
14.798641
16.427636
14.753938
15.526414
14.638901
15.440583
15.761852
15.110970
14.145970
##ZVALUE=240
2.293587
2.605915
6.714463
15.604496
46.083927
86.759925
174.374580
264.211893
401.794910
487.398505
553.562641
561.933517
520.583987
417.925715
327.895880
215.842724
152.532458
110.460520
95.365644
97.598433
107.606649
111.017823
110.158920
99.945664
77.056885
62.772632
45.679808
32.122731
20.881891
14.135838
9.720922
8.310676
8.214712
7.537603
8.555651
7.250905
8.572936
8.360744
7.390976
6.786585
7.081628
8.143783
8.240938
8.004904
8.426905
8.366704
8.545518
8.708835
8.317828
9.325743
10.279417
10.998845
9.880662
11.076927
11.869669
12.220740
12.075901
12.442470
12.897849
13.470650
13.367534
13.554692
12.610555
14.567971
14.592409
15.201569
15.704632
15.355945
17.495751
20.585656
21.640658
23.806691
25.203824
27.191639
28.757453
27.542710
30.754805
26.204586
26.493669
25.837421
25.470853
23.881793
22.714734
21.869540
20.805597
19.538999
17.381907
19.242764
18.850565
17.076731
17.566681
17.387867
17.468929
17.182827
16.551614
17.781854
##ZVALUE=245
1.393557
1.578927
1.729727
1.877546
3.678799
13.398528
37.029982
97.134709
175.812840
281.793475
444.511771
566.106439
682.863593
707.822442
676.520467
596.743822
452.813506
336.920619
242.941976
144.596696
109.287500
98.232627
105.712414
122.335553
127.384663
120.574832
109.161735
88.085532
74.064732
48.916936
35.780668
21.444559
14.445782
9.764433
8.028746
7.865429
7.628798
6.803870
6.596446
6.955862
7.283688
7.311702
7.035732
7.118583
6.731749
7.079840
7.314682
7.800460
8.542538
8.473992
8.907914
8.849502
9.416938
9.510517
9.653568
9.677410
9.665489
9.917617
10.754466
12.025833
11.626482
13.412833
12.647510
13.835430
12.846589
13.744831
13.333559
16.012788
16.246438
18.435717
17.900467
21.073818
22.929907
23.655891
24.746656
26.082993
27.780533
26.084781
24.336576
23.247600
21.557808
21.399856
20.807981
19.496679
18.656850
18.622875
17.530918
17.077923
17.879605
17.621517
17.907619
16.619563
16.440749
16.026497
16.831756
17.232895
##ZVALUE=250
1.153946
1.387596
1.558661
1.481771
1.328588
1.373887
2.541542
8.142591
31.744838
75.372458
177.165866
298.359990
444.445610
628.090501
752.967596
844.014883
840.776563
759.466887
647.203922
453.237891
308.485627
205.752850
119.568706
95.270872
99.745989
116.212964
127.814412
132.751465
127.907991
116.795897
99.567771
74.444413
56.447983
34.988523
21.909475
13.069510
9.048581
7.688999
6.456971
7.097721
7.588863
6.498694
6.620884
6.128550
6.094575
6.088614
6.478429
6.861687
7.539988
7.531643
7.788539
7.430911
7.789731
7.627606
8.288622
7.772446
9.289980
8.838773
8.309484
9.553432
10.118484
9.852648
9.673834
10.349751
11.369586
10.813475
11.584759
12.524724
12.150407
15.569925
15.408993
18.450618
18.204451
20.191669
20.281672
21.297932
20.395517
21.321774
21.163821
19.390583
18.669963
17.583966
17.020702
16.043782
17.979741
16.048551
16.641617
15.809536
16.071796
15.288591
14.856458
15.994906
16.337633
16.410947
16.088486
14.993548
##ZVALUE=255
1.290441
1.149774
1.436472
1.471639
1.403689
1.460910
1.456738
1.711845
1.963973
4.956722
22.437572
59.937835
121.561885
261.694789
405.460596
620.695949
771.822929
918.163657
958.727002
914.500952
798.859596
647.343993
408.442616
270.760655
144.841671
102.019906
87.216496
98.087788
121.092796
134.404898
139.897466
134.872794
123.739839
99.985003
80.143809
52.480698
36.259890
21.279454
12.872815
8.487701
6.710887
6.192923
6.138682
5.809665
6.323457
5.809665
6.075501
6.209612
6.055832
6.425977
6.651878
6.738901
7.673502
6.740689
7.075667
7.299781
6.755590
7.741451
8.137822
8.060932
8.175969
8.929968
8.855462
8.632541
9.598732
8.676648
9.966493
11.238456
11.155605
12.663603
12.719631
14.595985
15.729666
16.492605
17.610788
17.314553
17.385483
17.516613
17.224550
17.204881
16.565919
16.179681
15.373826
15.082955
14.710426
15.335679
14.839768
13.915896
15.074611
14.845729
14.778972
14.764667
15.253425
15.050769
14.621615
14.110804
##ZVALUE=260
1.233816
1.172423
1.031756
1.453757
1.399517
1.248717
1.087785
1.454949
1.684427
1.343489
1.757741
2.805591
8.576512
38.459897
87.715983
215.076804
348.449945
571.249723
747.311711
969.299674
1015.897989
1015.897989
970.176458
812.780857
554.940701
380.997658
225.058794
136.911869
84.241629
80.974698
93.977451
120.418668
136.821866
145.704746
142.748952
128.141642
108.559728
78.699589
58.725476
35.650730
23.572445
12.948513
8.816719
6.683469
6.030798
5.935431
6.435513
6.054640
5.824566
6.029606
6.227493
6.185770
6.677508
6.614923
6.767511
7.004738
6.482601
7.208586
7.268786
7.422566
7.956624
7.817745
7.885695
8.787513
8.630753
8.833408
8.574724
9.342432
10.720491
11.809468
11.648536
13.124943
13.713837
15.127659
15.948415
15.271902
15.524626
15.129447
14.856458
14.449954
14.379621
13.801455
13.644695
13.710856
13.817549
13.708472
14.018416
13.117790
13.611913
13.689995
13.209581
13.301969
13.721585
13.376474
12.684464
13.542771
##ZVALUE=265
1.037717
0.954866
1.005530
1.355410
0.789762
1.096725
1.258850
1.309514
1.333952
1.665950
1.565814
1.539588
1.941919
1.877546
4.460812
25.718808
63.961744
162.498951
288.895965
539.125800
760.903955
972.616673
1015.897989
1015.897989
1015.897989
952.867866
705.339909
501.204729
284.003615
171.360970
103.299618
73.352456
76.120496
103.812814
123.991966
145.041943
147.562623
142.666698
129.411817
102.802515
80.441833
54.599643
38.190484
21.021962
13.275743
8.008480
6.628633
5.709529
5.753636
5.909801
6.127954
5.963445
6.188750
6.668568
7.017851
7.333755
6.999969
6.677508
7.611513
7.626414
7.176995
7.433891
7.919669
7.763505
7.938743
7.776618
8.466840
9.404421
9.448528
10.536909
10.750890
12.073517
12.669563
13.002753
12.876987
13.567805
13.934970
14.280677
13.469458
13.799667
13.038516
12.434721
12.878776
12.019873
12.021661
13.013482
12.016892
11.594892
11.995435
11.879802
12.037754
12.668967
12.669563
12.233853
12.877584
12.418628
##ZVALUE=270
1.059771
0.898838
0.974536
0.748634
1.022816
1.122952
1.007915
1.115799
1.168847
1.391768
1.407862
1.611710
1.554489
1.508594
1.582503
1.940727
2.505779
11.180639
35.165548
119.535923
233.147740
399.285555
713.467002
967.262983
1015.928984
1015.928984
1015.928984
1015.928984
904.747844
689.353943
415.327549
256.283879
122.399926
73.584914
63.147545
74.878931
104.514956
124.665499
145.294666
151.154995
142.087936
130.339861
104.905963
83.149672
53.672791
37.341714
21.779537
14.679432
8.817911
6.979704
6.551743
6.449819
6.258488
6.150603
6.357431
6.580949
6.982684
6.812811
7.339716
7.299781
7.467866
8.004904
7.873774
7.839799
8.117557
8.123517
8.180737
8.397698
8.935928
9.695888
10.480881
11.033416
12.030602
12.238622
13.060570
13.419986
12.894869
12.329817
11.781454
12.126565
11.606812
11.380911
11.302829
11.203885
10.970831
10.599494
10.366440
11.271834
10.758638
11.546612
11.197925
10.651946
11.309981
11.641979
11.191964
11.567473
##ZVALUE=275
0.786781
0.819564
0.861883
0.854731
0.775456
0.759959
1.064539
0.907779
0.922680
1.055598
1.214743
1.275539
1.199841
1.342893
1.374483
1.193881
1.483560
1.474619
2.070665
4.045963
22.906661
68.029761
200.793743
369.748473
670.204759
910.835862
1015.850902
1015.850902
1015.850902
1015.850902
1015.850902
859.547853
607.214570
321.701765
181.876421
80.994964
52.773952
56.749582
74.538589
102.525949
122.351646
140.563846
148.654580
141.234994
128.700733
102.742910
81.880689
54.957867
39.641857
22.910833
15.456676
9.650588
7.794499
7.019639
6.960630
6.984472
7.094741
7.324815
7.413626
7.711649
7.926822
7.945895
8.136630
8.119941
7.761717
8.475780
8.172989
8.815527
9.012818
9.242892
10.251999
11.552572
11.314750
12.516975
12.521744
12.286901
12.796521
12.422800
11.725426
11.204481
11.131763
10.815859
10.605454
10.568500
10.281801
10.038614
10.223985
10.512471
10.635853
10.201931
10.617971
10.250807
10.383725
10.084510
10.078549
10.411739
##ZVALUE=280
0.865459
0.856519
0.732541
0.800490
0.928640
1.043677
0.756979
0.869632
0.791550
1.129508
1.086593
1.151562
1.067519
1.094937
1.260638
1.094937
1.035929
1.388788
1.655817
1.535416
1.856685
2.677441
13.458729
46.273470
149.475932
279.677510
526.180863
778.303742
1015.903950
1015.903950
1015.903950
1015.903950
1015.903950
984.874964
736.410022
426.822901
255.061984
112.916827
59.193969
41.396618
51.641464
77.203512
97.358823
122.289658
136.971474
145.576596
140.652657
124.132633
105.320811
77.540874
57.860613
36.701560
25.114417
14.960766
10.923743
8.309484
8.099675
7.445812
8.139610
7.767677
8.416772
8.505583
8.446574
8.500814
8.859634
8.361936
9.113550
8.528829
9.360909
9.948611
10.409951
10.582805
11.537671
11.499524
11.528730
12.524724
11.687875
11.424422
11.034608
11.321902
10.489821
10.201931
10.235906
10.020733
10.438561
10.409951
9.791851
10.068417
9.773970
9.830594
10.206699
10.300875
9.776950
9.590983
9.895563
9.774566
##ZVALUE=285
0.801682
0.822544
0.615716
0.827909
0.754595
0.798702
0.893474
0.839829
0.807643
0.856519
0.957847
0.947714
0.907779
1.081824
1.191497
1.329780
1.442432
1.415610
1.407862
1.375675
1.668930
1.882911
2.270937
2.295971
19.062757
30.288696
101.785660
206.694007
583.350658
692.209601
995.770693
1015.897989
1015.897989
1015.897989
1015.897989
1015.897989
981.401801
622.005463
390.536785
183.736682
91.946721
38.582683
34.040809
50.168633
68.634748
96.783638
117.249489
134.999752
139.910579
136.111975
127.533674
105.286837
84.904432
59.267879
40.874481
25.424957
17.193556
12.032986
9.603500
8.988976
8.816719
8.614659
8.459687
8.812547
8.880496
9.171963
10.275841
10.321736
10.297894
10.439754
10.639429
11.318922
11.146665
12.054443
11.829734
12.110472
11.538863
10.860562
10.822415
10.596514
10.539889
10.344982
9.820461
9.887815
9.921789
9.923577
9.594560
9.550452
9.978414
9.103417
9.619594
9.496808
9.350777
9.205937
9.749532
9.272695
##ZVALUE=290
0.806451
0.667572
0.820756
0.658631
0.800490
0.621676
0.739694
1.006722
0.723600
0.883937
0.780821
1.021624
0.923872
1.043677
0.883937
0.894666
0.942945
0.903606
1.151562
1.264811
1.413822
1.336932
1.640916
1.498461
1.738667
2.329946
2.906919
9.531975
48.108697
118.748546
238.803625
505.406857
779.471993
1015.897989
1015.897989
1015.897989
1015.897989
1015.897989
1015.897989
732.999444
483.276844
239.316821
124.551654
46.861768
27.751923
33.150911
45.930743
68.649650
87.714791
113.821626
128.594637
136.840940
136.447549
121.942759
104.547739
78.253746
60.366988
39.897561
28.359890
17.834902
13.134480
11.205673
10.291934
10.097623
9.873509
9.775758
10.177493
10.099411
10.549426
11.240840
10.982752
11.781454
11.676550
11.968613
11.885762
11.503696
10.985732
10.649562
10.850430
10.699630
10.419488
10.031462
10.296702
9.887815
10.116696
9.853840
9.716749
9.389520
9.668469
9.677410
9.130836
9.202957
9.249449
9.123683
9.362698
8.896589
##ZVALUE=295
0.602603
0.700951
0.697970
0.709891
0.668764
0.857711
0.816584
0.766516
0.931621
0.924468
0.795722
0.805855
0.680685
0.837445
0.913739
0.832677
0.930429
1.051426
1.094937
1.080632
1.254678
1.270771
1.234412
1.713634
1.681447
1.622438
1.907945
1.980662
2.385974
4.365444
24.917722
73.213577
171.479583
407.723784
655.440688
1002.845764
1015.897989
1015.897989
1015.897989
1015.897989
1015.897989
907.099843
639.711618
335.413814
187.684894
71.027875
33.579469
22.346973
28.827786
45.454502
62.404871
87.454915
105.875731
124.476552
131.773949
130.502582
119.288564
99.246502
80.972910
57.989955
42.201877
27.583838
19.655824
14.187694
11.961460
10.590553
10.470748
10.852814
10.651946
11.376739
11.168718
11.563897
11.579990
11.181831
11.697412
11.902452
11.355877
11.208653
11.093616
10.674000
10.433793
10.658503
10.600686
10.129809
9.875894
9.828806
9.836555
9.739995
9.859800
9.452701
9.330511
9.063482
9.213686
8.887649
8.688569
9.163618
##ZVALUE=300
0.633597
0.677705
0.609756
0.449419
0.597835
0.641942
0.726581
0.720620
0.746846
0.792742
0.642538
0.718832
0.986457
0.841618
0.957847
0.772476
0.915527
0.942945
0.945926
1.040697
0.948906
1.200438
0.932813
1.157522
1.278520
1.384616
1.306534
1.463890
1.695752
1.660585
2.187490
2.703667
10.593534
39.923787
135.681629
269.905925
559.051633
852.697492
1015.897989
1015.897989
1015.897989
1015.897989
1015.897989
1015.897989
779.009461
516.762733
263.254642
144.595504
52.950978
23.672581
19.895434
26.926994
42.371750
57.951808
81.670880
99.605918
118.951797
125.279427
125.083923
118.004680
99.499822
82.117915
59.383512
44.896603
27.897954
21.183491
15.097857
12.731552
11.037588
11.454821
11.828542
11.551976
11.748672
11.582971
11.847615
11.645555
11.224747
10.859966
11.138916
11.264682
10.814667
10.416508
10.376573
10.063648
10.329485
10.105968
9.610653
9.998679
9.971857
9.255409
9.370446
8.867979
8.943677
9.049773
8.911490
9.024739
##ZVALUE=305
0.454783
0.510812
0.472665
0.457764
0.308752
0.389814
0.409484
0.382662
0.458956
0.533462
0.597835
0.466704
0.666976
0.684857
0.524521
0.634789
0.672936
0.738502
0.698566
0.691414
0.810623
0.678897
0.646710
0.880957
0.825524
1.070499
1.020432
1.017451
1.166463
1.485944
1.354814
1.613498
1.681447
2.266765
4.006624
25.870800
73.851943
208.458900
387.921929
729.494691
998.754501
1015.727520
1015.727520
1015.727520
1015.727520
1015.727520
1000.415683
663.012862
428.398848
210.708976
105.073452
34.139752
18.188953
19.287467
25.878549
40.725470
56.401491
80.235004
96.223950
113.378763
119.811893
119.504929
111.920834
94.728470
78.222752
55.455565
41.626692
28.295517
20.261407
14.374852
12.558699
11.474490
11.825562
11.609793
11.428595
11.090636
11.617541
10.685921
10.339618
10.127425
10.079741
10.182858
9.909868
10.113716
9.916425
9.701848
10.017753
9.457469
9.834766
8.948445
9.149909
8.630753
8.864999
8.496642
8.486509
8.525848
##ZVALUE=310
0.355840
0.426769
0.377893
0.480413
0.449419
0.432730
0.551939
0.405908
0.442863
0.548959
0.432730
0.347495
0.454783
0.538826
0.542998
0.576973
0.556707
0.645518
0.696778
0.714660
0.668764
0.548959
0.690818
0.700951
0.758767
0.833869
0.925660
0.927448
1.045465
1.165867
1.062751
1.331568
1.475811
1.671910
1.616478
2.045631
2.397895
11.023879
39.826632
135.745406
271.800756
574.371815
866.174698
1015.703678
1015.703678
1015.703678
1015.703678
1015.703678
1015.703678
917.515755
631.749034
329.086781
176.625848
60.543418
23.550987
14.310479
16.878843
24.249554
34.798980
51.907897
67.109466
89.453459
101.457834
112.229586
114.994645
106.809735
94.239712
74.642897
59.598684
39.988756
29.333830
19.762516
15.412569
12.466908
11.523962
10.826588
10.212660
10.162592
10.023713
9.875894
9.716749
9.983778
9.882450
9.480715
9.669662
9.652972
9.419918
9.559989
9.077787
8.911490
8.994937
8.531809
8.686781
8.733869
8.296967
8.561611
##ZVALUE=315
0.665784
0.662804
0.708699
0.522733
0.578761
0.741482
0.704527
0.689626
0.560880
0.639558
0.641942
0.521541
0.692606
0.638962
0.679493
0.840425
0.599623
0.814795
0.698566
0.699759
0.843406
1.037717
1.006722
0.771880
0.995994
0.971556
0.980496
1.000762
1.199841
1.396537
1.053810
1.296997
1.464486
1.457930
1.513958
1.460910
1.676679
2.121925
2.303720
4.962683
20.640492
86.476803
192.412734
436.121821
712.663531
1015.897989
1015.897989
1015.897989
1015.897989
1015.897989
1015.897989
989.353657
719.909668
383.605957
207.349658
75.758696
30.825734
13.917685
13.073683
16.449690
21.294951
33.978820
46.481490
65.289736
81.416965
97.690821
105.838776
108.090639
102.020502
86.761713
72.456002
54.662824
40.760636
26.425719
19.879937
14.193654
12.170672
10.560751
10.119677
9.669662
9.708405
9.904504
9.302497
9.445548
9.114742
9.666681
9.618998
9.284616
9.257793
8.976460
9.260774
9.155869
8.830428
8.650422
8.531809
8.559823
##ZVALUE=320
0.656843
0.517964
0.598431
0.684857
0.586510
0.643730
0.626445
0.758767
0.669956
0.664592
0.722408
0.645518
0.579953
0.620484
0.448823
0.583529
0.645518
0.630617
0.604987
0.830889
0.806451
0.941753
0.816584
0.781417
0.897646
1.051426
0.969768
0.994802
1.112819
1.061559
0.991821
1.063943
1.090765
1.179576
1.311898
1.378655
1.404881
1.638532
1.711845
1.945496
1.921654
3.123879
9.778738
55.674911
140.164495
351.535678
588.316917
981.754661
1015.897989
1015.897989
1015.897989
1015.897989
1015.897989
1015.897393
897.357464
502.337813
289.130807
122.696757
53.651929
16.643405
11.576414
11.703968
14.055967
20.373464
27.983785
44.177771
57.974458
76.265931
89.528561
100.566745
102.447867
94.639659
85.431933
66.878796
52.473545
35.970807
26.658773
18.680692
14.032722
11.259913
9.841919
9.033680
9.099841
9.411573
9.340644
9.022951
9.148717
9.076595
9.133816
8.846521
9.328723
9.063482
9.029508
8.595586
8.745790
8.374453
##ZVALUE=325
0.584722
0.587702
0.492930
0.520945
0.458956
0.706911
0.512600
0.493526
0.504851
0.533462
0.646710
0.456572
0.783801
0.672936
0.615716
0.691414
0.618696
0.789762
0.720620
0.913739
0.833869
0.836849
0.833869
0.724792
0.877976
0.858903
0.801682
1.013875
0.970960
0.671744
0.904799
0.885725
1.151562
0.969768
1.025796
1.268983
1.380444
1.567602
1.406670
1.520514
2.041459
1.939535
1.930594
2.449751
5.038977
34.371614
94.398856
251.830816
462.736487
886.805654
1015.897989
1015.897989
1015.897989
1015.897989
1015.897989
1015.897989
1010.004878
632.504821
378.043652
161.520839
74.596405
23.028851
11.995435
9.678602
10.443926
13.741851
18.525720
28.219819
39.484501
57.658553
71.868896
85.838437
93.973875
95.819831
90.446472
76.439977
64.126849
46.824813
34.820437
23.177862
16.980767
12.247562
10.440946
9.656549
9.448528
9.413958
8.913875
8.962750
8.673668
8.538961
8.445978
8.846521
8.571744
8.704662
8.868575
8.326769
##ZVALUE=330
0.556707
0.582933
0.560880
0.598431
0.566840
0.712872
0.608563
0.423789
0.652671
0.562668
0.439882
0.502467
0.617504
0.581741
0.547767
0.587702
0.532866
0.587702
0.613928
0.610948
0.898838
0.731945
0.741482
0.664592
0.614524
0.705719
0.850558
0.916719
0.916719
0.969768
0.981688
1.042485
0.881553
0.871420
1.014471
1.072884
1.364946
1.198649
1.225471
1.403689
1.524687
1.503825
1.575947
1.653433
2.092719
2.361536
3.107786
13.653636
47.966838
164.733529
322.668552
659.600496
976.948738
1015.897989
1015.897989
1015.897989
1015.897989
1015.897989
1015.897989
839.132667
535.874963
245.853662
123.613477
42.621493
16.915798
9.411573
9.279847
10.062456
12.233853
18.808842
26.120543
39.511919
51.874518
69.576502
80.122948
88.607669
89.543462
82.903504
73.969960
58.293939
45.265555
30.697584
23.876429
16.812682
13.165474
10.717511
9.019971
8.805990
8.812547
8.690953
8.367896
8.407831
8.143783
8.074641
8.132458
8.489490
##ZVALUE=335
0.566840
0.513792
0.486970
0.729561
0.557899
0.569820
0.544786
0.675917
0.434518
0.474453
0.400543
0.390410
0.583529
0.434518
0.539422
0.601411
0.540614
0.732541
0.603795
0.630617
0.716448
0.741482
0.649691
0.705719
0.720620
0.710487
0.726581
0.655651
0.860691
0.902414
0.849962
0.919700
0.794530
0.872612
0.957847
0.906587
0.995994
1.043677
1.069903
1.232624
1.326799
1.367927
1.486540
1.526475
1.663566
1.662970
1.842976
2.183914
2.431870
6.170869
25.020838
104.683638
225.405693
504.404902
816.342831
1015.897989
1015.897989
1015.897989
1015.897989
1015.897989
1015.897989
913.787484
618.916750
323.558450
167.613626
56.931973
22.259951
9.934902
8.712411
8.693933
9.795427
12.718439
16.660690
26.094913
35.532713
51.661730
62.867999
75.676441
82.259774
83.226562
78.530908
66.728592
57.270527
43.649673
33.597946
23.361444
17.462969
12.390614
10.644794
9.232759
8.512735
8.320808
7.982850
7.668734
8.016825
7.802844
##ZVALUE=340
0.418425
0.450611
0.483990
0.413656
0.515580
0.422597
0.586510
0.615716
0.513792
0.364780
0.475645
0.590682
0.480413
0.421405
0.535846
0.581741
0.641942
0.596642
0.553727
0.522733
0.597835
0.544786
0.744462
0.634789
0.689626
0.708699
0.647902
0.721812
0.861883
0.705719
0.895858
0.965595
0.823736
0.772476
0.786781
0.848770
0.837445
0.762939
1.033545
1.094937
1.141429
1.023412
0.901818
1.027584
1.486540
1.318455
1.613498
1.809597
1.813769
2.254844
2.331734
3.554821
13.093948
72.039962
179.201961
445.591807
742.316842
1015.897989
1015.897989
1015.897989
1015.897989
1015.897989
1015.897989
1015.897989
758.571625
390.395522
214.707851
83.763599
32.797456
11.175871
9.380579
9.306669
9.108782
10.288954
11.884570
17.344952
24.003983
34.764409
46.557784
61.073899
70.685744
77.691674
78.338981
72.664618
66.357851
53.448677
43.888688
30.708909
23.728609
16.961694
12.613535
9.758472
8.667707
8.088946
7.800460
8.030534
##ZVALUE=345
0.436902
0.392795
0.416636
0.551939
0.521541
0.529885
0.525713
0.555515
0.685453
0.526905
0.409484
0.587702
0.534654
0.479817
0.559688
0.639558
0.492930
0.634789
0.573993
0.640750
0.712872
0.558496
0.623465
0.606775
0.679493
0.687838
0.735521
0.567436
0.438690
0.807643
0.741482
0.678897
0.887513
0.718832
0.871420
0.786781
0.837445
0.838637
0.934601
0.878572
1.098514
0.984669
1.040697
1.097918
1.253486
1.241565
1.319647
1.331568
1.529455
1.770854
1.904964
1.826882
2.307892
2.558827
6.759763
29.892921
134.705901
279.078484
596.567988
931.116939
1015.897989
1015.897989
1015.897989
1015.897989
1015.897989
1015.897989
905.578732
585.387945
270.040631
132.336617
41.796565
17.547607
10.118484
9.217858
8.817911
8.717775
9.310842
10.992885
15.453696
21.339655
32.104850
42.171478
54.691434
63.174963
70.830584
72.741508
69.497824
63.025951
51.554441
42.849779
30.214787
23.346543
16.112924
12.505651
9.528995
8.692741
##ZVALUE=350
0.523925
0.468493
0.376701
0.450611
0.472665
0.467896
0.430942
0.496507
0.498891
0.499487
0.357628
0.502467
0.513792
0.577569
0.647902
0.576973
0.619888
0.587702
0.494719
0.576973
0.609756
0.593662
0.525713
0.535846
0.662804
0.569820
0.793934
0.640750
0.588894
0.730753
0.688434
0.656843
0.655651
0.777841
0.689626
0.764728
0.768900
0.770688
0.887513
0.814795
0.754595
0.789762
0.905991
0.939965
1.007915
0.982881
1.129508
1.266599
1.241565
1.369715
1.513958
1.459718
1.614690
1.646876
2.076626
2.290606
3.102422
17.029643
59.770942
198.609829
380.320549
752.817988
1015.897989
1015.897989
1015.897989
1015.897989
1015.897989
1015.897989
1015.897989
647.924542
384.835005
171.112418
80.206990
22.009611
10.449886
8.454919
8.222461
7.649660
7.601976
8.360744
9.745955
14.405847
19.214749
28.356910
36.571622
49.363971
56.766868
63.773990
66.655874
64.090490
59.082508
48.156977
40.514469
30.106902
23.412704
16.466975
##ZVALUE=355
0.466704
0.444651
0.614524
0.491738
0.647902
0.398755
0.415444
0.540614
0.603795
0.605583
0.518560
0.636578
0.617504
0.591874
0.658631
0.629425
0.536442
0.551939
0.659823
0.706911
0.643730
0.577569
0.517964
0.718832
0.624657
0.704527
0.652671
0.736713
0.705719
0.678897
0.583529
0.694990
0.636578
0.649691
0.714660
0.705719
0.862479
0.891685
0.807643
0.847578
0.875592
0.864863
0.751615
0.851750
0.888705
1.171827
1.019835
1.000762
1.194477
1.210570
1.337528
1.358986
1.441836
1.540780
1.707673
1.785755
1.964569
2.212524
2.522469
7.725954
30.836463
127.645731
265.970826
560.299754
889.786482
1015.897989
1015.897989
1015.897989
1015.897989
1015.897989
1015.897989
790.676475
497.537851
226.683617
112.547874
37.286878
14.154911
8.492470
7.479787
7.177591
7.214546
7.340908
7.753968
9.302497
11.866689
17.650723
23.482442
33.119917
41.303635
50.640702
56.545734
60.465932
59.235692
53.403974
46.292543
37.203431
##ZVALUE=360
0.601411
0.627637
0.501871
0.546575
0.748634
0.523925
0.564456
0.518560
0.573993
0.385642
0.611544
0.524521
0.697970
0.669956
0.678897
0.641942
0.517964
0.650883
0.443459
0.616908
0.765920
0.572801
0.549555
0.718832
0.674725
0.696778
0.765920
0.693798
0.728965
0.651479
0.683665
0.776649
0.679493
0.771880
0.833869
0.656843
0.973940
0.866652
0.831485
0.920892
0.957847
0.908971
0.891685
0.888705
1.009703
1.035929
1.075864
1.077652
1.065731
1.170635
1.455545
1.369715
1.351833
1.414418
1.472831
1.473427
1.830459
1.939535
2.093911
2.235770
2.529621
4.189610
14.525652
76.399446
189.824700
462.419391
752.011538
1015.897989
1015.897989
1015.897989
1015.897989
1015.897989
1015.897989
958.623886
618.302822
289.768577
145.444870
50.713420
19.893646
8.563995
7.945895
7.009506
6.876588
6.642938
6.426573
6.985664
8.078814
10.516644
13.980865
19.800663
26.609898
36.400557
43.005943
50.094724
53.591728
53.970814
##ZVALUE=365
0.522733
0.586510
0.496507
0.557899
0.658631
0.532866
0.469685
0.630617
0.604987
0.688434
0.509620
0.696778
0.597835
0.488758
0.607967
0.492930
0.507832
0.584722
0.640750
0.675917
0.571609
0.568628
0.686646
0.731945
0.634789
0.607967
0.736713
0.680685
0.837445
0.814795
0.739694
0.774860
0.724792
0.721812
0.803471
0.764728
0.713468
0.893474
0.664592
0.678897
0.746846
0.858903
0.775456
0.970960
1.076460
1.150966
1.040697
1.052618
1.011491
1.122952
1.140833
1.262426
1.160502
1.358986
1.231432
1.544952
1.531839
1.621842
1.799464
1.950860
2.151728
2.263784
2.561808
3.046989
6.340742
42.840838
121.011734
320.034623
591.384768
1015.729904
1015.897989
1015.897989
1015.897989
1015.897989
1015.897989
1015.897989
769.934654
386.112928
203.268528
71.591735
27.740002
9.246469
7.231832
6.638765
6.436706
6.256700
6.059408
5.956888
6.174445
7.032752
8.335710
12.048483
16.344786
23.796558
30.016899
39.042830
##ZVALUE=370
0.536442
0.470877
0.526905
0.288486
0.472665
0.523925
0.577569
0.434518
0.484586
0.543594
0.526905
0.689626
0.576973
0.398755
0.567436
0.412464
0.450611
0.553727
0.629425
0.582933
0.674725
0.673532
0.699759
0.578761
0.656843
0.718832
0.685453
0.686646
0.772476
0.773668
0.592470
0.701547
0.572801
0.779629
0.831485
0.756979
0.778437
0.830889
0.817776
0.747442
0.646710
0.838637
0.870824
0.867844
0.754595
0.904799
0.881553
0.977516
1.088977
0.959635
0.924468
0.990629
1.057982
1.028776
1.023412
1.062751
1.188517
1.151562
1.215935
1.350641
1.484752
1.705885
1.701713
1.861453
2.192855
2.473593
3.541708
18.448830
67.422390
227.072835
423.351526
803.954005
1015.897989
1015.897989
1015.897989
1015.897989
1015.897989
1015.897989
927.389860
504.768491
277.700424
105.818510
46.228766
15.239716
7.881522
6.445646
5.979538
5.720854
5.606413
5.585551
5.490780
5.638599
6.245971
7.367730
9.526610
14.143586
##ZVALUE=375
0.360608
0.329614
0.559688
0.530481
0.396967
0.399947
0.458956
0.488758
0.423789
0.554919
0.593662
0.481606
0.453591
0.427961
0.576973
0.596642
0.586510
0.624657
0.677705
0.569820
0.627637
0.503659
0.505447
0.487566
0.618696
0.567436
0.608563
0.579953
0.687838
0.733733
0.481606
0.564456
0.600815
0.519753
0.604987
0.697970
0.697970
0.692606
0.668764
0.618696
0.711679
0.627637
0.711679
0.731945
0.710487
0.629425
0.704527
0.713468
0.846982
0.768900
0.769496
0.932813
0.908971
0.971556
0.901818
1.047850
1.032948
1.002550
0.984669
1.036525
1.169443
1.453757
1.708865
1.484752
1.755953
1.794696
2.005696
2.428889
2.753735
9.069443
35.984516
141.512752
303.885937
667.589903
988.821983
1015.898585
1015.898585
1015.898585
1015.898585
1015.898585
1015.898585
643.125772
401.295424
194.399953
93.057752
27.587414
10.719895
6.376505
5.711913
5.385876
5.323887
5.045533
5.182624
5.119443
4.952550
5.482435
##ZVALUE=380
0.549555
0.445843
0.433922
0.459552
0.381470
0.368953
0.614524
0.542998
0.536442
0.449419
0.453591
0.476837
0.549555
0.338554
0.415444
0.432730
0.599623
0.449419
0.543594
0.493526
0.465512
0.521541
0.513792
0.681877
0.618696
0.436902
0.546575
0.568628
0.563860
0.473857
0.519753
0.477433
0.653863
0.686646
0.624657
0.519753
0.504851
0.599623
0.506639
0.663996
0.515580
0.633597
0.575781
0.802875
0.617504
0.734925
0.752807
0.714660
0.791550
0.694990
0.671744
0.859499
0.886917
0.962615
0.869632
0.871420
0.902414
0.875592
1.025796
1.002550
1.041889
1.149774
1.194477
1.476407
1.496673
1.647472
1.646876
1.893640
2.132654
2.527833
2.887845
4.921556
20.703673
114.086866
268.565416
622.578859
970.515013
1015.897989
1015.897989
1015.897989
1015.897989
1015.897989
1015.897989
929.121971
628.485680
316.190720
161.183476
52.242875
19.229650
6.956458
5.818605
5.300641
5.259514
5.121827
4.810691
4.670620
##ZVALUE=385
0.443459
0.436902
0.256896
0.362992
0.409484
0.508428
0.438690
0.395775
0.362992
0.480413
0.471473
0.421405
0.589490
0.438690
0.368953
0.419617
0.333786
0.531673
0.480413
0.540614
0.544786
0.510812
0.465512
0.464916
0.503659
0.559688
0.517964
0.434518
0.579953
0.545979
0.681877
0.540614
0.567436
0.665784
0.559688
0.629425
0.428557
0.442863
0.523925
0.561476
0.685453
0.547767
0.484586
0.710487
0.661612
0.636578
0.707507
0.589490
0.523925
0.652671
0.856519
0.754595
0.820756
0.655651
0.866652
0.853539
1.019835
0.856519
0.930429
0.912547
0.881553
0.979900
1.011491
1.204610
1.264811
1.378655
1.500845
1.614690
1.712441
2.012849
2.290606
2.424717
2.836585
3.100634
10.975599
45.262575
193.066597
420.179963
910.006762
1015.897989
1015.897989
1015.897989
1015.897989
1015.897989
1015.897989
1015.897989
730.192661
451.474786
198.514462
95.369816
29.670596
10.627508
5.412698
5.420446
4.774928
4.864931
##ZVALUE=390
0.454783
0.504851
0.369549
0.390410
0.393987
0.532866
0.436902
0.482798
0.437498
0.417829
0.247955
0.572801
0.448823
0.533462
0.318885
0.412464
0.340939
0.516772
0.442863
0.551939
0.414848
0.611544
0.549555
0.558496
0.476837
0.376701
0.626445
0.498891
0.479817
0.550747
0.385642
0.421405
0.548959
0.663996
0.536442
0.404716
0.567436
0.525713
0.450611
0.555515
0.418425
0.619888
0.543594
0.606775
0.597835
0.574589
0.597835
0.555515
0.668764
0.671744
0.718832
0.732541
0.793934
0.795722
0.708699
0.820756
0.743866
0.940561
0.870824
0.823736
0.867844
1.047850
1.078844
0.900626
1.011491
1.237988
1.377463
1.407862
1.732707
1.867414
2.087951
2.246499
2.313852
2.329946
2.358556
2.670884
4.423857
25.759935
89.193583
309.257507
608.170629
1015.897989
1015.897989
1015.897989
1015.897989
1015.897989
1015.897989
1015.897989
989.854932
585.252643
327.598453
127.163529
54.863691
13.767481
6.257892
5.016923
##ZVALUE=395
0.323653
0.298619
0.322461
0.521541
0.556707
0.534654
0.363588
0.393987
0.607967
0.461936
0.399947
0.481606
0.549555
0.469685
0.455976
0.345707
0.385642
0.527501
0.407696
0.482798
0.368953
0.462532
0.453591
0.424981
0.524521
0.447631
0.578761
0.465512
0.465512
0.529885
0.452995
0.556707
0.573993
0.675917
0.547767
0.602603
0.472665
0.413656
0.398755
0.562668
0.556707
0.593662
0.658631
0.557899
0.635982
0.681877
0.570416
0.651479
0.718832
0.712872
0.718832
0.657439
0.742674
0.850558
0.607967
0.733733
0.656843
0.908971
0.861883
0.713468
0.711679
0.958443
1.013875
1.146793
1.039505
1.115799
1.215935
1.351833
1.454949
1.664758
1.783967
1.823902
1.845956
1.953840
1.992583
1.949668
1.986623
2.337694
2.881885
13.574958
53.894520
200.856924
394.205451
759.529471
1015.897989
1015.897989
1015.897989
1015.897989
1015.897989
1015.897989
1015.897989
728.836656
437.916517
180.668831
83.301663
25.259852
##ZVALUE=400
0.321865
0.503659
0.322461
0.439882
0.450611
0.429749
0.320673
0.233650
0.331998
0.459552
0.401735
0.441670
0.563860
0.506639
0.456572
0.362992
0.384450
0.372529
0.300407
0.421405
0.482798
0.449419
0.426769
0.393987
0.540614
0.418425
0.506639
0.576973
0.385642
0.530481
0.477433
0.439882
0.481606
0.469685
0.531673
0.509620
0.391603
0.572801
0.622869
0.530481
0.566840
0.486970
0.481606
0.579953
0.507832
0.610948
0.635982
0.512600
0.608563
0.572801
0.575781
0.610948
0.599623
0.682473
0.629425
0.593662
0.712872
0.783801
0.750422
0.859499
0.825524
0.837445
0.825524
0.964999
0.962615
1.153946
1.070499
1.285672
1.349449
1.499653
1.524687
1.601577
1.545548
1.629591
1.717806
1.460910
1.639724
1.797676
1.758933
2.287626
2.657771
6.789565
26.646852
112.847686
249.990821
575.902462
914.389491
1015.897989
1015.897989
1015.897989
1015.897989
1015.897989
1015.897989
882.118940
572.642684
282.523632
##END
