##TITLE=SH701
##FORMAT=SPECTACLE-ASCII V-1.2
##DATA TYPE=ULTRAVIOLET SPECTRUM
##SECOND TYPE=ULTRAVIOLET SPECTRUM
##DATE=12/26/17
##TIME=17:12:27
##SPECTROMETER/DATA SYSTEM=SPECTACLE
##XUNITS=NM EM
##YUNITS=ENERGY
##YFACTOR=1
##FIRSTX=220
##LASTX=410
##NPOINTS=96
##3DDATA=Equidistant
##ZUNITS=NM EX
##FIRSTZ=210
##LASTZ=400
##ZPOINTS=39
##XYDATA=(Y..Y)
##ZVALUE=210
1.578927
1.650453
1.731515
1.278520
1.679659
1.698732
1.799464
1.856685
2.066493
2.061725
2.607703
2.777576
2.916455
2.331734
2.648830
3.026724
2.914667
3.752708
3.628731
3.620982
3.863573
4.383922
5.203485
4.687905
5.138516
5.449653
6.724596
6.091595
6.224513
5.731583
7.178783
6.087422
6.727576
7.534623
7.320642
7.106662
7.866621
9.228587
8.467436
10.066628
8.317828
8.959770
9.721518
9.637475
11.092424
10.033846
9.891987
10.726452
10.436773
11.572838
11.946559
13.014674
11.530519
13.768673
14.281869
13.334751
15.827417
14.326572
14.507771
15.227795
14.612675
15.374422
17.086864
17.446876
17.971992
18.037558
20.143986
23.876429
26.631951
32.712817
38.046837
46.288967
55.228472
61.320662
70.669651
78.507662
76.305866
77.608824
78.242421
70.926547
68.358779
61.935782
53.219795
46.396852
42.335987
33.492446
31.029582
27.896762
26.929975
25.822520
23.631454
24.497509
24.348497
27.370453
26.991963
24.542809
##ZVALUE=215
3.335476
3.639460
3.511906
2.492666
2.499819
2.216697
2.545714
3.026724
3.901720
3.620982
4.129410
3.364682
3.796816
3.290772
2.960563
4.166961
3.508925
3.305674
3.749728
3.874898
4.073977
4.324913
5.025864
5.981922
5.564690
6.065965
5.791783
6.153584
6.780624
7.097721
7.958412
6.863475
8.516908
8.135438
9.133816
7.995963
8.754730
8.916855
8.981824
9.535551
10.516644
10.828972
10.009408
9.810925
11.285543
10.336637
10.760427
12.109876
12.202859
13.151765
14.116764
14.113784
13.039708
13.022423
13.316870
15.182495
15.060902
15.464425
14.731884
16.830564
16.623735
16.107559
16.681552
18.484592
18.624663
18.462539
19.892454
23.710728
27.327538
30.781627
36.633611
44.007897
51.437616
61.120987
65.635443
68.601966
70.491433
70.150495
68.828464
66.550970
59.004426
53.971410
49.011707
43.619871
39.822459
33.743978
28.906465
28.328896
28.215647
27.073622
24.097562
24.456978
25.334954
24.583936
25.633574
23.787618
##ZVALUE=220
14.497638
13.418794
15.542507
15.403628
14.163852
11.905432
10.213852
8.559823
7.522702
6.803870
8.361936
7.267594
7.223487
8.111000
7.809997
5.946755
5.438924
4.937649
5.146861
5.237460
5.396605
4.902482
5.628467
4.906654
5.059838
6.554723
6.907582
7.176995
6.556511
7.220507
7.124543
7.815957
9.501576
9.194613
10.051727
9.693503
11.158586
9.707808
11.136532
10.863543
9.963512
12.893677
12.362599
12.326837
11.803508
13.036728
13.705492
12.982488
13.792515
13.407469
14.787912
13.967752
15.833974
14.798641
15.569925
16.414523
17.767549
17.434955
18.128753
18.190742
18.547773
17.354488
19.057989
19.864440
19.503832
21.472573
22.430420
23.934841
27.225614
33.255816
39.535761
46.801567
51.642656
59.676766
64.944625
68.547726
69.118738
70.606470
66.290498
66.192746
61.550736
53.204894
50.616860
47.569871
40.211678
37.610531
33.345819
29.720664
29.714704
28.037429
26.377439
27.886629
27.709603
27.902722
27.987957
27.842522
##ZVALUE=225
28.808713
30.706525
39.037466
55.036545
63.180923
64.172745
62.807798
48.683882
39.500594
30.534863
22.586584
18.218756
17.421842
17.558932
19.078851
20.084977
16.413927
14.992952
12.346506
8.692741
7.690787
5.642772
6.627440
5.921721
5.993843
6.439686
7.509589
7.816553
8.199811
8.244514
8.558631
9.930730
10.567904
11.471510
11.196733
11.177659
12.495518
12.084842
11.928678
11.846423
12.863874
14.314651
13.429523
14.642477
14.058948
16.659498
16.423464
15.892982
17.344952
17.860532
18.838644
20.570755
21.258593
21.190643
22.389889
22.252798
23.203492
24.690628
24.501681
25.042892
25.588870
25.122762
27.416945
26.643872
27.021766
29.207468
29.968619
35.844445
38.607717
40.509701
46.852827
54.033995
59.411526
64.998865
65.848827
75.463653
72.667599
67.971945
70.389509
67.211986
63.610673
57.478547
57.176948
50.072670
46.497583
42.727590
42.536855
38.541555
37.665963
38.460493
36.771894
38.093925
36.434531
35.858750
35.642982
37.393570
##ZVALUE=230
30.069947
32.157898
53.830743
93.824863
127.766728
173.279643
194.204450
205.215812
195.125937
172.702670
121.607780
85.165501
53.608418
40.746927
36.417842
39.032698
39.801002
41.059852
35.938621
33.299923
25.510788
18.176436
13.614893
10.348558
9.175539
7.553697
9.079576
7.935762
9.843707
9.527802
9.069443
9.790659
11.104941
11.762977
11.427999
13.743639
13.799667
13.728738
14.302731
14.942884
15.221834
15.681982
16.464591
17.441511
18.500686
18.533468
19.892454
20.163655
21.124482
23.792982
24.818778
26.693940
27.298927
29.339790
30.390620
31.203628
32.165647
32.466650
34.160614
34.064651
36.215782
35.398602
37.325621
36.383867
41.480660
41.601658
43.875575
47.061443
50.358772
55.785775
62.857866
68.087578
74.282885
78.459978
85.746646
87.877512
85.715652
86.833835
83.215833
80.078840
80.841780
72.278976
68.088770
66.466928
61.230659
56.355596
54.767728
54.532886
55.232644
53.613782
51.523447
50.990582
51.538944
49.072504
53.025484
53.460002
##ZVALUE=235
14.612675
16.551614
33.433437
80.207586
143.517852
239.457488
311.228633
420.852900
468.357801
487.263799
456.440449
361.335874
280.191898
176.934004
123.287439
86.142421
67.650676
65.961480
72.646737
76.158643
71.391463
59.274435
48.175454
37.326813
23.841858
16.955733
12.255907
10.636449
11.965632
10.963678
10.613799
10.885000
11.467934
12.132525
13.107657
14.616847
13.942719
14.934540
14.626980
15.668869
16.187429
18.363595
18.162727
19.164681
19.973516
21.364689
22.248626
23.366809
24.133921
26.456714
27.987957
29.776692
31.709671
34.036636
36.181808
38.141608
41.185617
42.538643
42.645931
45.981407
43.916702
49.086809
50.633550
53.976774
52.779913
56.215525
55.740476
60.875416
64.315796
74.078441
77.095628
86.597800
91.942549
101.484656
105.975866
105.376840
109.302998
110.793710
108.288527
103.639960
98.561645
98.935962
91.380477
88.228583
83.801746
79.713464
81.919432
76.464415
79.444647
78.427792
74.802637
75.280666
73.689818
74.045658
73.002577
73.150992
##ZVALUE=240
2.078414
3.098845
8.011460
20.358562
65.515637
124.509931
262.275934
404.227972
627.949834
758.533478
871.387720
880.434513
817.317963
671.529770
516.394973
329.346657
218.119621
137.363672
105.064511
94.528794
100.849867
109.368563
107.910633
94.627738
79.443455
63.403845
47.554970
35.770535
23.135543
17.007589
14.775991
13.007522
12.813807
13.691783
13.045669
13.161898
13.959408
15.557408
15.882850
17.635822
16.910434
17.618537
20.036697
18.813610
20.623803
23.586750
23.544431
26.397705
26.450753
28.794408
30.788779
35.612583
35.398602
37.509799
40.811896
41.836500
43.134689
47.583580
50.207973
50.953627
55.437684
56.957603
59.270859
57.607889
61.099529
62.256455
69.802999
77.190995
77.358484
85.327625
92.660785
101.675987
108.220577
115.368962
121.927857
127.422810
126.224756
128.952861
124.724507
123.530626
122.394562
117.686987
109.830499
110.237002
109.267831
105.405450
97.970963
98.693967
98.160505
99.990964
96.624494
95.786452
92.881918
96.466541
93.874931
93.661547
##ZVALUE=245
1.674891
1.719594
1.785755
2.251863
4.722476
21.424890
56.355596
160.169005
282.462835
507.097840
718.873739
971.847773
1015.754938
1015.754938
1015.754938
949.459672
776.804686
515.628457
344.909430
189.687610
127.803683
105.205774
107.105970
118.621588
125.033855
121.009946
104.193687
90.400577
69.237947
51.160455
36.479831
27.083755
18.972754
14.676452
13.741851
14.274716
13.414621
14.698505
15.131831
15.101433
15.347600
16.252995
17.336607
19.520521
19.207597
20.688772
21.641850
23.974776
26.713610
27.942657
29.434562
30.198693
31.820536
36.228895
36.823750
39.362907
43.631792
45.445561
45.675635
47.741532
49.960613
52.311420
55.373907
55.987835
59.395432
61.591864
63.748956
68.267584
74.116588
83.732605
84.478855
92.533827
97.522736
107.419491
110.192895
115.746856
114.180446
118.470788
114.127994
114.536881
113.146901
110.114813
106.779933
105.636716
101.128817
100.608468
100.005865
99.538565
97.773671
97.955465
99.628568
95.009804
94.623566
91.663003
91.107488
92.975497
##ZVALUE=250
1.454949
1.781583
1.977682
2.063513
1.806617
2.089739
3.994703
13.048649
54.573417
125.739574
299.898982
501.468778
744.255781
1015.829444
1015.829444
1015.829444
1015.829444
1015.829444
1015.829444
752.576590
505.495667
308.807492
162.109733
111.389756
103.140473
115.188956
129.627585
133.609772
130.463839
119.318962
97.166896
77.418685
59.345961
37.746429
27.821660
18.978715
15.097857
15.082955
14.624000
14.849901
14.727712
15.969872
16.826987
18.152595
20.028949
19.391775
21.282434
22.215843
23.782849
26.574731
27.565956
29.353499
31.662583
33.851862
34.774542
36.128759
39.228797
39.409995
40.431619
42.610765
43.311715
46.628714
48.509836
48.447847
50.396919
54.896474
57.278872
58.977604
64.099431
69.905519
75.284839
82.148910
83.409548
93.716979
95.481873
101.064444
102.212429
99.430680
100.710988
96.348524
96.584558
96.213818
95.493793
90.863705
91.318488
90.047717
91.962814
91.823936
90.602636
88.583827
87.825656
86.935759
86.938739
85.612535
86.256862
84.264874
##ZVALUE=255
1.496673
1.602769
1.392961
1.602769
1.568794
1.732707
1.898408
1.723766
2.649426
6.936789
37.865639
98.190904
203.425884
445.653796
697.771907
1015.829444
1015.829444
1015.829444
1015.829444
1015.829444
1015.829444
1015.829444
694.487095
435.778499
218.013525
131.966472
97.085834
101.780891
123.896599
136.958957
144.405961
136.452913
127.005577
105.143785
83.768964
58.571696
44.408441
27.395487
21.209717
17.669797
15.757680
15.529990
16.896725
17.288923
17.387867
19.908547
19.542575
21.424890
24.046898
24.756789
27.586818
28.003454
30.069947
30.306578
32.507777
33.662915
35.026670
35.749674
36.655664
38.405657
39.383769
42.253733
41.715503
44.891834
46.863556
48.244596
51.192641
51.882863
56.406856
60.836673
65.297484
69.751740
73.878765
78.994632
79.718828
84.147453
83.622932
83.622932
84.344745
80.645680
82.192421
79.466701
80.839992
79.056621
78.929663
76.436996
76.197982
78.112483
77.670813
76.773763
77.925920
75.576901
77.007413
77.530742
76.004863
78.664422
##ZVALUE=260
1.757741
1.456738
1.452565
1.455545
1.188517
1.438856
1.634955
1.901984
1.964569
2.318621
2.892613
3.950000
12.913942
64.048767
148.217678
371.236801
613.939762
992.428660
1015.829444
1015.829444
1015.829444
1015.829444
1015.829444
1015.829444
964.934826
657.922626
358.475447
203.053951
107.943416
90.025663
100.241899
126.007795
141.500831
151.010752
147.316456
131.488442
114.339590
83.988905
66.119432
44.494867
33.223629
24.452806
20.327568
18.766522
19.721985
21.198988
21.938682
22.020936
24.729967
25.621653
27.640462
29.318929
30.125976
31.197667
32.528639
35.250783
34.539700
36.432743
38.654804
39.940476
40.047765
41.206479
43.454766
43.682456
44.472814
45.326948
48.337579
49.923658
52.106977
56.794882
59.656501
66.084862
66.001415
69.775581
74.474812
76.537728
76.854825
74.954629
76.139569
75.388551
73.481798
73.654652
72.841644
71.424842
70.070624
69.954991
70.764422
69.937706
68.889856
68.264604
66.626668
67.126751
68.643689
70.668459
69.936514
67.877769
##ZVALUE=265
1.114607
1.563430
1.364946
1.523495
1.157522
1.291633
1.635551
1.566410
2.124906
2.032518
2.068877
1.887679
2.227426
3.207922
7.877946
41.798949
107.894540
285.291672
516.991615
966.920853
1015.828848
1015.828848
1015.828848
1015.828848
1015.828848
1015.828848
1015.828848
940.351486
515.393615
299.926996
166.073442
91.302991
86.308718
114.853978
134.269595
152.179599
159.047842
150.127411
139.791965
114.407539
89.236498
65.963864
50.934553
34.619570
28.095841
23.584962
23.834705
23.783445
26.249886
27.325749
29.718876
30.851960
32.542944
35.910606
35.340786
36.195517
38.205981
39.246678
40.959716
42.412877
43.308735
43.053627
45.710802
45.378804
46.378970
46.869516
49.117804
51.559806
52.408576
57.732463
59.234500
64.799786
65.093637
69.094896
69.195628
68.677664
71.407557
70.861578
69.880486
69.721937
69.745779
67.581534
64.802766
65.499544
65.164566
65.286756
64.298511
65.403581
65.284967
65.021515
66.158772
64.222813
64.801574
62.882900
62.926412
64.591765
##ZVALUE=270
0.959635
1.283884
1.027584
1.001954
1.285672
1.266599
1.182556
1.775622
1.601577
1.757741
1.742840
2.062917
1.942515
2.349615
2.158880
2.936721
4.035830
19.598603
63.740611
214.595795
425.810814
733.278990
1015.829444
1015.829444
1015.829444
1015.829444
1015.829444
1015.829444
1015.829444
1015.829444
794.070959
482.412577
217.316747
113.705993
78.879595
89.696646
117.225647
136.470795
158.361793
161.455870
154.854655
142.901540
116.773844
97.015500
69.057941
55.652857
39.891601
34.201741
30.716658
31.368732
32.267570
34.602880
36.246777
37.547946
39.181709
40.041804
42.880774
42.810440
44.700503
44.281483
46.727657
47.435760
46.225786
48.720837
49.109459
50.737858
51.503778
53.597689
54.807663
57.189465
60.243607
61.114430
66.092610
66.397786
67.729950
69.731474
68.738461
67.321658
66.356659
67.095757
65.427423
63.832998
62.156916
63.242912
62.510967
64.182878
61.827898
61.071515
61.733723
61.670542
61.529875
61.757565
60.434937
59.415698
60.830712
60.511827
##ZVALUE=275
1.198649
1.300573
1.181960
1.155734
1.268983
1.342893
1.339912
1.590848
1.475811
1.492500
1.456738
1.428723
1.686811
1.903772
2.026558
2.293587
2.437830
2.903938
3.476739
10.036826
36.924481
76.968670
328.058600
634.890795
1015.829444
1015.829444
1015.829444
1015.829444
1015.829444
1015.829444
1015.829444
1015.829444
1015.829444
674.582720
308.678746
159.992576
77.000856
70.792437
94.621778
115.052462
141.151547
153.500438
163.585544
160.677433
143.200755
123.479962
98.020434
79.207420
59.583783
49.258471
41.818619
38.743615
39.020777
40.376782
41.845441
42.642951
46.051741
46.777725
47.864914
49.022436
50.274730
51.378608
50.798655
51.677823
52.318573
53.077936
55.405498
54.615736
56.959987
59.379935
60.721636
62.395930
65.499544
66.952705
68.807602
69.646835
69.267750
68.523884
68.107843
65.332651
64.184666
64.524412
62.951446
61.628819
62.714815
62.095523
61.023831
60.846806
60.825944
60.284734
58.583617
58.845878
59.003830
58.067441
57.752728
57.236552
##ZVALUE=280
0.781417
0.841618
0.925660
1.041889
0.913739
0.967979
1.035929
1.194477
1.107454
1.054406
1.007915
1.604557
1.677871
1.352429
1.653433
1.802444
1.765490
2.165437
2.154708
2.712607
3.067851
3.995895
23.033619
80.699921
268.185735
504.931808
962.422490
1015.669703
1015.669703
1015.669703
1015.669703
1015.669703
1015.669703
1015.669703
1015.669703
910.964608
446.492434
225.064754
88.399649
58.066845
69.044828
87.647438
115.569830
136.875510
156.492591
162.634850
157.651901
144.592524
125.833750
105.927587
82.661510
68.910718
56.119561
50.149560
46.068430
46.916604
48.648715
49.221516
50.334930
52.892566
53.220987
54.655671
54.982901
55.303574
55.861473
56.751966
59.044957
58.352947
61.859488
62.998533
64.017773
65.279603
66.630840
68.127513
68.306923
68.636537
68.993568
68.352818
65.888762
66.196918
64.648986
63.336492
63.463449
61.871409
62.880516
60.880780
60.821772
60.781837
59.979558
59.092641
59.551001
58.890581
57.038665
56.526661
56.011677
56.356788
##ZVALUE=285
1.126528
1.100898
1.035929
1.010895
1.173615
1.143813
1.058578
1.304746
1.101494
1.252890
1.079440
1.288652
1.320839
1.558661
1.537800
1.567602
1.653433
1.841784
2.075434
2.086759
2.398491
2.843738
3.063679
3.566742
11.711717
43.056607
155.347586
326.201916
730.975866
1015.821695
1015.821695
1015.821695
1015.821695
1015.821695
1015.821695
1015.821695
1015.821695
1015.821695
743.950605
332.814455
162.234902
64.437985
49.206614
65.483451
86.004734
114.245415
136.267543
153.090954
163.556933
161.796808
153.184533
133.568645
116.044879
92.149973
77.914000
63.828826
58.052540
55.691600
53.813457
56.523681
57.289600
58.256984
58.618784
59.656501
60.522556
62.581897
62.236786
62.197447
65.388680
64.533949
66.436529
68.127513
68.945885
69.629550
70.351958
70.688725
69.578886
69.522858
67.900419
66.468716
66.000819
63.985586
63.670874
64.321756
62.615871
61.880946
61.400533
61.475635
59.111714
60.074925
58.177710
58.167577
57.465434
57.374835
56.071877
55.203438
##ZVALUE=290
0.983477
1.041889
0.965595
1.197457
1.015663
0.979900
1.155734
1.218915
1.073480
1.325607
1.282692
1.137853
1.443624
1.415610
1.332760
1.488924
1.600981
1.674891
1.654625
1.998544
1.880527
2.451539
2.574921
2.870560
3.050566
3.516674
5.343556
18.180609
87.513924
216.825008
442.948937
946.078897
1015.829444
1015.829444
1015.829444
1015.829444
1015.829444
1015.829444
1015.829444
1015.829444
991.731882
501.464605
248.720646
88.424683
46.264529
46.667457
61.569810
86.183548
108.429790
135.343671
152.738690
168.549418
165.935755
155.608654
140.653849
115.959644
99.216700
80.911517
73.109865
65.684915
62.374473
60.640574
61.840415
61.106682
63.362718
63.360929
65.338612
65.370798
65.881610
67.006946
67.926645
69.817901
69.977641
70.501566
70.505738
69.996715
69.289804
69.395900
67.794919
66.843629
65.810680
65.955520
65.094829
63.652992
62.976480
62.333941
62.459707
61.398745
60.866475
59.682727
58.689713
57.501793
57.267547
54.655671
55.401921
55.016875
##ZVALUE=295
0.857711
0.817776
1.025796
1.027584
0.978708
0.944734
0.901818
0.919700
1.008511
1.086593
1.095533
1.076460
1.261830
1.186728
1.411438
1.237988
1.374483
1.370907
1.578927
1.599789
1.821518
1.767874
2.111793
2.575517
2.280474
2.830625
3.093481
3.668666
4.101992
10.394454
38.236976
162.084699
356.708765
827.688575
1015.829444
1015.829444
1015.829444
1015.829444
1015.829444
1015.829444
1015.829444
1015.829444
1015.829444
723.730922
384.650826
135.350823
59.101582
37.137866
45.163631
65.161586
85.905790
112.957954
134.778619
156.740546
164.639950
165.980458
156.347752
139.762759
123.773813
102.240443
88.739991
74.974895
68.658590
63.953996
62.650442
62.089562
63.562989
64.896941
65.552592
66.078901
68.143606
69.196820
71.231723
70.561767
70.728660
70.774555
69.460869
69.398880
67.159534
66.201687
65.647960
65.927505
63.841939
64.929724
64.309835
61.430931
62.582493
61.899424
61.097741
59.125423
58.361888
57.004690
56.467652
55.345893
55.656433
54.929852
##ZVALUE=300
1.008511
0.990629
0.779629
0.855923
0.916719
0.944734
0.928640
0.908971
1.105666
1.076460
0.953674
1.180768
1.191497
1.054406
1.146793
1.317859
1.402497
1.508594
1.332760
1.438856
1.444817
1.705885
1.850724
2.014637
1.903772
2.307892
2.488494
2.783537
2.909899
3.177524
3.667474
4.580617
20.167828
79.349875
282.248855
559.508801
1015.830636
1015.830636
1015.830636
1015.830636
1015.830636
1015.830636
1015.830636
1015.830636
1015.830636
1015.830636
544.737577
278.187990
93.828440
44.749975
39.422512
47.370791
67.333579
84.104538
111.474991
132.428408
155.134797
164.079666
165.157914
159.252882
142.346621
124.212503
102.898479
90.015531
75.252652
67.629814
63.895583
61.831474
62.419772
62.860847
65.472722
65.837502
66.340566
67.857504
67.705512
68.463683
66.769719
66.393614
64.839721
63.793659
65.148473
62.963963
62.461495
62.701702
62.195659
61.656833
61.698556
61.098933
59.472919
58.717728
57.954788
57.041645
54.929852
55.014491
54.353476
54.160953
##ZVALUE=305
0.626445
0.666976
0.767708
0.757575
0.860691
0.901818
1.117587
1.043677
0.990629
0.979900
0.875592
1.057982
1.040697
1.060963
1.195669
1.191497
1.227856
1.235604
1.165867
1.346469
1.369715
1.513958
1.521707
1.651645
1.814961
1.815557
2.047420
2.224445
2.341866
2.495646
3.043413
3.372431
3.752708
4.314780
8.899570
59.606433
176.082850
504.557490
900.558829
1015.829444
1015.829444
1015.829444
1015.829444
1015.829444
1015.829444
1015.829444
1015.829444
1015.829444
859.148502
393.692851
191.327929
67.400932
40.201545
41.744709
50.265789
69.234967
85.626841
111.406446
129.879713
148.278475
157.971978
158.369541
151.355863
133.029819
118.200779
98.058581
85.841417
71.701407
66.198707
62.016845
60.637593
61.477423
62.738657
62.557459
64.053535
63.796639
62.697530
62.544942
61.995983
61.623454
61.708689
62.151551
61.366558
60.776472
61.415434
59.933662
60.614944
59.406757
59.938431
59.064627
57.549477
56.793690
55.778623
55.423975
54.201484
53.357482
##ZVALUE=310
0.866652
0.616908
0.775456
0.835657
0.830889
0.937581
0.928640
0.829697
0.961423
1.117587
0.885725
0.872612
1.252890
1.013875
1.157522
0.965595
1.176596
0.982881
1.216531
1.136661
1.308918
1.321435
1.430511
1.386404
1.588464
1.595616
1.912713
1.860857
1.935959
2.169609
2.516508
2.597570
2.836585
3.310442
3.452897
4.358888
5.284548
27.954578
99.276900
336.774588
656.305552
1015.830636
1015.830636
1015.830636
1015.830636
1015.830636
1015.830636
1015.830636
1015.830636
1015.830636
1015.830636
637.075901
329.159498
113.753676
51.398873
36.043525
39.634705
50.701499
62.248707
81.595778
99.269748
122.453570
136.897564
146.752000
149.737000
142.152905
131.888986
113.727450
97.853541
80.616474
71.465969
63.540936
60.945749
58.984756
59.703588
59.796572
59.019923
59.079528
58.698654
59.479475
58.991909
59.599876
59.426427
59.714913
59.935451
59.192777
58.897734
58.131814
58.249831
58.158636
56.839585
56.145787
55.111647
54.013729
54.346919
53.502917
##ZVALUE=315
0.749826
0.791550
0.811815
0.691414
0.888705
0.842810
0.741482
0.804663
0.816584
0.919700
0.895858
0.746846
0.983477
0.915527
0.957847
0.943542
1.124740
1.272559
1.196861
1.131892
1.139641
1.282692
1.480579
1.328588
1.526475
1.523495
1.581907
1.754761
1.785755
1.808405
2.014637
2.284646
2.455711
2.793670
2.753735
3.358722
3.749728
4.265904
4.594922
12.591481
55.374503
242.118835
525.791645
1015.829444
1015.829444
1015.829444
1015.829444
1015.829444
1015.829444
1015.829444
1015.829444
1015.829444
1015.829444
917.672515
486.200452
171.239972
72.759986
35.746694
34.222603
39.543509
45.753717
58.713555
73.038936
92.973709
109.910965
129.055977
136.629939
141.776800
136.924982
123.412609
110.316873
94.245672
81.331730
68.844557
63.209534
58.037639
56.269765
56.088567
56.570768
56.338906
56.045651
56.652427
56.222677
57.138801
56.749582
58.107972
57.562590
57.966709
56.906939
57.003498
55.625439
55.881739
55.452585
55.177808
53.979754
54.032803
##ZVALUE=320
0.719428
0.642538
0.839829
0.889897
0.748634
0.888705
0.858903
0.942945
0.914931
0.997782
0.722408
0.881553
0.921488
1.050830
0.889897
0.990629
0.933409
1.120567
1.058578
1.185536
1.231432
1.153946
1.193881
1.359582
1.439452
1.472831
1.331568
1.525879
1.625419
1.745820
1.814961
1.894832
2.138615
2.019405
2.448559
2.757907
3.005862
3.265738
3.409982
4.119873
4.754663
6.801486
23.728609
148.454309
384.117961
947.763920
1015.829444
1015.829444
1015.829444
1015.829444
1015.829444
1015.829444
1015.829444
1015.829444
1015.829444
1015.830040
716.004372
301.130414
129.210949
42.040944
29.340982
30.140877
33.135414
40.223598
49.788952
68.353415
83.078742
102.458000
118.219852
131.505728
133.855939
130.242705
121.128559
104.267597
91.417432
75.213909
66.325665
58.806539
55.749416
54.048896
53.050518
53.954720
54.735541
55.111647
55.019855
56.262612
55.844784
55.429935
56.207776
56.006908
54.840446
54.756999
53.627491
54.113865
53.807497
53.222775
##ZVALUE=325
0.768900
0.684857
0.826716
0.795722
0.822544
0.839829
0.757575
0.881553
0.994802
1.045465
1.049638
0.810623
0.962615
1.006722
1.001954
1.017451
1.108646
1.066923
1.265407
1.185536
1.147985
0.905991
1.039505
0.893474
1.308918
1.313686
1.362562
1.573563
1.529455
1.756549
1.675487
1.968741
1.905560
1.959801
2.035499
2.321601
2.540946
2.605915
3.026724
3.405809
3.592968
4.181862
4.734397
5.643964
12.742877
98.149776
276.182890
732.061863
1015.866995
1015.866995
1015.866995
1015.866995
1015.866995
1015.866995
1015.866995
1015.866995
1015.866995
1015.866995
956.802964
425.232649
198.830962
59.058666
28.466582
24.863482
26.181936
30.779839
36.606789
48.241615
61.618686
84.910989
99.885464
117.154717
126.694441
129.460692
123.785734
111.637712
99.141598
84.005594
72.873831
63.000917
57.247877
53.634644
52.798986
52.853823
52.921772
53.537488
54.133534
54.403543
54.029822
53.980947
53.659678
53.275824
53.329468
52.824616
52.417517
51.826835
##ZVALUE=330
0.693798
0.748634
0.692606
0.650883
0.842810
0.737906
0.800490
0.819564
0.878572
0.841618
0.896454
1.025796
0.794530
0.890493
0.982881
0.697970
0.825524
1.181960
1.148582
1.107454
1.040697
1.135468
1.161695
1.294613
1.120567
1.174808
1.168847
1.337528
1.430511
1.454949
1.484752
1.712441
1.650453
1.916885
1.856685
2.095699
2.243519
2.108812
2.293587
2.589822
3.043413
3.316998
3.413558
4.257560
4.291534
5.140901
7.307529
41.538477
151.099563
534.986854
977.263451
1015.829444
1015.829444
1015.829444
1015.829444
1015.829444
1015.829444
1015.829444
1015.829444
1015.830040
1015.830040
608.534813
302.792788
101.753473
39.702654
23.752451
24.056435
26.356578
30.586720
39.037466
48.125982
63.875914
78.619719
98.825693
111.246705
120.744705
121.879578
118.796825
109.706521
94.965696
83.024502
71.057677
63.893795
57.515502
55.007935
52.417517
52.687526
52.363873
52.521825
51.687956
52.113533
52.107573
52.144527
50.891638
51.453710
51.108599
##ZVALUE=335
0.754595
0.662804
0.624657
0.796914
0.663996
0.723600
0.700951
0.743866
0.750422
0.827909
0.707507
0.920892
0.869632
1.021624
0.956655
1.131892
0.960827
0.883937
0.914931
1.056790
1.045465
1.107454
0.949502
1.240969
1.122952
1.199841
1.435876
1.366735
1.489520
1.448989
1.376867
1.398921
1.678467
1.701713
1.732707
1.698732
1.761913
2.078414
2.176762
2.401471
2.420545
2.470613
2.856851
3.074408
3.310442
3.899932
4.479885
5.052686
5.961657
18.671751
79.240799
347.334743
747.349858
1015.829444
1015.829444
1015.829444
1015.829444
1015.829444
1015.829444
1015.829444
1015.829444
1015.829444
1015.829444
939.628482
491.449833
160.863996
61.256886
26.741624
25.225878
27.348995
29.094815
33.976436
39.736629
52.117705
63.247681
81.287622
93.749762
108.628869
114.774704
117.652416
114.785433
104.203820
94.158649
81.916451
73.586702
64.559579
57.473779
53.329468
51.911473
51.072836
49.757957
49.692988
49.471855
49.575567
49.587488
49.063563
##ZVALUE=340
0.746846
0.753999
0.696778
0.601411
0.779629
0.615716
0.697970
0.795722
0.878572
0.793934
0.763535
0.816584
0.966787
0.936985
0.872612
1.031756
0.896454
0.915527
0.914931
0.996590
0.961423
1.081824
1.025796
1.099706
1.198649
1.038909
1.062751
1.265407
1.214743
1.329780
1.500845
1.518726
1.565814
1.574755
1.585484
1.664758
1.848936
1.737475
1.840591
2.015829
2.146959
2.312660
2.472997
2.620816
2.705455
3.086925
3.402829
4.062653
4.445910
4.958510
5.645752
9.928942
41.487813
232.622623
578.438640
1015.829444
1015.829444
1015.829444
1015.829444
1015.829444
1015.829444
1015.829444
1015.829444
1015.829444
1015.829444
1015.829444
677.656531
262.806416
99.463463
32.547712
27.492642
28.516650
29.884577
32.492876
34.678578
41.844845
50.078630
62.861443
75.239539
92.039704
102.884769
112.537742
114.215612
110.637546
103.626847
91.876984
81.829429
69.291592
62.747598
56.140423
52.234530
49.137473
48.234463
47.788620
47.475696
47.290921
##ZVALUE=345
0.669956
0.793934
0.630617
0.728965
0.801682
0.775456
0.839829
0.719428
0.821948
0.889897
0.836849
0.949502
0.987649
0.957847
1.060963
0.844598
0.943542
0.975728
1.008511
0.904799
0.941753
1.026988
1.172423
1.132488
1.147985
1.084805
1.259446
1.101494
1.239777
1.227856
1.232624
1.091957
1.342893
1.454949
1.350641
1.621842
1.708865
1.654625
1.757741
2.054572
1.912713
2.063513
2.116561
2.353787
2.453923
2.844930
2.928972
3.146529
3.502965
3.901720
4.403591
4.869699
5.468726
6.942749
18.493533
139.224529
398.261547
976.039767
1015.829444
1015.829444
1015.829444
1015.829444
1015.829444
1015.829444
1015.829444
1015.829444
1015.829444
1015.829444
950.457454
379.023552
161.611438
51.211715
31.203628
29.947758
29.621720
30.395985
31.307936
34.394860
39.435625
48.632622
59.490800
74.762702
85.466504
96.571445
102.576613
107.637644
105.011463
98.154545
90.055466
77.886581
69.799423
58.111548
53.771734
48.995614
47.105551
45.681596
##ZVALUE=350
0.831485
0.859499
0.846982
0.867844
0.779629
0.832677
0.874996
0.864863
0.944734
0.868440
0.778437
0.814795
1.077652
0.899434
1.136661
0.924468
1.111627
0.980496
0.959635
1.037717
0.993609
0.950694
1.032948
1.125932
1.225471
1.237988
1.205802
1.288652
1.130700
1.116991
1.298785
1.353621
1.388788
1.341701
1.497865
1.650453
1.579523
1.451969
1.676679
1.939535
1.756549
1.768470
2.199411
2.206564
2.238750
2.522469
2.788901
2.855659
3.004670
3.272891
3.546476
3.850460
4.274845
4.935861
5.555749
6.642938
9.284616
61.581731
221.732855
736.730695
1015.829444
1015.829444
1015.829444
1015.829444
1015.829444
1015.829444
1015.829444
1015.829444
1015.829444
1015.829444
1015.829444
591.446757
267.324448
69.782734
32.956600
28.472543
27.766824
27.911663
28.563738
30.689836
33.570528
39.400458
45.558810
55.519938
65.317750
78.632832
87.964535
96.847415
99.208951
97.005963
91.991425
81.433654
73.756576
64.366460
56.869984
49.999952
##ZVALUE=355
1.026988
1.015663
1.026988
0.990629
0.994802
0.997782
1.059771
1.042485
1.098514
1.070499
0.985861
0.887513
1.063943
1.119971
1.168847
1.126528
1.081824
1.241565
1.072884
1.024604
1.218915
1.231432
1.258850
1.181960
1.466870
1.300573
1.355410
1.328588
1.329780
1.396537
1.517534
1.325607
1.531839
1.561642
1.557469
1.735687
1.764894
1.849532
1.782775
1.799464
1.937747
1.970530
1.874566
2.275705
2.425909
2.312660
2.479553
2.850890
2.894998
3.039837
3.123879
3.674626
4.003644
4.369617
4.634857
4.708767
5.593896
6.203651
7.791519
18.014908
125.122070
391.278863
1015.830636
1015.830636
1015.830636
1015.830636
1015.830636
1015.830636
1015.830636
1015.830636
1015.830636
1015.830636
1015.830636
883.513689
327.825546
133.479834
39.269924
27.213693
26.507974
26.461482
27.745962
28.385520
29.893517
32.304525
36.655664
41.479468
51.279664
59.543848
70.903897
79.445839
88.106990
90.290904
89.362860
85.293651
76.792836
70.460439
##ZVALUE=360
1.228452
1.271963
1.222491
1.136661
1.183748
1.104474
1.253486
1.312494
1.276731
1.176000
1.177788
1.380444
1.281500
1.342893
1.334548
1.324415
1.352429
1.517534
1.471639
1.436472
1.574755
1.581907
1.703501
1.487732
1.337528
1.684427
1.543760
1.656413
1.767874
1.703501
1.719594
1.876950
1.965761
1.995564
1.994967
1.952648
2.028942
2.066493
1.958609
2.074838
2.037883
2.188683
2.304912
2.418756
2.675653
2.526641
2.843738
3.016591
2.899766
3.404617
3.500581
3.512502
3.816485
4.077554
4.147887
4.680753
4.978776
5.325675
6.300807
7.092953
8.066893
13.120770
44.027567
226.400495
597.480536
1015.958786
1015.958786
1015.958786
1015.958786
1015.958786
1015.958786
1015.958786
1015.958786
1015.958786
1015.958786
1007.400751
573.137999
200.032592
71.786642
28.568506
26.351810
26.286840
26.245713
26.774406
27.582645
28.067827
29.942989
33.145547
36.824942
44.080615
51.879883
62.510967
70.600510
78.760982
81.537962
82.551837
##ZVALUE=365
1.132488
1.103878
0.989437
1.079440
1.014471
1.165867
1.125932
1.202822
1.258850
1.123548
1.126528
1.236796
1.063943
1.170635
1.103878
1.429915
1.400709
1.252890
1.342893
1.421571
1.424551
1.497865
1.455545
1.516938
1.376867
1.519918
1.550913
1.648664
1.526475
1.660585
1.596808
1.537800
1.619458
1.930594
1.942515
1.820922
2.056956
1.929998
2.055764
2.214909
2.241731
2.132654
2.317429
2.364516
2.381802
2.519488
2.489686
2.784729
2.737641
2.955794
2.986789
3.118515
3.401637
3.679991
3.681779
4.018545
4.407763
4.647970
5.032420
5.730987
6.526709
7.336736
8.075833
9.853840
19.967556
119.321942
364.787579
1004.079580
1015.829444
1015.829444
1015.829444
1015.829444
1015.829444
1015.829444
1015.829444
1015.829444
1015.829444
1015.830040
888.374448
313.895941
119.791627
33.914447
25.476813
24.684668
24.295449
24.552941
24.815798
25.179982
25.191903
26.959777
29.148459
32.956600
37.547946
45.570731
52.556992
62.182546
##ZVALUE=370
1.112819
1.240969
1.107454
1.262426
1.199841
0.986457
1.156926
1.147985
1.277924
1.064539
1.108646
1.379848
1.215935
1.304746
1.026988
1.371503
1.379848
1.384616
1.291633
1.221895
1.359582
1.307726
1.236796
1.428723
1.345873
1.458526
1.615882
1.601577
1.602769
1.608729
1.720786
1.478791
1.648664
1.594424
1.742840
1.733899
1.984835
1.812577
1.951456
1.934767
1.790524
1.967549
2.050996
2.062917
2.248883
2.393723
2.329946
2.475977
2.365708
2.438426
2.606511
2.760887
2.591610
2.981424
3.119707
3.395677
3.429651
3.896952
3.906488
4.284978
5.017519
5.365610
5.843639
6.427765
6.907582
8.451939
11.780858
60.407519
220.417976
792.074800
1015.830636
1015.830636
1015.830636
1015.830636
1015.830636
1015.830636
1015.830636
1015.830636
1015.830636
1015.830636
1015.830636
449.687839
191.088915
57.854652
27.844906
23.145676
22.770762
22.308826
22.642612
22.814870
22.707582
23.188591
24.181604
26.291609
29.367805
34.387708
##ZVALUE=375
1.125932
1.066923
0.985861
1.171827
1.090765
1.197457
1.039505
1.016855
1.153946
1.087785
1.010895
1.215935
1.323819
1.177788
1.156926
1.043677
1.245737
1.184940
1.301765
1.155734
1.159906
1.328588
1.280904
1.290441
1.474619
1.399517
1.327991
1.367927
1.364946
1.371503
1.444817
1.434684
1.475811
1.412630
1.443624
1.648664
1.738667
1.672506
1.690984
1.748800
1.755953
1.710653
1.751781
1.670718
1.882911
2.023578
1.946688
2.008677
2.241731
2.101660
2.158880
2.343655
2.370477
2.599955
2.578497
2.933741
2.826452
3.114939
3.063679
3.494620
3.761649
3.953576
4.447699
4.733801
5.066991
5.707741
6.587505
7.804632
9.734631
31.375885
117.897987
472.497940
980.112553
1015.829444
1015.829444
1015.829444
1015.829444
1015.829444
1015.829444
1015.829444
1015.829444
1015.829444
1015.829444
888.669491
409.326553
113.657713
40.442944
23.062825
22.196770
21.830797
21.349788
20.883679
20.864606
21.362901
21.456480
22.583604
##ZVALUE=380
1.053810
0.992417
0.869632
0.864863
0.806451
0.940561
0.741482
0.916719
0.943542
0.939965
1.098514
1.129508
1.040697
1.080632
0.953674
1.110435
0.991821
1.081824
1.211762
1.194477
1.094937
1.136661
1.125932
1.205802
1.180768
1.168847
1.229644
1.280904
1.269579
1.232624
1.330972
1.281500
1.351833
1.395941
1.266599
1.290441
1.244545
1.282692
1.440644
1.473427
1.590848
1.481771
1.502633
1.558661
1.732707
1.745820
1.778603
1.764894
1.791716
1.825690
1.940727
1.943707
2.128482
2.114773
2.151728
2.564788
2.456903
2.671480
2.724528
3.008842
3.196597
3.304482
3.608465
3.750920
4.150867
4.838705
5.367994
6.184578
7.071495
8.724928
10.193586
17.047524
62.935352
332.286954
824.282765
1015.795469
1015.795469
1015.795469
1015.795469
1015.795469
1015.795469
1015.795469
1015.795469
1015.795469
1015.795469
1015.796065
824.891925
247.849822
81.236959
26.310682
21.390915
20.443797
19.737482
19.234419
19.646883
19.365549
##ZVALUE=385
0.896454
0.911951
0.882745
0.787973
0.838637
0.935793
1.010895
0.940561
0.936985
0.954866
1.137853
1.004934
1.144409
1.057982
0.879765
0.985861
1.125932
1.013875
1.149774
1.096725
0.993609
0.953674
1.118779
1.085997
1.115799
1.197457
1.011491
1.082420
1.230836
1.153946
1.184940
1.208782
1.122952
1.221895
1.338720
1.117587
1.232624
1.303554
1.359582
1.484752
1.562834
1.474619
1.373887
1.419783
1.609921
1.582503
1.461506
1.611710
1.797676
1.875758
1.819730
1.881719
1.942515
2.228618
2.113581
2.272725
2.303720
2.475977
2.491474
2.626777
2.675653
2.798438
3.019571
3.238916
3.653765
3.998876
4.540682
5.067587
5.764961
6.660819
7.535815
8.660555
9.539723
11.711717
32.523870
197.158456
539.140701
1015.829444
1015.829444
1015.829444
1015.829444
1015.829444
1015.829444
1015.829444
1015.829444
1015.829444
1015.829444
1015.829444
1015.830040
610.696673
218.133926
40.799975
21.728873
19.557476
18.680692
18.560886
##ZVALUE=390
0.830889
0.907779
0.916719
0.780821
0.987649
0.966787
0.841618
0.936985
0.965595
1.155734
0.885725
0.918508
0.970960
0.996590
1.006722
0.871420
1.091957
1.017451
0.897646
1.120567
1.144409
1.017451
0.946522
0.964999
1.180768
1.135468
1.032948
1.055598
1.143813
1.156926
1.233816
0.944734
1.200438
0.978708
1.121759
1.188517
1.219511
1.180768
1.242757
1.179576
1.421571
1.395941
1.404881
1.589656
1.557469
1.537800
1.629591
1.556873
1.750588
1.593828
1.773834
1.758933
1.861453
1.766682
1.940727
1.981854
2.093911
2.196431
2.232790
2.422929
2.631545
2.793670
2.775788
2.888441
3.363490
3.522635
3.897548
4.499555
5.171895
5.925894
6.457567
7.170439
7.732511
8.381605
8.734465
10.187626
17.375946
109.825730
364.302397
1015.829444
1015.829444
1015.829444
1015.829444
1015.829444
1015.829444
1015.829444
1015.829444
1015.829444
1015.829444
1015.829444
1015.829444
932.973027
418.117642
85.897446
26.765466
18.842816
##ZVALUE=395
0.776649
0.814795
0.998974
0.801682
0.862479
0.905991
0.959635
0.877976
0.849962
0.974536
0.945926
0.987649
0.985861
0.942945
0.933409
0.951886
1.108646
0.926852
0.959635
0.982881
1.089573
1.062751
1.179576
1.136661
1.207590
1.033545
1.108646
1.052618
1.186728
1.220703
1.139641
1.159906
1.009703
1.193881
1.253486
1.194477
1.204610
1.293421
1.409650
1.303554
1.266599
1.463890
1.393557
1.449585
1.522899
1.471639
1.555681
1.559854
1.617670
1.593828
1.785755
1.797676
1.813769
2.013445
1.881719
1.889467
2.126694
2.106428
2.239943
2.201796
2.637506
2.598763
2.834797
2.848506
3.010631
3.431439
3.595948
4.099607
4.906654
5.320907
5.831718
6.347895
6.597638
6.887913
6.891489
7.589459
8.130670
9.176731
12.222528
67.539811
257.492661
907.315612
1015.874743
1015.874743
1015.874743
1015.874743
1015.874743
1015.874743
1015.874743
1015.874743
1015.874743
1015.874743
1015.874743
1015.874743
630.510449
180.449486
##ZVALUE=400
0.904799
0.774860
0.864863
0.742674
0.836849
0.759959
0.873804
0.786781
1.021624
0.876784
0.876784
0.904799
0.841618
0.802875
0.790954
0.868440
0.713468
0.798702
0.767708
0.910759
0.866652
0.922680
1.072884
1.013875
0.884533
0.922680
1.110435
1.022816
1.002550
1.032948
1.266599
1.024604
1.030564
1.067519
1.021624
1.213551
1.115799
1.177788
1.092553
1.407862
1.221895
1.346469
1.295805
1.333952
1.319647
1.498461
1.512766
1.463890
1.438856
1.644492
1.854897
1.637936
1.563430
1.955628
1.903772
1.856685
1.885891
1.816750
2.018809
1.996756
2.144575
2.310872
2.446771
2.644658
2.813935
3.173947
3.420711
3.938675
4.172921
4.782677
5.035996
5.447865
5.664825
6.085634
5.737543
6.076694
6.117821
6.888509
7.469654
8.983612
10.617971
36.130548
143.785477
545.368791
1015.829444
1015.829444
1015.829444
1015.829444
1015.829444
1015.829444
1015.829444
1015.829444
1015.829444
1015.829444
1015.829444
1015.829444
##END
