##TITLE=SH751
##FORMAT=SPECTACLE-ASCII V-1.2
##DATA TYPE=ULTRAVIOLET SPECTRUM
##SECOND TYPE=ULTRAVIOLET SPECTRUM
##DATE=12/26/17
##TIME=17:28:06
##SPECTROMETER/DATA SYSTEM=SPECTACLE
##XUNITS=NM EM
##YUNITS=ENERGY
##YFACTOR=1
##FIRSTX=220
##LASTX=410
##NPOINTS=96
##3DDATA=Equidistant
##ZUNITS=NM EX
##FIRSTZ=210
##LASTZ=400
##ZPOINTS=39
##XYDATA=(Y..Y)
##ZVALUE=210
9.011626
7.851720
6.305575
7.105470
4.956722
6.787777
6.266832
5.201697
5.037785
4.675984
3.188848
2.827644
3.016591
2.346635
2.437830
3.053546
3.010631
2.618432
3.341436
2.731681
2.934933
3.612638
4.022717
3.512502
4.115701
4.093647
3.714561
4.665852
4.632473
4.617572
4.929900
4.560947
5.105734
5.509853
5.680919
5.491972
5.752444
5.946755
6.364584
6.967783
6.488562
6.341934
6.122589
6.018877
6.286502
5.713701
5.851984
5.999804
7.408857
5.885959
6.489754
6.574988
6.044507
6.572604
7.348657
6.625652
6.603599
6.895661
7.806420
6.674528
6.424785
7.188916
7.921457
6.904602
7.145405
7.691979
7.897615
10.043979
9.718537
11.015534
13.441443
17.626882
18.611550
20.736456
21.891594
21.893978
21.038651
20.821691
20.681620
20.251870
17.597675
16.817451
15.087724
13.174415
9.911656
9.762645
8.849502
8.319616
7.533431
7.627606
8.654594
10.349751
9.268522
10.548830
12.995601
12.890697
##ZVALUE=215
29.800534
27.095675
21.945834
19.213557
13.930798
11.475682
11.019707
9.918809
9.899735
11.545420
8.303523
6.777644
5.837679
4.906654
4.183650
3.244877
3.609657
3.103614
3.217459
2.752542
3.491640
3.758669
3.918409
3.720522
4.449487
4.530549
4.414916
5.236864
4.610419
5.264878
5.113482
5.492568
5.008578
6.135702
5.806684
6.657839
6.554723
5.863905
6.636977
6.372929
6.613731
6.406903
6.795526
5.966425
6.365776
6.050467
7.573962
6.748438
6.389618
7.397532
7.021427
8.072853
7.164478
7.737875
7.734895
7.360578
7.502437
7.512569
7.782578
8.068681
6.756783
6.679893
7.867813
7.958412
7.069707
8.065701
9.423494
9.472966
10.404587
11.890531
13.558865
15.565753
17.642975
19.352436
19.969940
19.977689
22.058487
20.970702
18.545985
17.966628
17.522573
14.416575
14.460683
13.603568
11.286736
9.429455
8.142591
8.066893
8.022785
7.722974
7.150769
8.553863
7.930994
7.170439
8.643866
10.161996
##ZVALUE=220
81.743598
77.253580
80.147982
67.716837
56.469440
40.608644
32.191873
23.946762
19.849539
17.351508
19.543767
19.391775
17.491579
16.400814
11.777878
9.510517
7.157922
4.841685
4.011989
3.652573
3.808737
4.276633
3.630519
4.286766
4.045963
5.346537
5.294681
4.640818
6.201863
5.285740
5.229712
6.245971
6.921887
6.522536
6.752610
6.786585
6.470680
6.576777
8.298755
7.715821
7.387996
7.915497
7.884502
7.343888
8.369684
7.234812
7.799864
6.401539
7.384419
7.475615
7.864833
7.991791
7.975698
8.377433
7.633567
8.909702
7.133484
7.814765
8.817911
8.721948
8.705854
8.046627
8.197427
8.627772
9.454489
9.882450
9.543896
9.957552
11.750460
11.701584
14.187694
16.440749
18.294454
20.089746
19.556880
21.874905
21.356940
21.507740
20.642877
19.153953
18.593669
16.822815
14.992952
13.499856
10.708570
11.068583
10.176897
8.838773
9.226799
7.928610
9.439588
9.207726
8.792877
8.017421
8.122921
7.783771
##ZVALUE=225
112.726688
116.509795
139.127970
157.306790
159.666538
143.772960
120.008588
90.523958
63.678622
47.951937
35.073757
31.340718
33.315420
33.632517
31.962991
28.975606
22.999644
17.568469
15.182495
9.582639
6.814599
4.870892
4.337430
5.232692
4.596710
4.886985
5.273819
5.986691
5.914569
6.797910
6.170869
6.578565
6.679893
6.871819
7.757545
7.874966
7.830858
7.539988
6.891489
7.520914
7.297993
8.766651
7.994771
8.081794
7.788539
9.221435
7.575750
8.779764
8.378625
7.819533
8.100867
8.946657
9.439588
8.080602
9.311438
8.990765
9.468794
8.949637
8.431673
9.389520
10.064840
9.530783
9.797812
10.378957
9.542704
10.906458
10.071993
11.586547
12.486577
13.596416
14.893413
16.921759
17.732978
19.171834
22.072792
20.682812
20.155907
19.395947
19.337535
19.173622
16.618967
16.564727
14.908910
12.993813
13.205409
10.954738
11.224747
10.373592
9.625554
9.955764
11.102557
10.844469
9.638667
9.300709
8.985996
9.845495
##ZVALUE=230
79.289675
85.189939
127.174854
195.080638
246.347785
285.402536
300.055742
276.455879
240.206718
190.645456
125.945807
83.165765
59.658885
53.124428
53.646564
56.393743
57.743788
54.053664
46.407580
37.330985
28.587580
19.880533
13.638735
8.738637
6.207824
6.295443
6.073713
5.772710
5.606413
5.916953
6.700754
7.074475
6.712675
6.840825
7.817745
7.833838
7.513762
7.468462
7.509589
7.898808
7.536411
7.948875
9.097457
7.822514
8.433461
9.327531
7.412434
8.087754
9.378791
9.469986
9.839535
9.673834
8.780956
11.015534
10.498762
11.486411
10.839701
11.027455
10.553598
10.398626
10.523796
11.193752
10.693669
11.925697
12.026429
11.856556
12.328625
13.245940
14.327765
15.858412
15.447736
20.524859
20.891428
20.431876
22.800565
23.122430
22.534728
21.788478
21.282434
20.626783
20.092726
18.769503
17.309785
15.037656
14.705658
14.462471
13.201833
12.893677
11.817813
11.755824
10.972619
12.666583
11.704564
11.818409
11.399984
11.265874
##ZVALUE=235
22.648573
26.278496
53.852797
122.670531
194.045901
307.226777
391.830802
481.332541
512.977839
500.960946
412.504673
348.466635
214.406848
151.614547
99.648833
82.181692
73.903799
79.569817
80.902576
83.073974
76.237917
61.565638
51.612854
34.786463
24.365783
16.300678
10.403991
8.427501
7.102489
6.889701
7.506609
7.368922
6.007552
7.325411
7.791519
7.937551
7.042885
8.605719
8.562803
8.722544
8.794665
7.528663
8.588433
8.870959
8.874536
8.906722
10.464787
8.478761
9.306669
9.277463
10.101795
10.460615
9.970665
10.611415
11.370778
10.746717
11.897683
10.386705
11.016726
10.791421
11.452436
12.166500
12.190938
12.403727
11.436939
14.115572
14.539957
15.248656
16.583800
18.462539
18.751621
23.326874
23.379922
24.151802
24.548769
25.707483
25.909543
23.570657
22.763610
23.314953
22.241473
19.794703
19.636750
17.506480
17.411709
16.698837
14.777780
15.558600
15.312433
15.754700
14.120936
14.505982
13.961792
14.345646
14.456511
14.037490
##ZVALUE=240
2.564788
2.479553
8.419752
23.758411
68.207979
125.726461
243.944526
383.644700
563.073754
683.384538
753.663778
724.182725
651.545525
501.573682
382.910967
235.080719
170.286894
116.529465
100.848675
100.669861
109.519958
115.178823
111.390948
96.300840
80.909729
66.123605
43.050647
29.490590
20.677447
14.531612
10.321736
8.456707
9.163618
8.913875
8.091927
9.458661
9.082556
8.445978
8.355975
9.110570
8.243918
8.545518
7.617474
9.181499
8.661747
8.162856
8.616447
8.812547
9.551644
8.900762
10.677576
10.576844
9.739995
10.493994
9.661913
9.542704
10.627508
11.410713
10.826588
12.391806
10.787845
12.005568
12.778640
13.123751
13.029575
13.897419
13.962984
15.047789
17.021894
18.901825
19.385815
21.224618
24.777651
25.750995
26.706457
28.134584
27.010441
26.400685
23.964643
23.329854
22.378564
20.295978
19.445419
19.505620
17.877817
18.228889
18.441677
16.701818
17.824769
15.285611
17.467737
15.814900
14.422536
15.902519
15.370846
14.957786
##ZVALUE=245
1.492500
2.091527
1.681447
1.699924
5.713701
15.830994
51.956773
108.205676
237.926841
369.864702
579.350591
720.611811
834.252834
860.515833
815.997720
662.922859
522.181988
347.500443
236.786008
144.147873
110.308528
98.081827
111.772418
123.561621
125.591755
121.051669
107.426643
90.288520
65.996647
51.396489
31.670928
24.099946
15.906692
10.853410
8.619428
8.236766
7.679462
7.805824
7.987618
7.589459
7.782578
8.039474
8.567572
8.252859
8.332729
7.915497
8.060932
8.161664
7.831454
8.558631
8.013844
8.905530
9.437799
9.237528
9.138584
8.312464
9.189844
10.194778
9.969473
10.058880
10.317564
10.069609
10.758638
10.632873
11.149645
11.518598
12.808442
12.913942
13.894439
14.445782
17.489791
18.958449
18.661618
20.884871
21.257997
22.154450
22.258759
21.927953
21.767616
19.398928
18.722415
18.198490
17.690659
15.855432
17.140508
15.520453
15.209913
15.327930
15.478730
15.684962
15.565753
14.266968
14.565587
15.347600
14.831424
14.184713
##ZVALUE=250
1.602769
1.595616
1.639724
1.231432
1.453757
1.938939
2.255440
10.848641
31.305552
73.908567
187.232494
335.346460
564.365983
725.553036
902.521610
973.524451
965.481997
861.054659
726.704597
493.197441
337.485671
185.174942
125.653744
95.319748
100.475550
120.990872
129.932761
132.764578
129.493475
116.369724
99.482536
73.909760
53.712726
34.676790
23.222566
13.725758
10.932684
8.461475
7.096529
8.306503
7.836819
7.346869
6.954670
7.281899
7.383823
7.014871
7.468462
8.563995
7.268786
7.204413
7.637739
7.565618
7.812977
7.298589
8.053780
7.989407
9.164810
8.503795
8.969903
9.468794
8.059740
9.065866
10.009408
9.203553
9.285808
9.972453
10.969639
11.642575
11.027455
12.423992
13.260841
15.556812
17.184615
19.325614
18.771887
19.029975
19.222498
18.508434
17.581582
18.227696
16.039610
15.279651
15.732646
14.289618
13.863444
13.206601
12.728572
13.467669
14.058948
14.454722
12.249947
13.416409
12.926459
12.377501
12.635589
13.403893
##ZVALUE=255
1.012683
1.020432
1.096725
1.128912
1.688600
1.362562
1.538992
1.411438
2.619624
5.163550
25.558472
65.228939
132.717490
296.488404
474.259853
732.494593
914.168954
1015.759706
1015.759706
1015.759706
889.966488
701.029897
423.440933
269.429684
141.356587
101.660490
87.434649
100.215673
122.767687
132.937431
145.551562
140.803456
129.469633
100.885630
79.227686
52.932501
37.236810
21.701455
14.215708
9.679794
7.749796
6.867647
6.985664
7.039905
7.518530
7.260442
7.255673
7.584691
7.249713
8.194447
6.909966
7.331967
7.144809
7.407665
6.966591
8.224845
8.104444
7.621646
8.345842
8.087754
8.106828
7.987618
8.988976
8.051991
8.116961
8.958578
9.167790
9.817481
11.298656
11.157990
11.943579
12.551546
15.169978
15.983582
16.388893
15.763640
15.297532
16.002655
15.114546
14.116764
15.062690
13.374686
13.441443
12.765527
12.404919
12.414455
11.213422
11.866689
11.703968
11.657476
11.785626
12.101531
11.538863
12.669563
10.483861
11.707544
##ZVALUE=260
1.210570
1.532435
0.841618
1.368523
1.144409
1.215935
1.607537
1.507998
1.698732
1.738667
1.834631
2.715588
13.687611
37.275553
108.522773
218.024850
458.049774
673.768520
890.443921
1015.829444
1015.829444
1015.829444
1015.829444
856.888890
616.706610
357.671976
224.248767
122.187734
88.820457
84.744692
98.973513
126.171708
141.153932
146.553516
142.682791
126.014948
104.519725
79.100728
57.268739
35.967827
24.785995
13.577938
9.798408
7.975698
7.312894
7.706881
7.209778
6.994605
7.567406
6.761551
6.483793
7.200837
7.040501
6.909966
7.922649
7.340908
7.311702
7.515550
7.569790
7.660985
7.599592
7.959604
7.742643
7.534623
8.382797
8.398890
8.133650
9.442568
10.019541
10.457635
10.908842
12.236834
13.354421
13.495684
13.597608
13.722777
13.391972
13.744831
13.096929
12.462735
12.443662
12.290478
11.104941
10.623932
10.448694
11.149645
10.372996
10.442734
10.560751
10.756850
10.501742
10.981560
10.838509
10.558963
11.061430
10.284781
##ZVALUE=265
0.866652
0.744462
1.076460
1.030564
1.189709
1.191497
1.338720
1.097918
1.529455
1.581907
1.576543
1.748800
1.797676
2.274513
6.204844
29.903650
73.610544
190.176964
351.381898
666.479468
935.744643
1015.830636
1015.830636
1015.830636
1015.830636
1015.830636
758.875608
523.732901
285.947919
169.599652
92.850924
73.314905
81.240535
109.397769
131.090879
148.049593
154.142976
144.016743
131.500959
104.519725
82.084537
56.336522
37.225485
21.849871
14.137626
9.923577
7.822514
7.144809
7.669926
7.888675
7.022619
7.266998
7.143617
7.643700
7.392764
7.471442
7.036924
7.732511
7.278919
7.392764
7.422566
7.410645
7.352829
7.547736
7.598996
8.222461
7.891655
8.713603
8.892417
10.048747
10.228753
11.392832
10.617971
11.935830
13.031960
12.426972
12.336969
12.407899
12.285709
11.861920
11.427999
11.045933
10.397434
10.948777
10.542870
9.982586
9.823442
10.029674
9.460449
9.943843
10.403991
10.092854
9.396672
9.869933
10.224581
9.750724
##ZVALUE=270
0.804663
1.014471
1.100898
0.880957
0.819564
0.816584
1.031756
1.261830
1.223683
1.083612
1.282692
1.403689
1.658797
1.542568
1.711845
1.834631
2.869964
12.405515
39.612651
127.698779
262.065530
463.433862
816.859007
1015.830636
1015.830636
1015.830636
1015.830636
1015.830636
974.152088
727.477670
511.521697
260.144472
144.702792
71.467757
64.743757
84.233880
105.284452
129.928589
147.046447
154.816508
148.237944
129.234791
108.176470
79.525709
58.414936
36.489964
24.183989
15.175939
10.795593
8.122921
7.770658
7.316470
6.803870
7.230639
7.228851
7.667542
7.395744
7.334948
6.862879
7.485747
7.280707
7.494688
7.344484
7.635951
7.155538
7.846951
8.130670
7.932782
8.694530
9.308457
9.481907
11.034608
10.648966
11.818409
11.956692
10.812879
11.699796
10.743737
10.772943
9.969473
9.869933
9.902716
9.307861
9.467602
9.070635
9.336472
9.570718
9.519458
9.169579
9.412766
9.338856
8.923411
8.955598
9.513497
8.726716
9.029508
##ZVALUE=275
0.914931
0.918508
0.684857
0.615716
0.797510
0.915527
1.131892
1.177788
0.962615
0.925660
1.230836
1.238585
1.357794
1.197457
1.540780
1.288652
1.389980
1.702905
2.037883
6.067753
24.001598
69.625974
208.347440
395.521522
737.180710
988.827944
1015.829444
1015.829444
1015.829444
1015.829444
1015.829444
930.255651
656.074882
339.748859
192.705989
81.792474
54.626465
60.738921
79.856515
108.686686
128.334761
147.251487
152.741671
146.257877
133.219957
103.921890
83.394647
59.795976
41.764975
24.033785
17.192960
10.801554
9.246469
7.214546
7.644892
7.588863
7.561445
7.376671
7.679462
7.177591
7.895827
7.289648
7.690787
8.199811
8.156896
7.921457
7.847548
7.922649
8.275509
9.533763
9.280443
10.590553
10.536909
11.089444
11.441708
11.732578
11.522770
10.701418
11.060834
10.591745
10.587573
9.998679
9.193420
9.225607
9.095669
8.896589
9.524822
9.473562
8.803606
8.713603
8.458495
9.096861
8.665919
8.724928
8.907914
8.863807
##ZVALUE=280
0.730753
0.757575
0.650883
0.758767
0.758767
0.789762
0.957847
0.818968
0.759959
0.824928
0.884533
0.973940
1.009703
0.980496
1.357794
1.264811
1.409650
1.604557
1.601577
2.038479
2.136827
2.804399
15.987754
52.785873
165.986419
311.505795
588.398576
868.600607
1015.829444
1015.829444
1015.829444
1015.829444
1015.829444
1015.829444
783.155560
435.158014
255.450010
110.334754
58.676600
44.337511
55.140853
81.623793
103.394985
130.135417
144.437551
150.410533
142.291784
126.658678
107.872486
77.874660
58.947802
38.668513
25.919676
15.429854
10.916591
8.119941
7.921457
8.134842
7.543564
7.864833
8.047819
7.845759
7.736683
7.964969
7.852912
7.711649
7.681847
8.050799
8.974671
8.976460
9.126663
10.413527
10.341406
10.736585
11.098981
10.959506
10.426641
10.810494
10.579824
9.549856
9.567738
9.566545
9.312630
8.953810
8.399487
8.485913
9.301901
8.943677
8.296967
8.712411
8.502603
8.407831
8.012652
8.024573
8.781552
8.922815
##ZVALUE=285
0.501871
0.596642
0.699759
0.719428
0.894666
0.664592
0.737906
0.669956
0.839829
0.924468
0.960827
0.998974
0.863671
1.100898
0.851750
1.194477
1.045465
1.330972
1.017451
1.218915
1.433492
1.807809
2.230406
2.252460
7.751584
27.704835
93.143582
196.774602
439.203978
688.911676
962.159634
1015.829444
1015.829444
1015.829444
1015.829444
1015.829444
975.647569
606.308579
375.994444
174.830556
88.558793
39.602518
35.997629
52.439570
73.037744
102.977753
120.903850
139.117837
144.304633
140.421987
128.410459
105.244517
84.749460
58.233738
40.855408
24.216771
16.640425
10.796785
8.696914
7.522702
7.633567
7.243752
7.658601
7.139444
7.494688
7.603765
8.080602
8.340478
8.404851
8.660555
9.204745
9.584427
9.863973
10.187626
10.603666
10.731816
10.184646
9.559989
9.160638
9.451509
9.393692
9.244680
9.259582
9.273887
9.107590
8.877516
8.485913
8.756518
8.660555
8.554459
8.664727
8.375645
8.043647
8.234978
8.661747
8.441806
##ZVALUE=290
0.500679
0.693798
0.657439
0.814795
0.673532
0.560880
0.683665
0.692606
0.673532
0.797510
0.807643
0.691414
0.757575
0.930429
0.979900
0.964999
1.038909
1.016855
0.963807
1.219511
1.327991
1.347661
1.625419
1.693964
1.697540
1.957417
3.162622
12.041926
58.219433
130.487680
304.909945
537.090898
835.585594
1015.829444
1015.829444
1015.829444
1015.829444
1015.829444
1015.829444
781.169534
507.761836
248.451829
123.915672
44.717789
28.422475
34.518838
48.668981
71.242452
91.359615
118.003488
132.645965
141.010880
141.550899
125.537515
106.746554
79.706907
58.123469
37.546754
26.167631
16.123652
11.981726
9.056926
7.972717
7.432699
7.681847
7.503629
7.783771
7.408857
8.312464
8.565784
8.959770
9.508729
9.451509
10.008812
9.915829
9.355545
9.685755
9.466410
9.632707
9.047985
9.006858
9.028912
8.852482
8.775592
9.127855
9.060502
8.954406
9.075999
8.784533
8.610487
8.240938
8.477569
8.724928
8.036494
8.827448
7.942915
##ZVALUE=295
0.651479
0.569820
0.615716
0.584722
0.658631
0.784993
0.555515
0.547767
0.643730
0.547767
0.566840
0.594854
0.670552
0.828505
0.586510
0.745654
0.694990
0.959635
0.874996
0.908971
1.014471
1.133680
1.104474
1.250505
1.342893
1.564622
1.916885
1.956820
2.343655
4.692674
18.857718
81.744790
182.188749
432.181954
697.852969
1015.829444
1015.829444
1015.829444
1015.829444
1015.829444
1015.829444
940.487981
645.668507
336.641669
179.262757
64.085722
30.776858
22.603869
29.346943
47.363639
65.332651
89.953542
108.110905
128.261447
133.540630
131.915808
120.857954
99.512935
79.501867
55.373907
40.463805
24.228692
17.230511
11.428595
8.928776
8.016825
7.510781
7.519722
8.143783
8.367896
8.853674
8.718967
9.005666
9.475946
9.584427
9.792447
9.610653
8.905530
9.299517
9.017587
8.969903
8.864999
8.721948
8.681417
8.888841
8.354783
8.379817
8.712411
8.430481
8.345842
8.679628
8.326769
7.898808
7.840991
7.887483
8.180737
##ZVALUE=300
0.523925
0.475645
0.534654
0.658631
0.739694
0.449419
0.583529
0.403523
0.433922
0.582933
0.588894
0.615716
0.689626
0.734925
0.683665
0.733733
0.612736
0.769496
0.772476
0.871420
0.912547
0.854731
0.832677
1.111627
1.259446
1.163483
1.292825
1.550913
1.715422
1.847744
2.042651
2.490878
11.670589
40.927529
138.957500
275.235772
571.478605
878.134966
1015.829444
1015.829444
1015.829444
1015.829444
1015.829444
1015.829444
782.098770
508.267879
252.265930
133.172870
47.137737
22.334456
19.474626
26.548505
42.900443
58.653951
82.483888
100.729465
120.308995
128.121972
126.246810
117.276907
97.543597
79.484582
57.216883
41.843653
25.426745
17.514825
11.235476
9.155869
8.046627
8.071661
8.394718
8.437634
8.561611
8.669496
8.834600
9.070635
8.949637
8.659959
8.626580
8.661747
8.660555
8.600950
8.421540
8.497834
8.389950
8.566976
8.220673
8.363724
8.325577
8.231997
8.087754
8.020997
7.785559
7.831454
7.900000
7.681847
##ZVALUE=305
0.553727
0.435710
0.609756
0.480413
0.512600
0.472665
0.503659
0.458956
0.666976
0.603795
0.659823
0.609756
0.568628
0.689626
0.565648
0.527501
0.765920
0.686646
0.785589
0.725985
0.726581
0.830889
0.816584
1.014471
1.049638
1.071692
1.190901
1.182556
1.284480
1.399517
1.530647
1.893640
2.067685
2.196431
4.410744
29.648542
83.050728
234.682560
428.969860
794.657469
1015.830636
1015.830636
1015.830636
1015.830636
1015.830636
1015.830636
987.101793
617.002845
380.721688
173.114538
82.231760
27.576685
14.876723
17.521977
25.127530
41.301847
56.620836
80.318451
96.625686
113.100410
120.193958
119.422674
110.773444
93.428493
75.941682
51.279664
37.190914
24.519563
17.047524
11.612773
9.518862
8.764863
8.581877
8.588433
8.893609
8.491874
8.184910
8.310676
7.840991
7.936954
8.160472
8.633733
8.316636
8.121729
8.011460
8.490682
8.212924
7.781982
8.296967
8.249879
7.735491
8.325577
7.828474
7.338524
7.544756
7.478595
##ZVALUE=310
0.368953
0.423789
0.546575
0.525713
0.344515
0.365973
0.523925
0.397563
0.698566
0.277758
0.691414
0.833869
0.618696
0.486970
0.436902
0.508428
0.639558
0.667572
0.588894
0.758767
0.612736
0.538826
0.763535
0.905991
0.913739
0.994802
0.937581
1.102686
1.029968
1.146793
1.398921
1.211762
1.499653
1.795888
1.608729
2.021790
2.409816
12.187958
42.441487
144.262910
284.721851
593.160987
904.784799
1015.829444
1015.829444
1015.829444
1015.829444
1015.829444
1015.829444
840.542912
555.908680
273.128748
140.582919
47.355890
19.168854
12.814999
15.640855
23.490787
33.499599
52.137971
68.347454
91.026425
103.837848
113.683939
114.615560
105.303526
92.787743
73.133707
55.294633
36.582947
26.048422
17.384887
12.919903
9.821653
8.875728
8.242726
7.894635
7.877946
7.809997
7.585883
7.574558
7.650852
7.977486
7.727742
7.880926
8.099675
7.854700
7.963777
7.714629
8.034706
7.741451
7.698536
7.270575
7.332563
7.141829
7.503629
##ZVALUE=315
0.465512
0.503659
0.613928
0.468493
0.560880
0.428557
0.505447
0.584722
0.419617
0.523925
0.527501
0.600815
0.517964
0.679493
0.794530
0.535846
0.626445
0.410676
0.726581
0.523925
0.698566
0.628829
0.868440
0.801682
0.860691
0.928640
0.907779
0.872612
0.969768
1.036525
1.062751
1.057982
1.282692
1.346469
1.467466
1.486540
1.812577
2.073646
2.723932
4.582405
26.801825
79.269409
233.702660
431.593657
832.290649
1015.830636
1015.830636
1015.830636
1015.830636
1015.830636
1015.830636
1015.830636
759.758949
471.760631
206.689835
90.369582
24.339557
12.538433
11.672974
14.285445
21.047592
30.413866
47.447681
62.365532
83.655715
96.791983
107.990503
108.589530
99.048615
87.331533
67.057610
53.504705
36.875606
26.872754
16.779900
12.764931
9.575486
8.426905
7.885695
7.457733
7.111430
7.347465
7.712841
7.580519
7.697940
7.533431
7.481575
7.829666
7.684827
7.564425
7.299781
7.733703
7.606745
7.432699
7.483959
7.098913
##ZVALUE=320
0.290871
0.475645
0.340939
0.395775
0.456572
0.415444
0.411868
0.324845
0.443459
0.398755
0.415444
0.524521
0.463724
0.515580
0.537634
0.613928
0.542998
0.511408
0.601411
0.650883
0.594854
0.762939
0.787973
0.802875
0.745654
0.759959
0.847578
0.797510
0.954866
0.733733
0.847578
0.931621
1.162887
1.186728
1.216531
1.217723
1.329780
1.571774
1.786947
1.707673
2.232790
2.735853
12.821555
45.983791
157.852769
320.886970
640.645623
945.575833
1015.829444
1015.829444
1015.829444
1015.829444
1015.829444
1015.829444
965.856910
622.629523
281.229615
140.632987
45.229793
17.836690
9.778738
10.291934
13.111830
18.105507
29.197931
40.977597
60.228705
74.779987
92.844963
100.480914
102.678537
97.442865
83.257556
69.861412
50.624609
38.178563
24.370551
17.004609
11.225939
8.849502
7.913709
7.709861
7.508993
7.413626
7.515550
7.262826
7.296801
7.111430
7.115602
7.329583
7.489920
7.287860
7.185936
7.184744
7.491708
7.228851
##ZVALUE=325
0.393987
0.439882
0.346899
0.472665
0.317693
0.423789
0.273585
0.456572
0.532866
0.589490
0.359416
0.289679
0.429749
0.570416
0.406504
0.404716
0.562668
0.489950
0.532866
0.593662
0.640750
0.518560
0.530481
0.703931
0.609756
0.633597
0.773668
0.729561
0.727773
0.856519
0.908971
0.969768
1.006722
1.010895
1.068711
1.027584
1.176596
1.323819
1.444817
1.420975
1.353621
1.805425
2.024770
2.381802
5.062819
32.281876
86.757541
231.723785
429.610610
828.424692
1015.826464
1015.826464
1015.826464
1015.826464
1015.826464
1015.826464
1015.826464
696.058869
425.752997
181.280971
81.893802
22.586584
10.655522
8.894801
9.308457
12.874603
17.611980
28.178692
40.266514
58.880448
72.978735
88.036656
95.175505
97.318888
90.728998
76.343417
63.256621
45.579672
34.256577
21.284819
15.229583
10.292530
8.651614
7.893443
7.472634
7.072687
7.069707
7.132888
6.969571
6.975532
7.136464
6.887913
7.039905
6.916523
6.804466
6.976724
##ZVALUE=330
0.401735
0.420809
0.390410
0.358820
0.555515
0.514984
0.354648
0.495911
0.526905
0.443459
0.538826
0.648499
0.513792
0.572801
0.527501
0.622869
0.554919
0.601411
0.657439
0.665784
0.664592
0.481606
0.623465
0.642538
0.850558
0.768900
0.623465
0.844598
0.750422
0.829697
0.740886
0.864863
0.922680
0.892878
1.141429
1.069903
0.975728
1.117587
0.904799
1.310706
1.315475
1.402497
1.618862
1.859665
2.001524
2.313852
3.116727
14.284849
47.267675
161.405802
316.570997
643.642545
957.912803
1015.967727
1015.967727
1015.967727
1015.967727
1015.967727
1015.967727
824.288726
540.401936
256.760716
128.384829
42.489767
15.957952
8.298755
8.313656
9.697676
11.758804
18.212795
25.850534
39.755702
52.374601
70.727468
81.737638
89.835525
89.323521
83.562732
73.239803
57.775974
44.128895
29.742718
22.281408
14.778972
11.456609
8.840561
7.907748
7.221699
6.976724
7.040501
7.010698
6.918907
6.730556
6.745458
6.750822
6.763935
##ZVALUE=335
0.564456
0.422597
0.521541
0.506639
0.278950
0.445843
0.413656
0.525713
0.510812
0.308752
0.520945
0.391603
0.445843
0.447631
0.563860
0.606775
0.536442
0.613928
0.478625
0.566840
0.583529
0.593662
0.634789
0.547767
0.555515
0.558496
0.654459
0.716448
0.719428
0.639558
0.726581
0.850558
0.922680
0.697970
0.943542
0.887513
0.947714
0.992417
0.901818
1.076460
1.181960
1.169443
1.245737
1.424551
1.473427
1.529455
1.718998
1.902580
2.471805
4.687905
30.201674
84.265471
239.176750
433.086753
805.075765
1015.938520
1015.938520
1015.938520
1015.938520
1015.938520
1015.938520
971.817970
597.338676
361.470580
155.391693
70.891976
20.740628
9.590983
7.885695
8.218884
8.933544
11.254549
17.322898
24.226904
37.220716
48.836470
64.813495
75.364709
83.771944
84.560513
77.949762
69.450736
55.170655
44.631958
31.126738
22.963881
15.265942
11.405945
8.401871
7.639527
6.958842
6.797910
6.611943
6.175637
6.323457
6.347895
##ZVALUE=340
0.384450
0.387430
0.414848
0.413656
0.260472
0.413656
0.571609
0.255704
0.291467
0.351667
0.288486
0.323653
0.384450
0.371933
0.458956
0.319481
0.437498
0.454783
0.393987
0.380874
0.419617
0.409484
0.400543
0.505447
0.454783
0.369549
0.508428
0.432730
0.582933
0.549555
0.417829
0.615716
0.845790
0.652671
0.803471
0.654459
0.690818
0.866652
0.717640
0.778437
0.951886
0.969768
0.942945
1.112819
1.203418
1.158714
1.332760
1.396537
1.669526
1.821518
1.993775
3.243685
11.481643
60.554743
150.653720
386.197567
654.693842
1015.043855
1015.830636
1015.830636
1015.830636
1015.830636
1015.830636
1006.734967
734.033585
381.332636
209.378600
81.743002
31.320453
10.012984
8.035898
8.111000
7.901788
9.030700
10.980964
16.588569
23.621917
35.139918
45.494437
61.900616
71.465969
77.442527
78.628659
73.940754
65.742731
53.389668
42.280555
29.479861
22.744536
15.258789
11.138916
8.247495
7.136464
6.573796
6.044507
5.917549
##ZVALUE=345
0.435710
0.319481
0.254512
0.371933
0.284910
0.347495
0.414848
0.388622
0.442863
0.210404
0.206828
0.412464
0.480413
0.494719
0.430942
0.402927
0.392795
0.315905
0.392795
0.462532
0.361800
0.426769
0.629425
0.382662
0.624657
0.544786
0.382662
0.578761
0.464916
0.631809
0.615716
0.688434
0.624657
0.603795
0.544786
0.584722
0.515580
0.820756
0.815988
0.701547
0.716448
0.864863
0.700951
0.820756
0.947714
1.171827
0.957847
1.145601
1.300573
1.327991
1.488924
1.725554
1.980662
2.330542
5.167723
33.004880
94.581842
256.544948
468.694568
867.138505
1015.828848
1015.828848
1015.828848
1015.828848
1015.828848
1015.828848
888.759494
515.953898
287.351608
110.682845
47.799945
15.233755
8.851886
7.895827
7.634759
7.421970
7.788539
10.218620
13.724566
22.121668
31.231642
45.323968
54.520965
64.665675
70.234537
72.788596
70.155859
61.595440
52.920580
40.469766
30.245781
20.793676
15.701652
11.078715
8.114576
7.252693
##ZVALUE=350
0.254512
0.361800
0.434518
0.322461
0.332594
0.417829
0.426769
0.337958
0.281930
0.474453
0.332594
0.523925
0.269413
0.366569
0.339746
0.420809
0.331998
0.457764
0.357628
0.311732
0.427961
0.397563
0.432730
0.502467
0.373721
0.482798
0.639558
0.460744
0.471473
0.417829
0.738502
0.506639
0.432730
0.564456
0.566840
0.618696
0.686646
0.662804
0.672936
0.705719
0.675917
0.905991
0.556707
0.826716
0.761747
0.984669
0.942945
0.937581
0.942945
1.164675
1.074672
1.368523
1.407862
1.680851
1.836419
2.273917
2.920628
16.232729
54.066777
179.370642
346.713662
699.307919
994.208455
1015.823483
1015.823483
1015.823483
1015.823483
1015.823483
1013.029814
623.880625
376.337767
168.682933
75.751543
20.340681
9.681582
7.552505
6.654859
6.832480
6.671548
7.240772
9.253621
14.169812
19.109845
28.052926
36.661625
49.022436
57.162642
65.394640
66.667795
64.121485
58.641434
48.116446
39.192438
27.690530
20.770431
14.396906
##ZVALUE=355
0.348687
0.304580
0.391603
0.379682
0.300407
0.298619
0.328422
0.151992
0.433922
0.291467
0.336766
0.199676
0.402927
0.313520
0.368953
0.301600
0.341535
0.490546
0.457764
0.498891
0.390410
0.504851
0.595450
0.421405
0.328422
0.373721
0.368953
0.419617
0.531673
0.489950
0.483990
0.755787
0.484586
0.547767
0.434518
0.632405
0.559688
0.546575
0.456572
0.675917
0.617504
0.716448
0.745654
0.739694
0.642538
0.802875
0.776649
0.947714
1.055598
0.988841
0.945926
1.258850
1.228452
1.444817
1.571774
1.685619
1.777411
1.863837
2.313852
7.866621
30.073524
124.078393
259.653926
548.977852
877.507925
1015.799642
1015.799642
1015.799642
1015.799642
1015.799642
1015.799642
814.541578
500.997901
212.076902
99.333525
28.353930
11.719465
7.546544
6.780624
6.247759
6.236434
6.381869
6.642938
8.327961
10.863543
16.889572
23.479462
33.205748
41.345954
51.084757
57.358742
61.051846
59.882998
53.915977
47.437549
37.283897
##ZVALUE=360
0.421405
0.341535
0.300407
0.287890
0.400543
0.450611
0.477433
0.359416
0.425577
0.221729
0.379682
0.377893
0.534654
0.422597
0.415444
0.501871
0.513792
0.525713
0.490546
0.354648
0.433922
0.349879
0.552535
0.516772
0.620484
0.480413
0.487566
0.434518
0.621676
0.538826
0.669956
0.551939
0.658631
0.489950
0.614524
0.504851
0.664592
0.631809
0.712872
0.767708
0.799894
0.704527
0.733733
0.881553
0.827909
0.943542
0.991821
0.952482
1.003742
1.076460
0.875592
1.123548
1.173615
1.297593
1.331568
1.598597
1.614690
1.738667
1.874566
2.268553
2.471805
3.966689
12.598634
63.868761
161.544681
414.953828
698.657036
1015.827656
1015.827656
1015.827656
1015.827656
1015.827656
1015.827656
962.804556
637.285709
303.334594
154.485703
53.658485
19.546747
7.585883
6.682873
6.412864
6.003976
5.863905
5.933642
5.951524
6.959438
9.695888
12.932420
19.507408
26.801825
36.643744
43.628812
51.704645
54.595470
54.594874
##ZVALUE=365
0.209808
0.245571
0.307560
0.333786
0.342727
0.402927
0.544786
0.403523
0.445843
0.460744
0.463724
0.263453
0.430942
0.315905
0.333786
0.262856
0.323653
0.501871
0.541806
0.496507
0.432730
0.373721
0.509620
0.533462
0.504851
0.625849
0.467896
0.468493
0.518560
0.400543
0.536442
0.658631
0.468493
0.594854
0.628829
0.592470
0.545979
0.744462
0.611544
0.632405
0.648499
0.676513
0.631809
0.728965
0.778437
0.771880
0.882745
0.877976
0.892878
0.996590
1.048446
1.034737
1.114607
1.064539
1.163483
1.177788
1.391768
1.412630
1.490712
1.773834
1.688600
2.212524
2.334714
2.681613
5.693436
34.427643
97.769499
269.205570
507.561564
942.304730
1015.829444
1015.829444
1015.829444
1015.829444
1015.829444
1015.829444
911.281705
475.537777
246.848464
81.102848
29.224753
8.756518
6.785989
6.073713
5.920529
5.508661
5.386472
5.342960
5.444884
6.316900
8.129478
11.733770
16.100407
24.036765
30.511618
39.007664
##ZVALUE=370
0.460744
0.265837
0.398755
0.118613
0.256896
0.371933
0.224710
0.503659
0.213981
0.324845
0.289679
0.429749
0.402927
0.361800
0.341535
0.366569
0.473857
0.614524
0.448823
0.320673
0.451803
0.376701
0.358820
0.505447
0.433922
0.335574
0.394583
0.415444
0.590682
0.550747
0.357628
0.643730
0.587702
0.507832
0.534654
0.469685
0.528693
0.619888
0.574589
0.765920
0.708699
0.551939
0.665784
0.552535
0.687838
0.740886
0.788569
0.798702
0.751615
0.780821
0.803471
1.020432
0.883937
0.992417
0.931621
0.951886
1.007915
0.988841
1.135468
1.285672
1.273751
1.523495
1.769662
2.034903
2.176762
2.558827
3.481507
18.224716
63.216686
211.663842
398.664474
769.314766
1015.830636
1015.830636
1015.830636
1015.830636
1015.830636
1015.830636
1015.830636
622.204542
350.118876
127.575994
51.535964
15.191436
7.611513
5.982518
5.503893
5.229712
5.146861
4.688501
4.645586
4.899502
5.431771
7.344484
10.044575
14.544725
##ZVALUE=375
0.264645
0.437498
0.335574
0.307560
0.358820
0.474453
0.254512
0.292659
0.088811
0.275970
0.259876
0.369549
0.295639
0.302792
0.321865
0.501871
0.384450
0.495911
0.390410
0.355840
0.419617
0.401735
0.356436
0.214577
0.290871
0.439882
0.391603
0.395775
0.426769
0.440478
0.316501
0.500679
0.463724
0.455976
0.438690
0.325441
0.660419
0.483990
0.509620
0.670552
0.573993
0.463724
0.615716
0.596642
0.694990
0.688434
0.833869
0.695586
0.737906
0.546575
0.747442
0.690818
0.687838
0.784993
0.718832
0.762939
0.971556
0.912547
0.934601
1.200438
1.038909
1.210570
1.208782
1.385808
1.524687
1.563430
1.958609
2.259612
2.634525
8.926988
34.076571
132.187605
292.576551
655.660033
983.479619
1015.829444
1015.829444
1015.829444
1015.829444
1015.829444
1015.829444
818.987489
526.083708
244.622827
118.708611
32.450557
10.982752
5.867481
5.378723
5.128980
4.922748
4.863739
4.621744
4.748702
4.760623
5.509853
##ZVALUE=380
0.240803
0.274777
0.326633
0.277758
0.317693
0.320673
0.231862
0.304580
0.343919
0.319481
0.374913
0.357628
0.295639
0.371933
0.315905
0.341535
0.339746
0.443459
0.304580
0.322461
0.464916
0.356436
0.260472
0.498891
0.421405
0.304580
0.222921
0.460744
0.397563
0.344515
0.342727
0.421405
0.352859
0.470877
0.441670
0.571609
0.497699
0.445843
0.554919
0.443459
0.546575
0.452995
0.443459
0.393987
0.490546
0.435710
0.556707
0.583529
0.650883
0.588894
0.773668
0.700951
0.537634
0.694990
0.771880
0.744462
0.596642
0.888705
0.688434
0.780821
0.866652
0.906587
0.888705
0.997782
1.313686
1.306534
1.371503
1.505613
2.032518
2.135634
2.580881
4.079938
22.514462
73.385835
236.954689
443.457961
858.904719
1015.829444
1015.829444
1015.829444
1015.829444
1015.829444
1015.829444
990.970731
607.852936
362.426639
152.917504
66.906810
15.920997
6.866455
5.382895
5.101562
4.948974
4.972816
4.771948
5.056858
##ZVALUE=385
0.346899
0.437498
0.386834
0.241995
0.376701
0.212789
0.151992
0.273585
0.296831
0.314713
0.242591
0.286698
0.313520
0.226498
0.385642
0.371933
0.244975
0.279546
0.294447
0.222921
0.273585
0.306964
0.162721
0.272989
0.359416
0.339746
0.375509
0.374913
0.287890
0.333786
0.505447
0.269413
0.364780
0.482798
0.390410
0.284910
0.390410
0.526905
0.336766
0.333786
0.349879
0.539422
0.496507
0.394583
0.594854
0.474453
0.348687
0.412464
0.500679
0.567436
0.682473
0.540614
0.688434
0.762939
0.555515
0.722408
0.642538
0.754595
0.597835
0.706911
0.905991
0.775456
0.841618
0.956655
1.065731
1.152754
1.081824
1.374483
1.596808
1.746416
1.817942
2.232790
2.355576
2.849698
8.230805
52.607656
141.688585
368.343592
665.498972
1015.834808
1015.834808
1015.834808
1015.834808
1015.834808
1015.834808
1015.834808
849.128962
457.539558
256.949663
101.295710
38.161874
8.761883
5.409718
5.107522
4.923940
5.019903
##ZVALUE=390
0.241995
0.180602
0.291467
0.173450
0.318885
0.295639
0.308752
0.361800
0.116825
0.277758
0.154972
0.082850
0.163913
0.114441
0.225902
0.358820
0.301600
0.170469
0.313520
0.371933
0.286698
0.433922
0.248551
0.281930
0.288486
0.219941
0.270605
0.281930
0.387430
0.381470
0.293851
0.488758
0.399947
0.384450
0.573993
0.478625
0.431538
0.312924
0.397563
0.474453
0.338554
0.527501
0.452995
0.533462
0.606775
0.579953
0.445843
0.476837
0.492930
0.430942
0.517964
0.500679
0.695586
0.563860
0.724792
0.613928
0.670552
0.718832
0.705719
0.710487
0.789762
0.779629
0.769496
0.906587
0.886917
0.885725
1.141429
1.129508
1.304746
1.539588
1.692772
1.824498
1.964569
2.283454
2.274513
2.543926
4.552603
26.380420
87.639689
285.672545
546.321869
992.483497
1015.829444
1015.829444
1015.829444
1015.829444
1015.829444
1015.829444
1015.830040
668.686628
389.508009
155.877471
69.495440
18.391609
7.140636
5.453825
##ZVALUE=395
0.365973
0.320673
0.346899
0.043511
0.205636
0.306964
0.199676
0.251532
0.302792
0.287890
0.244975
0.168681
0.186563
0.282526
0.418425
0.173450
0.309944
0.314713
0.330806
0.239611
0.301600
0.287890
0.376701
0.337958
0.401735
0.376701
0.392795
0.335574
0.319481
0.455976
0.350475
0.391603
0.413656
0.222921
0.419617
0.390410
0.450611
0.445843
0.558496
0.539422
0.486970
0.611544
0.467896
0.255704
0.577569
0.564456
0.499487
0.440478
0.418425
0.441670
0.514984
0.629425
0.599623
0.662804
0.583529
0.753999
0.601411
0.492930
0.712872
0.713468
0.743866
0.640750
0.694990
0.924468
0.969768
0.986457
1.093745
1.120567
1.378655
1.496673
1.521707
1.803637
1.915693
1.857877
1.851916
1.944900
2.109408
2.124906
3.083944
15.674829
59.612393
216.658711
421.837568
808.320642
1015.827656
1015.827656
1015.827656
1015.827656
1015.827656
1015.827656
1015.827656
829.236507
507.625937
216.475725
99.442601
29.650927
##ZVALUE=400
0.275970
0.278950
0.292659
0.283718
0.306964
0.338554
0.240803
0.321865
0.333786
0.256896
0.120997
0.067949
0.433922
0.257492
0.240803
0.452995
0.272989
0.259876
0.066757
0.334978
0.164509
0.145435
0.293851
0.303984
0.243783
0.232458
0.303984
0.303984
0.374913
0.472665
0.445843
0.404716
0.487566
0.579953
0.442863
0.489950
0.562668
0.419617
0.473857
0.471473
0.596642
0.401735
0.541806
0.514984
0.505447
0.525713
0.487566
0.294447
0.652671
0.413656
0.374913
0.522733
0.651479
0.629425
0.595450
0.597835
0.589490
0.723600
0.539422
0.617504
0.609756
0.726581
0.659823
0.880957
0.931621
0.867844
1.148582
1.246929
1.278520
1.294613
1.646876
1.442432
1.621842
1.664758
1.705885
1.637936
1.793504
1.990795
2.134442
2.093911
2.599955
8.315444
33.262968
123.503804
273.492932
618.000627
974.328518
1015.828848
1015.828848
1015.828848
1015.828848
1015.828848
1015.828848
987.426639
656.436682
319.291949
##END
