##TITLE=QP00301
##FORMAT=SPECTACLE-ASCII V-1.2
##DATA TYPE=ULTRAVIOLET SPECTRUM
##SECOND TYPE=ULTRAVIOLET SPECTRUM
##DATE=12/11/17
##TIME=15:28:05
##SPECTROMETER/DATA SYSTEM=SPECTACLE
##XUNITS=NM EM
##YUNITS=ENERGY
##YFACTOR=1
##FIRSTX=220
##LASTX=410
##NPOINTS=96
##3DDATA=Equidistant
##ZUNITS=NM EX
##FIRSTZ=210
##LASTZ=400
##ZPOINTS=39
##XYDATA=(Y..Y)
##ZVALUE=210
2.339482
2.635717
2.894998
2.559423
2.872944
2.951622
2.773404
2.923608
3.073812
2.644658
2.919436
2.808571
2.468824
2.591610
2.492666
2.861619
3.167987
2.769828
3.765821
3.276467
3.690720
3.071427
3.587604
4.474521
4.315972
3.966689
4.480481
4.681945
4.729629
5.266666
4.692674
5.155802
5.360842
6.028414
5.538464
6.000996
5.122423
5.532503
6.435513
5.966425
6.188750
6.282926
6.574988
6.446838
6.579757
7.528663
7.179976
8.214712
6.937981
7.373691
7.046461
7.683635
8.151531
7.966757
8.408427
8.714795
8.306503
8.393526
9.131432
8.778572
8.616447
8.506775
8.369684
9.200573
9.025931
9.051561
10.669827
13.276935
13.776422
14.077425
18.100739
21.220446
23.751855
27.164817
28.826594
31.474829
31.588674
31.463504
29.917955
28.937459
26.182532
23.199916
21.273494
17.712712
13.833642
12.725592
11.879802
10.321736
10.575652
9.448528
9.662509
9.836555
8.834600
9.018779
8.677840
9.970665
##ZVALUE=215
7.483959
7.335544
5.561709
5.208850
4.561543
4.764795
4.468560
4.952550
5.745888
5.657673
5.645752
4.752874
3.604889
3.646612
3.246665
3.813505
3.329515
3.280640
3.066659
3.850460
3.516674
3.901720
4.011989
4.074574
4.399419
4.368424
4.651546
4.441738
4.800558
4.400611
5.964637
4.795790
5.715489
5.521774
5.716681
6.967783
6.521940
7.242560
6.680489
6.401539
6.974936
6.702542
7.334948
7.757545
7.003546
7.583499
7.048845
7.678866
7.880926
7.788539
8.691549
8.303523
7.717609
8.192658
8.049607
9.164810
7.679462
10.713935
9.138584
10.615587
8.533597
9.336472
9.627938
9.529591
10.108948
10.145903
11.342764
10.792613
11.106730
15.595555
18.698573
21.033883
22.658706
24.858713
28.880835
27.779937
27.578473
28.855801
28.558969
27.794838
25.194883
22.843480
19.303560
17.588735
15.032887
12.769699
12.686849
11.027455
10.113716
9.058714
9.562969
9.545684
9.889603
9.914637
9.699464
9.753704
##ZVALUE=220
23.369789
22.826791
24.956465
24.619699
23.243427
19.438863
16.138554
12.939572
11.595488
10.110736
11.749864
12.441874
10.745525
10.552406
9.425879
6.696582
5.057454
5.022883
4.475713
4.135966
3.940463
3.745556
4.300475
4.485846
4.781485
5.007982
4.815459
4.962683
4.800558
5.478859
6.135702
5.960464
5.981922
6.644726
6.179810
7.062554
6.871819
6.635785
6.919503
6.725788
6.681681
7.853508
7.807612
7.261634
8.370876
9.061694
8.778572
9.398460
7.648468
8.188486
8.465648
8.034706
9.424686
9.866953
8.475780
9.681582
9.361506
9.139776
9.328723
10.136962
10.918975
9.858608
10.345578
9.991527
11.970997
10.597706
10.940433
12.998581
15.552640
15.224814
19.956827
22.629499
26.105642
30.446649
32.331944
33.594966
34.669638
32.305717
32.593608
30.835867
29.847622
26.365519
21.770597
19.616485
18.480420
14.878511
15.281439
14.446974
13.939738
11.835694
12.161732
12.562871
13.491511
11.716485
10.466576
11.294484
##ZVALUE=225
46.162605
48.979521
58.855414
72.744489
76.296926
76.539516
73.089600
54.928660
41.951537
35.503507
25.525689
23.271441
24.365783
25.071502
27.283430
24.246573
21.838546
17.075539
14.174581
9.152889
6.922483
5.525947
5.128980
4.480481
5.076528
4.841685
5.459785
6.452799
5.557537
5.981922
5.934834
6.095767
6.524920
6.862879
7.141829
7.539988
6.962419
7.757545
7.146597
7.849932
7.112622
6.839633
8.191466
7.879734
8.499622
9.101629
9.755492
8.203983
9.631515
10.375977
8.635521
9.116530
9.958744
10.369420
10.406971
10.370612
10.667443
11.267662
10.570884
11.175871
10.822415
11.436939
12.123585
11.676550
11.764765
14.378428
15.048981
14.704466
14.978647
18.906593
19.730926
26.474595
26.827455
29.022694
30.523539
30.294657
31.095743
32.183528
30.687451
26.298761
28.440952
22.602677
22.598505
19.520521
20.532608
18.240809
16.861558
16.161799
14.165640
15.722513
15.837550
16.110539
15.349984
14.942884
15.798807
15.128851
##ZVALUE=230
41.066408
44.590831
65.640807
106.938481
142.694712
173.834562
191.882849
194.186568
181.904435
149.740577
107.335448
77.584982
53.296685
47.348738
47.250986
48.316717
50.548911
49.890876
46.866536
38.399696
27.843714
18.694997
13.832450
9.062886
7.624626
6.786585
6.237626
6.293654
6.561875
6.923676
7.383823
7.565618
7.366538
6.925464
8.457899
7.828474
8.509755
7.837415
8.750558
8.428693
8.368492
8.901954
9.178519
9.984970
9.711981
9.331703
10.667443
9.821653
9.940863
10.445714
9.423494
11.015534
10.127425
11.574626
11.941791
11.311769
12.698770
13.566613
13.792515
13.002753
13.388991
13.613701
14.544725
15.755892
16.597509
16.222000
16.143918
19.405484
20.055771
23.314953
24.062991
27.538538
32.856464
32.284856
35.733581
35.299659
34.740567
37.286878
33.688545
32.247901
29.547811
29.314756
29.966831
25.462508
24.757981
23.996830
22.859573
22.629499
23.584962
21.179914
21.121502
20.987988
21.508932
23.137927
22.084713
22.435784
##ZVALUE=235
15.781522
17.168522
33.673644
82.647800
129.114985
209.064484
270.017982
346.950889
390.711427
385.145545
354.190469
282.881856
214.052796
139.857531
100.770593
85.199475
73.833466
77.782869
85.947514
82.162619
78.815818
66.866875
52.348971
37.640929
24.230480
18.595457
12.772679
9.106994
9.110570
8.262992
7.662773
8.139610
8.384585
8.334517
8.699894
8.816719
9.545684
9.165406
9.075999
10.149479
9.718537
9.596944
9.461641
9.101629
11.131763
11.300445
10.555983
10.108948
10.629892
11.822581
10.639429
10.913610
11.178851
11.763573
13.104677
12.856722
13.175607
14.218688
14.545918
15.150905
16.698837
17.609000
16.571879
18.231869
16.946793
20.299554
20.778775
21.904707
24.504662
29.115677
29.308796
33.322573
36.131740
38.540959
40.419698
40.600896
41.423440
42.498708
38.549900
38.805604
39.225817
34.574866
35.404563
33.127666
32.110810
32.435656
31.878948
30.612946
29.768944
32.193661
30.172467
28.224587
29.259920
28.596520
30.027628
30.194521
##ZVALUE=240
2.261996
2.590418
8.328557
19.780993
57.009459
98.964572
193.809867
292.902589
437.907577
526.255965
599.024892
591.018796
552.672744
450.051427
358.674526
234.016776
168.455839
114.454627
102.999806
100.542903
111.374855
116.345882
115.484595
101.873875
81.411600
68.902969
49.473643
37.963986
21.724701
17.332435
13.015866
11.316538
10.832548
9.543896
10.341406
10.258555
10.636449
9.204745
10.538697
9.406805
10.061860
8.797646
10.061860
9.498596
10.257959
9.646416
10.644794
10.130405
10.421872
9.950995
11.095405
9.973645
11.100769
12.793541
11.428595
13.962984
14.391541
14.165640
15.341640
14.684796
15.578866
15.842915
18.237829
19.659996
17.698407
20.687580
21.559596
24.635792
23.450851
26.304722
31.710863
36.080480
37.572980
42.015910
43.233633
42.873621
44.113994
43.482780
42.243600
43.028593
41.351914
39.560795
39.513707
39.288998
36.892891
36.874413
39.134622
36.050677
35.962462
35.440922
36.408901
35.753846
36.828518
35.332441
35.270452
35.458803
##ZVALUE=245
1.936555
1.831651
2.371669
2.039671
5.120635
15.105605
46.626925
93.606710
207.066536
317.492485
494.228005
618.909597
709.763765
759.868622
725.349784
615.440607
509.326458
346.048474
240.476727
151.522756
114.928484
100.809932
114.607811
128.337741
133.212805
127.918720
117.219687
98.548532
75.066686
58.491826
41.657686
25.783777
19.089580
13.964772
11.509657
10.807514
11.124611
9.404421
10.649562
9.958744
9.898543
9.864569
9.327531
9.834766
8.770823
10.303855
9.309649
9.903908
9.959936
8.835793
10.118484
11.208653
9.849668
10.947585
11.004806
11.444688
11.018515
11.596680
12.468696
13.182759
14.110804
14.191866
15.205741
16.037822
17.256737
18.166900
17.580986
19.666553
22.475719
24.844408
26.776791
29.925704
31.936765
35.615563
36.430955
38.849711
39.140582
39.933920
38.686991
37.778616
34.749508
38.665533
38.116574
36.112666
35.235882
35.930872
34.176707
35.925508
36.773682
35.907626
36.064982
35.414696
35.397410
35.138726
34.670830
34.622550
##ZVALUE=250
1.855493
1.868606
1.898408
1.982450
2.090931
2.297759
2.739429
12.914538
33.659935
71.964860
183.844566
306.301713
505.103469
645.219684
803.020000
886.479616
881.759524
805.481672
701.177716
505.443811
349.844694
196.561813
133.333802
100.080967
104.519725
125.945807
134.456754
142.639875
139.154792
123.493671
106.257796
80.573559
62.299967
39.758682
26.997924
17.111897
12.703538
10.479689
9.231567
8.941889
8.628964
9.097457
8.813739
8.321404
8.189678
9.010434
8.763671
9.077787
8.702874
8.502603
8.874536
9.450912
9.920597
10.153651
9.177923
10.189414
10.276437
10.117888
10.815859
11.836886
12.106895
12.995601
13.653636
13.198853
13.849735
15.799999
16.224980
19.038916
19.440651
22.262931
23.470521
24.988651
27.385950
31.895638
32.649636
35.257936
34.237504
34.442544
34.094453
33.432841
34.320951
33.396482
31.962991
32.681823
33.759475
33.752918
32.247901
34.629703
32.289624
33.564568
33.263564
34.149885
34.356713
32.091737
33.026934
32.821894
##ZVALUE=255
1.682639
1.463890
1.663566
1.572967
1.830459
1.668930
1.928806
2.136827
2.541542
4.772544
26.685596
65.702796
136.541724
282.659531
436.413884
664.349794
831.447840
973.748565
1016.152501
969.152451
845.474601
676.254630
432.888865
279.680490
149.540901
107.574463
94.522834
105.050802
127.918720
142.600536
148.459673
147.197843
132.163763
105.014443
85.349679
57.999492
40.468574
24.218559
16.401410
10.438561
9.224415
8.231997
8.769631
8.338690
8.643866
8.336902
7.870793
8.191466
7.681847
8.769631
8.795857
7.979870
8.589625
8.372664
8.919835
9.290576
9.457469
9.807944
8.566976
10.874867
10.120869
10.891557
12.077689
10.854602
12.479424
14.992952
14.388561
15.383959
17.371774
18.642545
20.057559
23.231506
24.971962
26.144981
28.020740
29.063821
29.966831
29.369593
30.360818
29.123425
28.349757
29.350519
29.777884
30.062795
29.535890
28.280616
29.295683
30.352473
31.039715
30.572414
31.448603
30.935407
29.625893
30.518770
31.671524
32.647848
##ZVALUE=260
1.305938
1.370907
1.358986
1.567602
1.519918
1.730919
1.880527
1.480579
1.853704
1.856685
2.222657
3.037453
15.227795
40.583611
108.504891
204.128027
404.328704
587.972999
787.975788
1012.701988
1016.201973
1016.201973
1016.201377
850.903988
637.300014
386.307836
248.705745
136.883855
93.445778
85.205436
104.887486
123.694539
145.063996
154.561996
147.017837
135.414004
111.521482
87.196827
56.710839
40.906668
26.843548
15.024543
11.276603
8.472800
7.859468
8.329749
8.167624
7.918477
8.434653
8.161664
8.558631
8.493662
8.135438
7.831454
8.557439
8.261800
9.137988
9.327531
9.644628
9.592772
11.091828
9.885430
10.556579
10.907650
11.845827
12.285709
13.619661
14.908910
15.309453
17.970800
18.925667
20.081997
22.070408
23.395419
25.108457
25.334954
25.594831
26.241541
27.216673
25.853515
26.806593
27.262568
26.517510
27.809739
26.818514
27.496815
26.207566
28.020740
28.065443
28.481483
28.516650
28.934479
28.657913
29.434562
29.355884
29.956698
##ZVALUE=265
1.485944
1.448989
1.662970
1.585484
1.631975
1.679659
1.926422
1.762509
1.872778
2.041459
1.853704
2.240539
2.019405
2.583861
5.973577
33.979416
76.350570
182.301998
319.178700
584.322810
818.504691
1014.309525
1016.330719
1016.330719
1016.330719
1016.330719
863.674879
638.399720
369.498730
223.390460
130.208731
77.941418
81.721544
109.073520
131.465793
149.136782
156.423450
147.647858
133.930445
106.709003
84.750652
55.955648
40.722489
23.772717
15.880466
10.474920
8.800626
9.018779
7.713437
8.076429
8.030534
8.254647
8.305907
8.803606
8.690953
8.904934
9.066463
9.213686
9.184480
9.414554
9.294748
9.621978
10.542870
11.334419
11.349916
12.518764
12.578964
13.422966
13.923645
15.899539
17.637610
19.006729
19.815564
21.745563
21.620989
23.365617
23.502707
24.083853
24.170876
24.242997
24.607778
24.145842
23.778677
24.152994
24.914742
25.370717
25.117993
26.530623
25.611520
26.394725
27.342439
27.279854
27.123690
26.738644
27.840734
27.279854
##ZVALUE=270
1.356602
1.177788
1.273751
1.263618
1.512766
1.342893
1.704693
1.508594
1.476407
1.493692
1.738667
1.642704
1.713634
1.734495
2.163649
2.319813
2.997518
14.493465
44.508576
136.705637
263.362527
455.265045
772.081614
1002.093554
1016.201973
1016.201973
1016.201973
1016.201973
1016.201973
820.707679
570.646524
312.407613
171.588659
79.865456
64.806938
86.011887
107.684731
133.719444
148.125887
156.056881
151.734948
132.640600
113.726854
83.420873
61.311722
37.105680
25.298595
16.565919
11.902452
9.617805
8.881688
8.745790
8.461475
8.850694
8.832812
9.253621
9.376407
9.118915
9.298921
9.365678
10.332465
10.513663
10.966659
10.618567
11.662841
12.090802
12.169480
12.790561
13.725758
15.421510
16.086698
17.987490
19.505620
20.264983
21.363497
22.953749
21.791458
22.055507
22.229552
22.880435
22.495985
22.448897
23.718476
22.940636
23.252964
23.119450
23.360848
24.304986
24.713874
24.768710
24.969578
25.748610
25.330782
26.115775
25.805831
26.299953
##ZVALUE=275
1.235604
1.501441
1.350641
1.291633
1.512766
1.321435
1.500845
1.177788
1.384616
1.507998
1.571774
1.459718
1.693964
1.729727
1.642704
1.917481
1.871586
2.267957
2.527833
6.918907
27.065873
75.667500
219.298601
396.168828
726.156831
968.492627
1016.197801
1016.197801
1016.197801
1016.197801
1016.197801
947.838426
692.812800
379.136801
218.944550
95.481873
58.099627
61.288476
78.712702
108.552575
131.425858
145.054460
153.040886
147.869587
131.654739
107.476711
85.254908
60.258508
42.729974
25.561452
17.784834
11.522770
9.605885
9.415746
9.079576
9.515882
9.347796
9.862781
9.968877
9.972453
10.999441
10.321736
11.376739
11.933446
11.710525
12.490749
13.177991
14.026761
15.164614
15.816689
16.427636
17.605424
19.159913
20.628572
20.529628
21.816492
21.821856
21.837950
22.521615
22.603869
22.825599
22.012591
23.172498
23.289919
23.635626
23.799539
23.099780
23.694634
23.393631
24.047494
23.361444
24.139881
24.702549
24.554729
25.059581
24.988651
##ZVALUE=280
1.087785
1.171827
1.394749
1.388788
1.117587
1.335740
1.229644
1.145601
1.124740
1.412630
1.299977
1.403689
1.508594
1.385808
1.727939
1.566410
1.679659
1.855493
1.956820
2.181530
2.622604
2.939701
16.186833
57.416558
179.256797
324.891806
594.926476
859.805942
1016.201973
1016.201973
1016.201973
1016.201973
1016.201973
1016.201973
816.166997
473.421812
286.172628
128.251910
66.265464
45.714974
57.158470
80.201626
103.498697
129.459500
143.357515
149.726868
145.715475
129.724741
112.501979
81.167817
61.001778
40.459633
28.469563
17.682910
12.638569
10.558963
9.690523
9.834766
10.335445
10.910630
10.798573
11.044741
12.180805
12.311935
12.368560
12.917519
13.592839
14.520884
14.847517
15.921593
16.668439
17.390847
18.750429
19.775629
20.632744
21.005869
21.796823
22.154450
22.448897
21.781921
22.186637
22.431612
22.722483
22.707582
22.453666
22.543669
23.087859
23.759604
23.354888
23.584962
23.580790
24.086833
24.253726
23.703575
23.913980
24.636984
##ZVALUE=285
1.093745
1.043677
1.211762
1.006722
1.142621
1.009703
1.097918
1.041889
1.345873
1.266599
1.387596
1.316667
1.361966
1.319647
1.549721
1.454949
1.662970
1.659989
1.810789
1.849532
1.778603
2.111793
2.528429
2.654791
8.898973
32.508969
111.176968
227.037668
477.312803
732.777715
1016.201973
1016.201973
1016.201973
1016.201973
1016.201973
1016.201973
962.788463
669.456720
363.047719
213.776827
92.537999
47.069788
38.784742
51.054955
76.971650
98.474622
123.986006
137.849450
146.215558
145.713687
129.082799
110.150576
84.507465
64.361691
40.983558
29.014945
18.568635
14.357567
11.626482
11.178851
10.865927
11.517406
12.026429
11.653900
13.163686
13.080835
13.928413
14.560819
15.185475
16.328692
17.367601
18.555522
19.027591
19.983649
21.263957
22.135973
20.900965
21.260977
22.120476
22.837520
22.312999
22.252798
23.207664
23.180842
23.024678
22.929907
23.170710
23.076534
23.846626
23.366809
23.612976
22.952557
22.800565
23.446679
23.257732
23.970604
##ZVALUE=290
1.105666
1.118779
1.143813
1.122952
1.051426
1.126528
1.214743
1.028776
1.217723
1.305938
1.166463
1.406670
1.507998
1.224875
1.271963
1.427531
1.507998
1.467466
1.480579
1.638532
1.614690
1.710653
1.872778
2.096891
2.180934
2.529621
3.807545
12.423992
63.107610
145.969391
345.274806
576.720834
978.493690
1016.201973
1016.201973
1016.201973
1016.201973
1016.201973
1016.201973
881.224871
507.015586
300.077796
125.544667
59.949756
29.360652
33.292770
50.884485
68.499446
94.852448
115.093589
136.177540
142.100453
138.841867
128.911734
105.666518
86.354613
58.687925
44.090748
28.590560
20.703673
15.291572
13.063550
12.417436
12.297630
12.495518
12.992620
14.224648
15.512705
15.710592
16.471744
17.625690
18.303990
19.148588
19.939542
20.749569
21.048784
21.435618
21.889806
21.561980
22.230744
22.874475
22.564530
22.745728
23.389459
23.467541
23.339987
23.712516
23.655891
23.522973
23.081899
23.616552
23.817420
23.450851
23.877621
23.766756
23.625493
##ZVALUE=295
1.104474
1.072884
1.169443
1.203418
0.952482
1.084805
1.202822
1.194477
1.163483
1.121759
1.191497
1.183748
1.370907
1.273751
1.331568
1.372695
1.311898
1.261830
1.365542
1.429915
1.424551
1.656413
1.879930
1.683831
2.032518
2.095699
2.420545
2.730489
2.777576
5.594492
20.366907
87.815523
201.001763
475.574732
755.901933
1016.186476
1016.186476
1016.186476
1016.186476
1016.186476
1016.186476
1016.186476
764.515400
412.153006
225.770473
79.562664
36.555529
23.549795
30.705929
47.183633
64.098835
91.184974
108.966827
128.745437
134.824514
133.329630
123.420954
102.906823
84.312558
59.503913
44.922829
29.496551
21.570921
16.418695
14.384985
13.777614
14.440417
14.780760
15.838742
16.431808
17.171502
18.479824
18.979907
19.921660
21.195412
21.801591
21.531582
21.663904
21.986961
22.283792
22.689700
22.684932
23.912787
23.420453
23.230910
23.970604
23.378730
24.515986
24.561882
24.129748
24.117827
23.800731
24.017692
24.382472
23.801923
23.789406
##ZVALUE=300
1.142621
0.980496
0.928640
1.040697
0.724792
1.041889
1.187921
1.102686
1.062751
1.041889
1.207590
1.235604
1.317859
1.230836
0.960827
1.284480
1.147985
1.463890
1.415610
1.438856
1.322627
1.365542
1.434684
1.747608
1.870990
1.980662
1.884699
1.969934
2.003908
2.401471
2.960563
3.312826
8.705854
54.492950
142.364502
368.824005
620.934963
1006.819606
1016.201973
1016.201973
1016.201973
1016.201973
1016.201973
1016.201973
944.116712
542.858839
325.886011
141.326785
63.830614
23.338795
19.822717
28.033853
40.426850
61.139464
80.242753
106.089711
119.967461
128.982663
128.254890
116.931796
102.775693
79.479814
62.008500
44.607520
32.327771
22.154450
18.976927
16.469955
16.155839
16.465783
17.220974
18.903613
19.958615
20.444989
21.091700
21.070838
21.697879
22.241473
22.462606
22.373796
22.819638
23.547411
23.439527
24.508834
24.133921
24.054646
24.402738
24.531484
24.135709
24.840832
24.789572
23.955703
23.730993
24.132729
24.104714
23.928881
##ZVALUE=305
0.857711
1.116991
1.077652
1.085997
0.998974
0.937581
1.016855
1.036525
1.097918
1.092553
1.162887
1.010895
1.171827
1.181960
1.253486
1.320839
1.268983
1.296997
1.246929
1.201630
1.295805
1.514554
1.490712
1.482964
1.558661
1.679659
1.641512
1.999736
1.986623
1.988411
2.306700
2.533793
2.632737
3.046989
6.502867
26.201606
108.943582
247.991681
568.142533
889.241695
1016.202569
1016.202569
1016.202569
1016.202569
1016.202569
1016.202569
1016.202569
832.636952
440.074801
243.916512
93.911886
38.049817
16.937852
18.679500
27.521849
39.650798
60.789585
77.922940
99.866986
113.314986
124.330521
123.226643
114.347935
101.031661
79.649687
63.685775
43.690801
33.586621
24.460554
20.239949
18.938780
19.261837
20.120740
20.779967
21.654963
21.615624
22.268891
22.316575
22.798777
22.759438
23.428798
24.027824
25.085807
24.355650
24.544001
25.149584
24.982691
25.622845
24.569631
25.131702
24.686456
25.173426
24.439692
24.128556
24.718642
24.165511
##ZVALUE=310
1.091957
0.971556
0.976920
0.940561
1.126528
1.084805
0.991821
1.074672
1.039505
1.183748
1.176596
1.171827
1.069903
1.032948
1.095533
1.328588
1.199841
1.253486
1.154542
1.280904
1.321435
1.318455
1.234412
1.341701
1.504421
1.445413
1.363754
1.675487
1.869798
1.913905
1.783967
2.225637
2.302527
2.347827
2.466440
2.838969
3.311634
15.440583
55.321455
193.382502
382.628441
783.762932
1016.206741
1016.206741
1016.206741
1016.206741
1016.206741
1016.206741
1016.206741
978.571773
668.568611
329.541564
175.014734
59.583783
23.778677
14.714599
17.087460
25.464892
35.776496
54.135919
70.594549
93.598962
106.528997
117.281675
119.114518
111.638904
100.522637
80.993772
64.771771
46.639442
36.909580
28.326511
24.671555
22.046566
21.305680
21.779537
21.814704
22.194982
23.059845
23.066998
23.793578
24.892688
24.716854
24.882555
25.345683
25.463700
25.596619
25.545955
25.659800
25.718808
25.289655
25.520921
25.403500
25.073886
24.367571
24.075508
##ZVALUE=315
1.009703
0.818968
0.894666
0.881553
0.981688
0.903606
0.973940
1.076460
0.977516
1.137853
1.096725
1.034737
1.074672
1.095533
1.016855
1.084805
1.065731
1.105666
1.230836
1.206994
1.202822
1.160502
1.255870
1.413822
1.309514
1.524687
1.559854
1.518726
1.517534
1.637936
1.679659
1.844764
2.042651
1.997948
2.145767
2.267957
2.303720
2.684593
3.143549
6.624460
28.604865
126.203895
276.427865
623.217821
980.320573
1016.200781
1016.200781
1016.200781
1016.200781
1016.200781
1016.200781
1016.200781
902.785063
464.695692
243.149996
84.400773
33.241510
13.824701
13.310909
17.161965
23.368001
35.744905
48.841834
68.909526
84.794760
104.321837
112.443566
114.460588
108.818412
94.129443
81.437826
62.721968
49.992800
37.149787
30.406713
25.254488
23.693442
23.109913
23.418665
23.713708
23.930669
24.266839
24.609566
25.168657
25.392771
25.578737
25.338531
26.430488
26.484728
25.827885
25.748610
25.858879
25.712848
25.832653
25.325418
24.952888
##ZVALUE=320
0.947714
1.018643
0.955462
0.852942
0.901818
0.979900
1.026988
0.981688
0.980496
1.065731
0.923872
1.010895
1.111627
0.941753
0.926852
0.878572
1.007915
1.127720
1.085997
1.200438
1.057982
1.155734
1.280904
1.119971
1.213551
1.403689
1.320839
1.401901
1.375675
1.572967
1.525879
1.670718
1.752973
1.624823
1.876950
1.979470
2.049804
2.167821
2.374649
2.735853
2.761483
4.058480
11.150837
65.040588
170.941353
455.839634
763.273835
1016.190648
1016.190648
1016.190648
1016.190648
1016.190648
1016.190648
1016.190648
1016.190648
608.927011
343.877673
144.129992
62.610507
19.183755
12.919903
13.501644
16.692877
22.934675
31.339526
47.933459
63.043833
82.439780
96.690655
109.440684
110.274553
106.066465
95.897913
77.603459
65.015554
47.923923
38.889647
30.684471
27.170777
25.074482
23.368001
24.714470
24.444461
25.181770
25.467873
25.159717
25.471449
26.538968
26.330948
25.900602
26.063919
25.549531
25.544763
25.695562
25.482774
24.827719
##ZVALUE=325
0.951886
1.010895
0.938773
0.784993
1.066923
0.944734
1.047850
0.877976
1.038909
0.989437
0.911951
0.846982
0.733733
0.962615
1.093745
1.094937
1.180768
1.031756
0.962615
1.125932
1.085997
1.231432
1.267791
1.209974
1.404881
1.234412
1.315475
1.318455
1.303554
1.381636
1.418591
1.506805
1.587868
1.597404
1.559854
1.866817
1.923442
1.844764
2.016425
2.273917
2.228618
2.580881
2.742410
3.167987
6.324649
41.470528
117.049813
320.485830
593.873858
1016.201973
1016.201973
1016.201973
1016.201973
1016.201973
1016.201973
1016.201973
1016.201973
751.040578
456.615686
198.721886
92.289448
27.960539
14.766455
12.668967
13.829470
17.764568
22.742748
33.389926
45.921803
65.922737
80.648661
96.531510
104.093552
106.230974
101.348758
87.918639
76.109767
60.374737
48.136711
36.434531
31.704903
27.337670
25.577545
25.645494
25.633574
25.344491
25.316477
25.888681
25.735497
25.420785
26.110411
25.351644
25.184751
25.420785
24.913549
24.904609
##ZVALUE=330
0.887513
0.944734
0.941753
0.906587
0.923872
0.903606
0.918508
1.070499
1.043677
1.010895
1.019835
0.900626
1.005530
0.956655
1.086593
1.011491
1.068711
0.957847
1.078844
1.105666
1.106858
1.044869
1.250505
1.032948
1.062751
1.109838
1.155734
1.200438
1.270771
1.368523
1.485944
1.375675
1.433492
1.370907
1.454949
1.637936
1.492500
1.674891
1.704693
1.639724
1.872778
1.996756
2.162457
2.657771
2.686977
2.989769
4.315972
14.008880
74.928999
191.382766
481.703877
807.800889
1016.201973
1016.201973
1016.201973
1016.201973
1016.201973
1016.201973
1016.201973
968.740582
535.310507
305.786729
126.551986
55.560470
17.901659
12.784600
13.145804
14.150739
18.080473
23.972988
35.419464
45.783520
62.502623
76.132417
91.817975
98.103881
101.399422
97.194910
84.087849
73.043704
57.704449
47.589540
38.242936
32.101870
28.195977
26.378632
25.817752
25.683641
25.260448
25.180578
24.621487
24.777651
24.551749
24.213791
23.967624
23.938417
##ZVALUE=335
0.827909
0.969768
0.754595
0.939965
0.975728
0.944734
0.974536
0.828505
0.922680
1.011491
0.964999
1.028776
1.100898
1.013875
0.996590
0.986457
0.854731
1.127720
0.951886
1.041889
1.034737
0.835657
1.100898
1.064539
1.187921
1.081824
1.019835
1.091957
1.210570
1.087785
1.389980
1.300573
1.241565
1.315475
1.382828
1.365542
1.419783
1.451969
1.492500
1.560450
1.670718
1.815557
1.910925
1.935959
2.203584
2.533793
2.544522
2.839565
3.350973
9.114742
34.445524
140.272975
306.173563
687.355995
1016.201973
1016.201973
1016.201973
1016.201973
1016.201973
1016.201973
1016.201973
1016.201377
726.602674
379.529595
200.002789
70.172548
28.403997
13.802648
13.037920
14.206767
15.561581
19.302964
23.865700
34.258962
44.407845
61.396956
73.292851
88.100433
94.081759
96.105933
92.479587
81.855655
70.698857
56.590438
47.457814
38.240552
32.504797
28.038621
25.684834
24.644732
24.294853
23.618937
23.445487
23.272634
23.411512
23.607612
##ZVALUE=340
0.780821
0.940561
0.910759
0.836849
0.883937
0.943542
0.780821
0.878572
0.874996
0.939965
0.997782
0.895858
0.947714
0.919700
0.957847
1.098514
0.913739
0.946522
0.989437
0.926852
0.941753
1.017451
1.029968
1.043677
0.999570
0.997782
1.065731
1.157522
1.245737
1.108646
1.147985
1.230836
1.223683
1.168847
1.100898
1.315475
1.324415
1.362562
1.433492
1.613498
1.501441
1.671910
1.692772
1.909733
1.887679
1.902580
2.139807
2.335906
2.554655
2.680421
2.991557
4.628897
15.364885
85.991025
216.812491
546.736717
940.120816
1016.201973
1016.201973
1016.201973
1016.201973
1016.201973
1016.201973
1016.201973
933.598876
468.629599
255.150795
100.198984
40.162802
15.848875
14.016628
14.361739
14.929771
16.961694
19.273758
25.145411
31.808615
44.931769
56.230426
71.896911
82.864761
90.269446
91.533661
87.053776
80.550909
68.168640
58.137774
46.190619
39.045811
31.315684
27.619600
24.850965
23.766756
22.572875
22.669435
22.487640
##ZVALUE=345
0.808835
0.801682
0.862479
0.751615
0.890493
0.834465
0.997782
0.953674
0.960827
0.889897
0.915527
0.912547
0.770688
0.841618
0.950694
0.877976
0.838637
0.914931
0.913739
0.945926
0.977516
0.954866
0.943542
1.113415
1.168847
1.131892
1.128912
1.199841
1.205802
1.096725
1.206994
1.124740
1.081824
1.226664
1.292825
1.252890
1.198649
1.116991
1.352429
1.342893
1.444817
1.508594
1.462698
1.475811
1.625419
1.885891
1.851916
1.702905
2.119541
2.098680
2.358556
2.821684
2.990961
3.560781
7.362962
46.684742
136.882067
381.695628
698.441863
1016.201973
1016.201973
1016.201973
1016.201973
1016.201973
1016.201973
1016.201973
1016.201973
637.886524
353.693962
136.971474
61.597824
22.177696
15.220642
14.680624
14.455914
15.293956
15.901923
18.356442
22.858977
31.760931
40.874481
55.118799
65.063834
76.652765
82.974434
85.359812
83.742738
75.143576
67.573786
54.663420
45.488477
35.185814
30.451417
26.373863
23.958683
22.396445
##ZVALUE=350
0.895858
0.879765
0.942945
0.862479
0.963807
0.918508
1.134872
1.083612
1.023412
0.886917
0.906587
0.793934
0.720620
0.798702
0.867844
0.947714
0.983477
1.057982
0.855923
1.033545
1.007915
0.881553
1.072884
0.987649
1.104474
0.982881
0.938773
1.022816
1.027584
0.990629
1.142621
1.085997
1.146793
1.217723
1.194477
1.249909
1.123548
1.285672
1.331568
1.278520
1.286864
1.306534
1.252890
1.405478
1.592636
1.643896
1.697540
1.865625
1.891851
1.952648
2.093911
2.147555
2.385974
2.561808
2.822876
3.260970
4.315972
21.505952
74.344873
251.387954
506.052971
984.945893
1016.201973
1016.201973
1016.201973
1016.201973
1016.201973
1016.201973
1016.201377
714.599490
429.896712
193.507671
91.642737
28.355718
15.597939
13.407469
13.563633
13.938546
14.139414
15.517473
18.164515
23.105741
28.522611
38.394928
46.652555
59.195757
68.029761
76.279640
77.947974
76.363683
71.282983
61.043501
52.758455
41.562915
34.724474
28.432608
##ZVALUE=355
0.794530
0.935793
0.847578
0.890493
0.899434
0.820756
0.981688
0.896454
0.891685
1.017451
0.863671
1.077652
0.915527
0.945926
0.874996
1.010895
0.895858
0.928640
0.889897
0.975728
1.094937
1.021624
1.087785
1.100898
0.982881
0.912547
1.045465
1.225471
1.104474
1.146793
1.261830
1.156926
1.062751
1.210570
1.296997
1.266599
1.308918
1.205802
1.236796
1.221895
1.289845
1.422763
1.467466
1.509786
1.411438
1.473427
1.628995
1.459718
1.839995
1.762509
1.733899
1.789927
2.008677
2.111793
2.343655
2.773404
2.671480
3.083944
3.447533
10.059476
38.319826
160.191059
348.552465
762.425661
1016.201973
1016.201973
1016.201973
1016.201973
1016.201973
1016.201973
1016.201973
937.346816
574.129820
245.022774
115.912557
37.018657
17.241836
13.400912
12.830496
13.129711
13.392568
13.954639
14.566779
17.095804
19.661784
25.699735
32.701492
42.912960
50.661564
61.243773
67.185760
71.651936
70.724487
64.839721
59.097409
49.411654
##ZVALUE=360
0.859499
0.846982
0.815988
0.795722
1.021624
0.990629
0.981688
0.937581
1.009703
0.939965
1.036525
0.934601
0.960827
0.950694
0.886917
0.856519
0.966787
1.022816
0.945926
1.040697
1.002550
1.165867
1.140833
1.199841
1.167655
1.156926
1.154542
1.049638
1.185536
1.064539
1.047850
1.197457
1.282692
1.272559
1.169443
1.268983
1.314878
1.342893
1.196861
1.358986
1.274943
1.373887
1.474619
1.616478
1.645684
1.587868
1.666546
1.500845
1.736879
1.802444
1.826882
1.782775
1.868606
2.168417
2.260804
2.414584
2.406836
2.708435
2.756715
3.157854
3.690720
5.592704
17.244816
81.936717
205.745697
529.279709
920.559764
1016.200781
1016.200781
1016.200781
1016.200781
1016.200781
1016.200781
1016.200781
777.397752
363.681912
182.904601
64.693689
25.912523
13.080835
12.244582
12.575984
12.383461
12.878776
12.846589
13.516545
14.971495
18.023849
21.356940
27.955770
35.156608
45.156479
52.353740
59.750676
64.036846
64.788461
##ZVALUE=365
0.871420
0.784993
0.905991
0.916719
0.799894
0.843406
0.991821
0.843406
0.755787
0.816584
0.869632
0.985861
1.087785
0.865459
0.883937
0.918508
0.922680
1.126528
0.869632
1.153946
0.878572
0.911951
1.138449
0.989437
1.036525
1.042485
1.020432
1.062751
1.231432
1.031756
1.169443
1.173615
1.219511
1.393557
1.122952
1.230836
1.217723
1.249909
1.434684
1.383424
1.327991
1.287460
1.264811
1.402497
1.462698
1.351833
1.537800
1.489520
1.288652
1.609921
1.470447
1.729727
1.911521
1.971722
1.856685
2.036691
2.089739
2.412796
2.455711
2.636909
2.874732
3.288984
3.439784
4.041791
7.499456
43.869615
121.438503
346.193910
669.210553
1016.201973
1016.201973
1016.201973
1016.201973
1016.201973
1016.201973
1016.201377
980.188847
535.946488
279.693604
95.296502
36.047697
13.602972
11.335611
11.349916
11.352897
11.425614
11.445880
11.792779
11.871457
13.272762
15.031695
19.253492
23.429990
31.929612
39.030910
47.400594
##ZVALUE=370
0.837445
0.870824
0.750422
0.862479
0.845790
0.799894
0.945926
0.715852
0.845790
0.898838
0.815988
0.969768
0.933409
0.837445
0.868440
0.885725
0.763535
0.858903
0.929832
0.784993
0.893474
0.917912
0.908971
0.921488
1.057982
0.950694
0.949502
0.985861
1.052618
1.044869
0.732541
0.999570
1.055598
1.126528
1.116991
1.156926
1.140833
1.221895
1.195669
1.172423
1.200438
1.221895
1.109838
1.151562
1.194477
1.358986
1.296997
1.321435
1.312494
1.402497
1.303554
1.373887
1.567602
1.564622
1.653433
1.778603
1.766682
1.847744
1.835823
2.039671
2.376437
2.444983
2.644658
2.806783
3.034472
3.566742
4.779696
23.284554
82.054734
284.107924
548.212528
999.087691
1016.123891
1016.123891
1016.123891
1016.123891
1016.123891
1016.123891
1016.123891
674.510598
372.918844
141.444802
60.331821
18.530488
11.391640
10.532737
10.416508
10.552406
10.489821
10.663867
10.706782
10.783672
11.765957
13.513565
16.007423
20.797849
##ZVALUE=375
0.922680
0.916719
0.918508
0.801682
0.941753
0.963807
0.946522
0.872612
0.929832
0.996590
1.028776
0.933409
0.732541
0.884533
0.983477
0.803471
0.978708
0.796914
0.879765
0.894666
0.764728
0.824928
0.976920
0.945926
1.036525
0.848770
0.895858
0.938773
0.902414
0.995994
1.082420
0.992417
1.048446
1.144409
1.235604
1.072884
1.081824
0.984669
1.007915
0.970960
1.358986
1.118779
1.286864
1.193881
1.260638
1.137853
1.088977
1.364946
1.249909
1.293421
1.263618
1.278520
1.513958
1.597404
1.505613
1.568794
1.654625
1.621842
1.753569
1.715422
1.728535
2.111793
2.136827
2.148747
2.193451
2.448559
3.031492
3.269911
3.977418
11.151433
41.679740
166.710615
369.891524
868.575573
1016.201973
1016.201973
1016.201973
1016.201973
1016.201973
1016.201973
1016.201973
944.082737
569.214821
244.131684
116.985440
34.896731
14.897585
10.340810
9.818673
9.733438
9.910464
9.840727
9.766817
10.156631
10.304451
11.090636
##ZVALUE=380
0.790954
0.805855
0.845790
0.854731
0.832677
0.822544
0.841618
0.867844
0.781417
0.782609
0.941753
0.972748
1.084805
0.883937
0.760555
0.955462
0.948906
0.973940
0.861883
0.911951
0.784993
0.764728
1.119971
1.114607
0.960827
0.962615
0.822544
0.852942
0.918508
0.978708
0.912547
1.072884
0.989437
1.111627
0.986457
0.999570
1.150966
0.989437
1.132488
1.067519
1.018643
1.051426
1.120567
1.098514
1.084805
1.285672
1.130700
1.167655
1.146793
1.153946
1.237988
1.490712
1.335740
1.342893
1.329780
1.432896
1.481771
1.548529
1.592636
1.471639
1.568794
1.645684
1.623631
1.752973
2.052784
2.081990
2.445579
2.603531
2.878904
3.595948
3.979802
6.152987
19.831657
103.538036
254.516602
637.087822
1007.819772
1016.201973
1016.201973
1016.201973
1016.201973
1016.201973
1016.201973
1016.201973
867.971778
403.028727
196.305513
62.557459
23.994446
10.643601
9.356737
8.969903
9.035468
8.790493
9.124875
9.266734
##ZVALUE=385
0.853539
0.724792
0.795722
0.727773
0.893474
0.836849
0.877976
0.895858
0.705719
0.714660
0.791550
0.887513
0.895858
0.734925
0.849962
0.893474
0.701547
1.040697
0.943542
0.938773
0.798702
0.900626
0.887513
0.888705
0.913739
0.969768
0.818968
0.911951
0.980496
0.977516
0.903606
0.919700
0.978708
0.911951
1.011491
0.993609
1.020432
0.921488
0.926852
0.926852
1.052618
1.244545
1.041889
1.088977
1.127720
1.072884
1.035929
1.092553
1.220703
1.202822
1.062751
1.229644
1.176000
1.198649
1.276731
1.347661
1.392961
1.291633
1.373887
1.253486
1.367927
1.496673
1.613498
1.557469
1.831651
1.764894
1.984835
2.191663
2.629757
2.811551
2.915859
3.191829
3.544688
4.293919
9.927750
60.723424
172.004700
462.272763
848.233700
1016.216874
1016.216874
1016.216874
1016.216874
1016.216874
1016.216874
1016.216874
1016.216874
573.451519
311.373472
119.086504
45.296550
12.703538
8.732677
8.441806
8.386970
8.111596
##ZVALUE=390
0.684857
0.788569
0.758767
0.757575
0.668764
0.796914
0.896454
0.904799
0.747442
0.739694
0.862479
0.793934
0.822544
0.725985
0.814795
0.709891
0.670552
0.768900
0.829697
0.734925
0.828505
0.796914
0.856519
0.724792
0.788569
0.755787
0.915527
0.842810
0.939965
0.897646
0.856519
0.972748
0.872612
1.044869
0.863671
0.958443
0.938773
0.870824
0.959635
1.074672
0.947714
1.041889
0.889897
1.002550
0.973940
1.013875
1.153946
1.122952
1.096725
0.989437
1.128912
0.998974
1.020432
1.136661
1.100898
1.150966
1.151562
1.217723
1.333952
1.417994
1.353621
1.390576
1.366735
1.565814
1.606941
1.721978
1.974702
2.011657
2.206564
2.485514
2.626777
2.613664
2.962947
3.306866
3.348589
3.583431
5.447865
30.295849
99.125504
330.628753
648.775697
1016.196012
1016.196012
1016.196012
1016.196012
1016.196012
1016.196012
1016.196012
1016.196012
826.516747
467.425585
180.345774
76.676607
19.389987
9.614825
7.894635
##ZVALUE=395
0.647902
0.822544
0.804663
0.683665
0.713468
0.613928
0.631809
0.646710
0.698566
0.813603
0.817776
0.911951
0.834465
0.747442
0.642538
0.795722
0.673532
0.842810
0.677705
0.709891
0.805855
0.790954
0.907779
0.736713
0.559688
0.604987
0.874996
0.754595
0.827909
0.800490
0.900626
0.982881
1.004934
0.841618
0.762939
0.948906
0.867844
0.905991
0.977516
0.946522
0.886917
0.960827
1.015663
1.029968
1.006722
1.015663
0.965595
0.911951
1.197457
1.212955
1.131892
1.019835
1.207590
0.947714
1.079440
1.218915
1.215935
1.159906
1.334548
1.248717
1.301765
1.483560
1.533628
1.482964
1.570582
1.609921
1.802444
1.979470
2.111793
2.346635
2.754927
2.555847
2.742410
2.610683
2.863407
3.015995
3.034472
3.229976
3.871918
16.337633
60.771704
226.532817
460.854769
940.816998
1016.163826
1016.163826
1016.163826
1016.163826
1016.163826
1016.163826
1016.163826
989.641547
622.722507
251.458883
114.319921
34.344792
##ZVALUE=400
0.800490
0.673532
0.689626
0.565648
0.840425
0.885725
0.753999
0.948906
0.732541
0.883937
0.824928
0.734925
0.825524
0.792742
0.769496
0.921488
0.664592
0.744462
0.883937
0.751615
0.789762
0.820756
0.898838
0.908971
0.879765
0.914931
0.921488
0.848770
0.832677
0.893474
0.832677
0.817776
0.935793
0.748634
0.874996
0.875592
0.884533
1.139641
0.947714
0.908971
0.987649
0.763535
1.016855
1.062751
1.202822
0.974536
1.044869
1.006722
0.871420
1.061559
1.097918
1.067519
1.114607
1.225471
1.197457
1.214743
1.128912
1.075864
1.375675
1.231432
1.269579
1.333952
1.448989
1.409650
1.520514
1.428723
1.776814
2.050996
2.089739
2.208948
2.380610
2.504587
2.501607
2.446771
2.464652
2.462864
2.558827
2.773404
2.956986
3.453493
3.647804
9.028912
34.133792
140.224695
310.617685
725.047588
1016.201973
1016.201973
1016.201973
1016.201973
1016.201973
1016.201973
1016.201973
1016.201973
788.021684
365.861654
##END
