##TITLE=FAAI0801
##FORMAT=SPECTACLE-ASCII V-1.2
##DATA TYPE=ULTRAVIOLET SPECTRUM
##SECOND TYPE=ULTRAVIOLET SPECTRUM
##DATE=02/28/18
##TIME=16:20:34
##SPECTROMETER/DATA SYSTEM=SPECTACLE
##XUNITS=NM EM
##YUNITS=ENERGY
##YFACTOR=1
##FIRSTX=220
##LASTX=410
##NPOINTS=96
##3DDATA=Equidistant
##ZUNITS=NM EX
##FIRSTZ=210
##LASTZ=400
##ZPOINTS=39
##XYDATA=(Y..Y)
##ZVALUE=210
5.871654
6.952882
6.268620
5.379915
5.410910
4.205704
4.548430
6.206632
5.636811
5.331635
5.278587
4.455447
4.883409
4.837513
6.345510
5.345941
6.381869
6.222725
7.066727
7.617474
7.085800
8.376837
9.976625
9.036660
9.262562
11.171699
9.758472
10.286570
10.869503
10.996461
11.867881
11.089444
11.673570
12.748837
11.079907
13.022423
12.369752
12.272596
12.514591
14.253855
13.490915
13.696551
13.687611
15.042424
12.760758
14.469624
13.925433
14.558434
15.354753
14.387965
16.178489
15.806556
16.102791
17.540455
17.537475
17.499924
17.513633
16.373992
17.662644
19.058585
18.732548
18.679500
17.150640
18.061996
18.978715
18.828511
20.073652
23.030639
26.135445
30.631423
37.159920
43.838620
55.879951
63.738823
72.209835
75.563788
80.579519
84.226727
82.058907
86.042881
78.116655
69.636703
58.818460
49.536824
39.640665
31.304955
27.301908
22.816658
20.929575
20.036697
17.701983
19.705892
20.187497
21.442771
21.639466
21.908879
##ZVALUE=215
37.992001
36.830902
32.962561
26.664734
17.942786
14.218688
12.080669
10.607839
10.272861
9.920597
8.869767
8.810759
9.483695
7.382631
7.300973
6.544590
7.197857
7.526875
8.495450
8.331537
9.587407
9.637475
9.281635
10.506511
11.324883
12.067556
12.886524
12.852550
12.596846
14.360547
14.004707
13.956428
14.497638
15.665889
15.420914
15.915632
16.462803
15.847683
15.294552
17.741919
17.915964
15.992522
17.393827
19.621849
16.478896
18.241405
18.226504
19.565821
18.179417
19.350648
18.787980
19.507408
19.887686
18.688440
18.630624
19.315481
20.040870
19.884706
20.218492
20.563602
20.007491
21.233559
21.504760
21.056533
22.334456
23.171902
24.864674
26.678443
27.495623
34.563541
37.757754
48.227906
51.980615
64.038634
70.034862
79.692602
80.401897
85.358620
83.556771
80.104470
77.932477
70.883632
62.749982
51.645637
46.168566
36.860704
30.890703
24.652481
23.072958
20.576715
20.205975
19.442439
18.454790
18.803477
18.857718
19.697547
##ZVALUE=220
98.040700
99.158883
104.225874
100.305676
93.025565
71.571469
49.558878
31.138659
21.349788
17.176867
19.282699
18.267632
19.742846
17.715693
13.510585
13.866425
10.210872
8.753538
7.938743
9.462833
9.631515
9.651780
9.162426
10.882616
10.302663
10.882616
12.824535
12.249947
13.166666
14.193654
13.372898
14.822483
14.911890
14.903545
15.167594
16.569495
15.940666
16.073585
16.839504
19.094944
18.266439
16.629696
18.992424
17.423630
18.073916
17.559528
18.946528
18.550754
17.936826
19.203424
19.355416
18.282533
18.857718
19.800663
18.962622
18.367767
18.751621
19.957423
19.007921
20.603538
19.264817
20.429492
19.768476
21.305680
19.520521
20.346642
19.751787
23.613572
26.006699
29.059649
34.823418
44.242740
47.803521
57.914853
60.364604
67.496896
68.887472
71.474910
72.417855
71.725845
67.780614
62.353611
54.651499
44.368505
37.161708
28.163791
24.301410
18.986464
17.323494
15.556812
16.110539
15.724897
15.332699
14.765859
13.632774
15.309453
##ZVALUE=225
113.603473
110.648870
136.654973
167.574883
168.506503
152.367949
130.953789
93.748569
71.466565
50.631762
34.467578
33.841729
33.094883
33.214688
34.007430
30.750632
23.148656
21.432638
15.787482
11.954904
8.849502
8.025765
6.997585
7.292628
8.135438
8.352995
8.484721
8.680820
8.262992
9.534955
9.954572
9.462833
9.412766
10.926723
11.841655
10.966659
10.571480
11.143684
10.698438
10.968447
10.416508
11.765957
10.255575
10.110736
10.795593
9.973645
10.579824
10.213852
9.978414
9.817481
9.265542
10.974407
9.397864
10.055900
9.747744
10.274649
10.634661
8.981824
9.258986
9.573698
8.864999
9.546876
9.204745
9.306669
9.833574
8.974671
9.693503
9.490848
10.618567
11.817813
11.505485
13.486743
14.273524
16.470551
16.617775
19.835830
19.670725
21.255612
23.526549
19.899607
22.208691
18.679500
18.739700
16.068816
15.508533
13.359785
11.954904
10.452867
9.676814
9.513497
7.950664
8.979440
7.976890
8.558631
8.862615
7.231832
##ZVALUE=230
54.418445
61.235428
96.262693
146.272779
182.582736
222.032666
231.506824
232.472420
209.982991
166.492462
110.068917
72.583556
52.800775
50.275922
49.613714
52.391887
56.312680
51.030517
47.306418
38.882494
29.166937
19.660592
14.379621
8.279681
7.687807
6.008744
7.234812
6.435513
7.780790
7.569790
7.922649
8.926988
8.683801
8.874536
10.236502
10.006428
9.211898
10.156631
11.365414
10.156631
9.958744
8.983612
9.921789
9.867549
8.888841
8.592606
9.961724
8.673668
9.499788
8.608699
8.812547
9.571910
9.735823
9.950995
9.843707
9.507537
8.731484
8.983612
10.173917
10.171533
11.312962
10.237694
9.795427
11.513829
11.320710
10.878444
10.779500
12.560487
13.645887
15.192628
15.639663
17.472506
20.135641
21.738410
23.718476
25.823712
26.725531
26.134849
25.142431
24.975538
24.739504
22.316575
20.603538
18.615723
16.306639
13.153553
13.242960
11.548996
11.712909
10.550618
11.516809
11.140704
10.437965
11.355877
10.784864
11.824965
##ZVALUE=235
23.125410
27.770996
59.341788
126.534700
197.846889
302.287936
366.437435
446.492434
461.607575
440.124869
374.750495
290.460587
185.127854
127.580762
91.575980
77.435970
77.229738
84.333420
86.614490
85.143447
84.031820
68.934560
57.452917
37.968755
27.529597
18.067956
12.593865
9.439588
9.288788
10.364652
9.791851
9.864569
9.609461
10.618567
10.913610
11.040568
10.123849
10.715723
10.910630
11.410713
11.059642
11.049509
10.387897
10.560751
9.992719
10.107756
10.942817
11.711717
10.725856
9.664893
10.137558
10.381937
10.154843
10.788441
10.211468
9.841919
10.952950
11.750460
11.837482
10.350943
11.396408
10.833740
11.210442
11.668801
10.943413
9.739995
11.280775
11.406541
13.026595
12.742877
15.416741
16.648769
17.207861
17.950535
18.942952
18.003583
18.085837
18.133521
17.297864
17.743707
16.506910
15.228987
14.417768
15.328526
14.767647
12.583733
13.718605
11.874437
11.546612
11.370778
11.703968
12.097955
11.680722
10.530949
10.872483
11.192560
##ZVALUE=240
2.558827
2.314448
8.122921
19.080639
49.162507
88.072419
165.374875
249.874592
372.114778
442.087650
508.207679
504.582524
469.234586
378.292799
294.197798
188.042521
130.378604
100.291967
96.513629
107.004642
118.766427
123.115778
116.435885
105.466843
83.185434
68.392754
47.640800
36.074519
23.806691
15.399456
12.762547
10.450482
10.844469
9.944439
9.964705
10.976791
10.271668
9.739995
9.348989
8.829832
10.243654
10.371804
9.887815
9.955764
11.579990
9.870529
9.570718
10.395646
9.963512
9.718537
9.491444
10.247827
9.842515
11.084676
10.863543
9.985566
11.252761
10.867715
10.866523
10.136962
12.487769
11.583567
12.522936
11.804700
11.095405
12.098551
13.022423
13.936758
13.768673
16.344786
16.493797
20.829439
22.611618
23.621917
25.010705
23.031831
25.311708
23.428798
23.274422
22.791624
22.248626
20.067692
18.868446
18.064976
17.472506
16.229749
16.522408
15.774965
15.443563
15.243888
14.926791
15.733838
14.182925
13.400912
15.073419
14.156699
##ZVALUE=245
1.965761
1.808405
2.097487
2.054572
5.132556
16.644597
39.309859
99.723935
174.304843
277.446508
446.634889
559.961796
680.418611
695.766807
649.334788
561.258793
404.103994
283.693671
198.552608
124.588609
103.549957
103.968978
118.689537
139.433742
139.134526
130.997896
120.993853
99.166632
79.173446
54.926872
39.206743
24.127960
18.331409
12.291670
11.016726
11.442900
11.013746
11.137724
10.328889
10.178685
10.197759
10.317564
10.205507
10.473728
9.837747
10.609627
10.109544
10.403991
11.559725
10.331869
10.677576
10.012984
9.263754
10.172725
9.382963
11.315942
10.310411
10.016561
10.386705
10.921955
10.572672
10.876656
10.957718
10.640621
11.230707
12.777448
11.941791
13.433695
13.505816
15.988946
18.964410
19.723773
23.970604
24.113655
24.971962
25.854707
25.346875
23.582578
23.374557
22.042990
20.558834
20.114779
19.612908
17.098784
17.287731
16.047955
15.029907
15.009642
15.388727
14.823675
14.908910
14.839768
15.115738
15.495420
15.161633
14.460683
##ZVALUE=250
1.522899
1.679659
1.505613
1.519918
2.035499
1.999736
3.004670
8.516908
34.497976
74.650645
188.807845
313.478708
459.449887
690.926909
828.640461
935.591459
922.863483
803.323984
655.601621
425.615907
266.900659
163.272619
105.074644
96.804500
113.690495
130.503774
145.598650
149.433613
145.509839
131.987929
113.811493
81.198812
64.412951
40.986538
27.425885
17.911792
14.248490
11.811852
10.996461
10.818839
10.106564
10.571480
10.714531
10.663867
9.887815
11.445880
9.785891
10.115504
9.888411
10.521412
10.704994
9.774566
9.866953
9.290576
10.056496
9.926558
9.715557
10.038614
9.638667
10.441542
9.954572
10.077953
10.577440
10.407567
11.187792
11.460781
11.534691
12.754798
13.906956
14.956594
17.380714
19.703507
20.360947
21.687746
22.967458
23.322701
23.710728
24.011731
22.752881
20.964742
21.780729
19.959807
18.561482
17.704964
16.236901
15.464425
14.678836
14.921427
15.192628
13.943911
15.313625
14.770627
14.362931
15.173554
15.081763
15.852451
##ZVALUE=255
1.719594
1.366735
1.747608
1.516938
1.672506
1.887679
1.710653
1.783967
1.990795
4.124641
19.157529
48.233867
123.973489
218.512416
414.247513
625.640750
914.226770
1015.710831
1015.710831
1015.710831
1015.710831
748.581886
506.137013
236.960649
131.266713
91.825724
94.466805
115.680695
130.468607
149.755478
153.585672
149.227977
136.070848
108.409524
87.329745
60.035586
40.769577
26.080608
17.904639
12.547970
9.893775
9.404421
9.204745
10.263920
8.667707
9.227991
9.715557
9.865761
9.115934
9.510517
8.649826
9.106994
8.376837
8.886456
9.175539
7.967949
9.046793
8.766651
8.392930
9.549856
8.623600
9.078979
8.986592
9.943843
9.469986
9.804964
10.288954
11.524558
11.674762
13.428926
14.136434
16.297698
16.408563
18.097758
18.271804
18.445849
18.645525
17.811656
18.210411
16.393661
15.311837
15.479922
15.443563
14.063716
15.032887
13.811588
14.425516
12.569427
14.303923
14.537573
13.848543
13.689995
13.231635
13.738871
14.109612
14.441609
##ZVALUE=260
1.236796
1.285672
1.345873
1.496673
1.300573
1.708865
1.831651
1.766682
1.616478
1.511574
1.886487
3.354549
8.526444
33.086538
69.500804
154.318810
262.935758
471.573472
659.006834
935.514569
1015.712023
1015.712023
1015.712023
953.240395
647.557974
441.326499
233.497620
130.973458
81.024766
89.259744
112.080574
131.914616
150.985718
157.912970
157.256722
137.138963
114.665627
84.504485
62.728524
39.489865
26.757717
16.800761
11.246800
9.526610
8.741617
8.226633
8.175969
8.176565
7.687807
8.554459
7.707477
7.948875
7.866621
6.960630
7.345676
7.176995
6.999969
7.483959
6.774664
7.070899
7.060766
7.277727
7.222891
7.372499
7.235408
7.251501
7.170439
8.491874
9.132624
9.234548
9.637475
10.399818
10.840893
12.617707
12.402534
12.805462
13.652444
12.920499
13.169646
12.175441
12.377501
12.184978
12.097955
11.249781
11.749864
10.537505
10.658503
11.051893
11.168718
11.388659
11.390448
10.414720
10.697842
10.738969
11.856556
11.607409
##ZVALUE=265
1.410842
1.278520
1.454949
1.405478
1.357794
1.741648
1.591444
1.626611
1.739860
1.656413
1.665950
1.949668
2.036691
2.185702
4.284978
19.343495
45.826435
112.660527
195.026994
380.049944
562.301874
763.770938
997.840762
1015.931964
1015.931964
901.126862
659.689903
460.490584
239.999890
132.574439
79.145432
70.088506
83.365440
115.310550
134.433508
156.135559
162.220001
155.022740
139.617920
110.282898
87.635517
57.347417
39.876699
23.624897
15.768409
9.847879
8.386970
7.201433
7.161498
6.592870
6.710887
7.298589
6.609559
6.223917
6.623864
6.330609
6.400943
5.846620
6.007552
5.858541
5.730987
6.359816
5.953908
6.012917
6.825924
6.203651
6.191730
6.381869
7.365942
7.876754
8.094907
8.975863
9.570718
9.693503
10.055900
10.249615
10.823607
10.934472
10.216832
10.824800
9.856820
10.066628
9.626746
10.481477
10.655522
10.230541
9.974837
9.467602
9.918809
9.485483
9.471774
10.558963
9.821653
11.357665
10.452867
10.114908
##ZVALUE=270
1.153946
1.054406
1.166463
0.913739
0.924468
0.990629
1.219511
1.205802
1.185536
1.484752
1.231432
1.398921
1.657605
1.533628
1.580715
2.025962
2.818704
7.890463
23.076534
74.065924
144.997835
296.289921
443.949699
686.698556
891.950727
1015.710831
1015.710831
1015.710831
994.728804
721.912980
506.365895
251.346827
127.377510
62.912703
65.011978
87.943673
110.823512
141.677856
155.564547
163.304806
157.160759
136.788487
115.720630
82.452893
60.154796
36.563873
25.404692
14.212728
9.796619
7.529855
6.755590
6.560683
6.487966
6.165504
6.365776
6.308556
6.266832
6.303787
6.060600
5.939603
5.612969
6.128550
5.809665
5.986691
5.832911
5.979538
6.332994
6.634593
6.795526
7.211566
7.628798
7.834435
7.816553
8.320808
9.227991
9.541512
8.926988
9.373426
9.383559
9.193420
8.945465
8.840561
8.660555
8.522868
9.272695
8.741617
8.577704
9.290576
8.677840
9.193420
8.704662
9.438992
9.076595
9.558797
9.360909
9.789467
##ZVALUE=275
0.971556
1.030564
0.974536
0.840425
0.804663
0.849962
0.848770
1.021624
0.974536
1.004934
1.215935
1.036525
0.920892
1.158714
1.077652
1.292825
1.220703
1.515746
1.738667
4.303455
15.480518
41.532516
115.548968
213.900805
393.366814
539.188981
719.708800
844.448805
929.064751
913.053751
797.301531
660.459995
418.074727
267.043710
129.317641
71.818829
48.995614
58.987737
86.321831
108.248591
136.575699
152.645707
156.655908
154.526830
136.265755
114.190578
83.158612
62.238574
38.824677
25.355816
13.782978
9.253621
6.645918
5.959868
5.356669
5.088449
5.274415
5.266666
5.658865
5.568862
5.795956
5.060434
5.226731
5.804896
5.858541
5.009770
5.691648
5.755424
5.782843
6.558895
6.415844
6.934404
7.532835
7.389784
7.557869
7.489920
7.951856
7.691979
7.850528
8.097887
7.802844
7.780790
8.314848
7.292628
7.786751
7.503629
7.499456
7.280707
7.743835
7.887483
7.850528
8.256435
8.311868
7.659793
7.880926
7.680655
##ZVALUE=280
0.793934
0.893474
0.845790
1.089573
0.877976
0.765920
0.781417
0.963807
0.873804
0.858903
1.024604
0.847578
1.053810
1.077652
1.059771
1.070499
1.224875
1.193881
1.262426
1.334548
1.314878
2.173781
7.764697
36.671758
81.647635
188.774467
293.542743
473.621488
608.834624
755.328536
821.176767
800.357461
715.162754
545.119643
402.998924
231.156945
139.889717
65.138936
41.792989
41.235685
56.256652
83.864927
108.014941
134.032965
148.513913
154.472589
149.692893
128.935575
109.686852
80.519915
59.231520
37.821531
25.049448
13.301969
9.085536
6.451607
5.613565
5.404949
5.178452
5.059838
5.395412
5.207658
5.499721
5.465746
5.273819
5.450845
5.665421
5.581975
5.932450
5.443692
6.457567
6.572604
6.749630
7.098913
7.272959
7.027984
7.546544
6.944537
7.353425
7.547736
7.471442
7.345676
7.624626
7.559657
7.559657
7.623434
7.517934
7.760525
8.118749
7.632971
8.224845
7.776618
8.298755
7.570982
7.673502
7.517934
##ZVALUE=285
0.819564
0.670552
0.941753
0.860691
0.886917
0.752807
0.810623
1.023412
0.766516
0.923872
1.025796
0.936985
0.779629
1.082420
1.024604
1.007915
0.869632
1.111627
0.990629
1.191497
1.224875
1.564622
1.545548
1.689792
4.158616
14.720559
51.934719
106.951594
231.189728
353.350639
532.552004
667.319894
799.946785
834.185481
769.003034
664.298534
477.465987
326.490998
173.298717
99.074841
45.450926
31.472445
35.783648
51.368475
77.740550
100.010633
127.313733
141.147971
148.819685
146.268606
129.922628
110.160708
83.806515
62.179565
39.009452
25.224686
13.526678
9.230971
6.397963
5.784631
5.066991
5.133748
5.375743
5.613565
5.256534
5.410910
5.885959
5.976558
6.529689
5.894899
6.635785
6.665587
6.692410
7.384419
7.003546
7.242560
7.146597
7.203817
7.295609
7.541776
7.592440
7.244945
7.610917
7.661581
7.585883
7.831454
7.644892
7.682443
8.185506
8.255839
7.873774
7.813573
8.151531
7.910728
7.873774
8.149743
##ZVALUE=290
0.628829
0.691414
0.773668
0.673532
0.856519
0.744462
0.608563
0.651479
0.618696
0.596642
0.693798
0.857711
0.764728
0.864863
0.831485
0.982881
0.911951
1.137853
1.207590
1.041889
1.093745
1.232624
1.227856
1.291633
1.300573
1.506805
2.228618
6.328821
28.448701
68.992972
134.781599
275.192857
416.738987
616.924763
743.932724
832.749009
818.104744
701.567531
571.503639
383.030772
253.529549
127.481818
67.376494
29.817820
23.541451
33.788681
48.699975
72.759986
92.707872
121.501684
135.690570
146.300793
142.529607
126.508474
108.588934
79.556704
59.466958
36.259890
26.132464
14.054775
9.364486
6.543994
5.354881
5.199909
4.993677
5.655885
5.259514
5.984902
5.611777
6.180406
6.640553
6.697774
6.672740
7.411838
7.101893
7.140636
7.143617
7.259846
7.281899
7.305741
7.486939
7.491708
7.202625
8.210540
7.539988
7.762909
7.760525
8.068681
8.558631
8.071661
8.190870
7.731915
7.979870
8.192658
8.026958
7.837415
##ZVALUE=295
0.687838
0.691414
0.700951
0.545979
0.869632
0.785589
0.896454
0.891685
0.833869
0.900626
0.590682
0.726581
0.976920
0.770688
0.623465
0.786781
0.802875
0.894666
0.953674
0.826716
1.020432
0.955462
1.118779
1.212955
1.005530
1.163483
1.432896
1.491904
1.673698
3.061891
9.455681
41.659474
94.182491
218.587518
348.104835
547.256470
680.475831
804.187655
833.090544
759.129524
644.089580
460.225940
318.477750
168.715715
92.896819
36.821961
21.265745
20.308495
28.026700
46.850443
65.275431
91.027617
110.885501
130.517483
138.007998
134.501457
125.257969
100.383759
80.481768
55.764914
40.524602
23.423433
15.123487
9.432435
7.100701
5.978942
5.335808
5.588531
5.684495
5.866885
5.985498
6.524920
6.899834
7.252693
7.189512
7.309914
7.470846
7.661581
7.263422
7.320642
7.582903
8.052588
7.882714
7.616878
8.200407
7.877946
7.991791
8.091927
8.317828
8.159876
7.907748
8.448958
8.099675
7.924438
8.272529
8.359551
##ZVALUE=300
0.724792
0.788569
0.800490
0.548959
0.782609
0.803471
0.774860
0.585914
0.812411
0.660419
0.524521
0.703931
0.727773
0.634789
0.782609
0.645518
0.746846
0.817776
0.924468
0.875592
0.934601
1.009703
0.957847
1.054406
1.080632
1.024604
1.233816
1.241565
1.309514
1.313686
1.392961
1.600981
6.115437
21.687746
74.598789
144.568682
292.610526
435.765982
631.211996
750.645995
830.769539
818.716884
699.756742
567.672849
371.917486
243.546963
123.060942
64.960718
25.497675
15.516877
17.595887
25.372505
41.872859
58.434606
84.018707
103.412867
123.104453
128.992796
127.924681
119.403601
99.006891
80.913901
56.745410
40.368438
24.341941
16.173720
9.734631
7.410645
6.253719
6.054640
6.360412
6.747842
6.832480
7.110834
7.127523
6.948709
7.494688
7.106662
7.573962
7.437468
7.591844
8.167624
7.997751
8.415580
8.250475
8.017421
8.238554
8.276701
8.390546
8.015633
8.162856
8.478761
8.393526
8.482933
8.336902
8.217692
##ZVALUE=305
0.644922
0.621676
0.644922
0.562668
0.649691
0.631809
0.572801
0.812411
0.734925
0.577569
0.733733
0.808835
0.863671
0.767708
0.768900
0.690818
0.752807
0.637770
0.785589
0.589490
0.726581
0.947714
0.919700
0.856519
0.874996
0.829697
1.064539
0.962615
1.200438
1.122952
0.799894
1.289845
1.402497
1.684427
2.640486
15.414953
43.684840
119.355917
214.700699
392.003655
539.207458
722.392797
815.240741
845.499635
777.904987
606.611967
469.288826
290.896893
179.985762
80.332756
40.698647
16.396642
12.140870
16.068816
24.040937
39.689541
56.014657
80.903769
97.351670
116.442442
123.530626
122.104883
112.587810
96.745491
76.679587
54.061413
38.295984
24.260879
15.278459
9.892583
8.057952
6.873608
6.954670
6.731749
6.777644
7.284880
7.050633
7.311702
7.146597
7.471442
7.699728
7.609725
7.961988
8.240938
8.231997
8.435845
8.683801
8.084774
8.568764
8.542538
8.240938
8.497834
8.304715
8.476973
8.346438
8.314848
##ZVALUE=310
0.624657
0.644922
0.546575
0.516772
0.524521
0.742674
0.567436
0.573993
0.677705
0.660419
0.645518
0.644922
0.748634
0.686646
0.634789
0.719428
0.705719
0.511408
0.788569
0.802875
0.721812
0.821948
1.045465
0.913739
0.720620
1.000762
1.070499
0.811815
0.924468
0.980496
1.131892
1.119971
1.157522
1.144409
1.282692
1.320839
1.635551
6.067753
21.209717
71.086884
139.603615
286.270976
443.396568
660.029650
788.500905
886.699557
871.457458
739.233494
598.474741
392.292738
254.215598
124.098659
66.476464
24.803877
12.219548
10.735989
13.991594
22.849441
33.752918
51.304698
69.173574
92.684627
105.341673
115.265846
118.668675
108.246803
95.557570
74.482560
56.225657
36.923885
25.672913
16.299486
11.418462
8.398890
7.629991
7.045865
7.035732
6.940961
7.231832
7.292628
7.099509
7.897615
7.833838
7.959604
8.138418
8.495450
8.594990
8.235574
8.826852
8.508563
8.288622
8.285642
8.491874
8.160472
8.558631
8.324981
##ZVALUE=315
0.451803
0.585914
0.434518
0.629425
0.715852
0.666976
0.757575
0.634789
0.592470
0.828505
0.790954
0.759959
0.745654
0.733733
0.611544
0.450611
0.627637
0.792742
0.583529
0.820756
0.696778
0.868440
0.750422
0.816584
0.899434
0.906587
0.705719
0.829697
0.846982
0.717640
0.976920
0.920892
1.129508
1.140833
1.240969
1.172423
1.324415
1.489520
1.692772
3.032684
9.954572
43.098927
94.936490
211.478472
343.925953
547.881722
679.361820
799.133778
829.734802
757.963657
640.894771
455.614924
316.548944
163.136721
89.475513
33.854842
15.919805
9.144545
9.453893
13.414621
19.079447
32.030940
45.724511
65.888762
82.247853
100.068450
108.581781
110.460520
103.842616
87.026954
72.278976
53.223968
38.311481
23.317933
16.064644
10.995865
8.659959
7.577538
7.465482
7.076859
7.130504
7.464886
7.339716
8.011460
7.496476
7.679462
7.801652
8.254647
8.113980
8.386970
8.017421
8.148551
8.406639
8.286834
8.093715
8.250475
##ZVALUE=320
0.511408
0.696778
0.642538
0.474453
0.684857
0.745654
0.560880
0.511408
0.537634
0.471473
0.736713
0.738502
0.550747
0.675917
0.622869
0.672936
0.795722
0.576973
0.610948
0.625849
0.733733
0.693798
0.826716
0.709891
0.731945
0.726581
0.778437
0.757575
0.738502
0.810623
0.860691
0.781417
0.864863
0.974536
1.071692
1.015663
0.936985
1.051426
1.069903
1.207590
1.501441
1.505613
5.977750
19.115806
68.110824
136.632919
278.650522
418.296456
614.062548
739.863515
830.868483
827.178955
716.017485
581.040978
382.104516
241.444707
110.478997
57.485700
22.288561
11.347532
7.432699
8.420944
11.728406
16.693473
27.976632
40.288568
60.174465
75.981617
94.507933
102.067590
104.334950
99.189878
84.008574
71.028471
50.694942
37.663579
23.706555
16.704798
11.112690
8.907914
7.702708
7.636547
7.650852
7.896423
7.821918
7.917881
7.705688
8.165836
8.029938
7.906556
7.788539
7.854700
8.124709
8.140802
7.989407
8.117557
##ZVALUE=325
0.510812
0.474453
0.461936
0.662804
0.525713
0.425577
0.533462
0.550747
0.464916
0.408888
0.686646
0.443459
0.774860
0.625849
0.672936
0.640750
0.689626
0.659823
0.701547
0.652671
0.653863
0.604987
0.705719
0.696778
0.618696
0.812411
0.744462
0.617504
0.792742
0.867844
0.858903
0.825524
0.871420
0.902414
0.795722
0.906587
0.858903
0.812411
1.011491
1.031756
1.304746
1.197457
1.376867
1.485944
2.854466
17.375946
45.528412
116.254687
203.866959
372.017622
515.128970
693.309903
795.229673
832.618475
785.333514
630.090833
475.155711
284.190774
167.587996
71.710944
34.487844
12.757778
7.959604
7.429719
8.050799
11.490583
16.632676
27.122498
40.171742
59.583783
74.028969
89.210868
96.854568
98.547935
92.186928
77.307820
63.676834
46.029687
34.655929
22.405982
15.553832
10.817647
9.033680
8.210540
7.689595
7.658601
7.706881
7.444620
7.483959
7.332563
7.305741
7.591844
7.460713
7.818937
7.846951
7.409453
##ZVALUE=330
0.220537
0.238419
0.287890
0.193715
0.400543
0.375509
0.331998
0.241995
0.296831
0.255704
0.398755
0.203848
0.294447
0.395775
0.277758
0.194907
0.324845
0.301600
0.456572
0.427961
0.449419
0.481606
0.323653
0.322461
0.388622
0.459552
0.338554
0.362992
0.412464
0.479817
0.312924
0.596642
0.622869
0.539422
0.473857
0.604987
0.647902
0.613928
0.537634
0.825524
0.746846
0.805855
0.849962
0.843406
1.045465
1.291633
1.310706
6.713867
21.991730
74.544549
142.692924
281.808972
412.665009
596.153736
713.894963
786.698461
760.924816
642.146468
513.565540
331.120491
211.593509
98.998547
49.922466
18.374920
9.140968
6.660819
6.661415
7.994771
10.334849
16.737580
25.050640
38.546920
51.915646
70.458651
82.580447
91.381669
91.669559
85.482001
74.776411
58.641434
44.647455
30.669570
22.131801
15.259981
11.359453
8.893609
8.036494
7.488728
7.113814
7.006526
6.935596
6.945729
6.806850
7.002950
7.018447
7.101893
##ZVALUE=335
0.389814
0.438690
0.381470
0.316501
0.417829
0.449419
0.464916
0.382662
0.419617
0.402927
0.361800
0.353456
0.316501
0.419617
0.409484
0.481606
0.384450
0.458956
0.546575
0.521541
0.551939
0.541806
0.463724
0.662804
0.495911
0.610948
0.420809
0.461936
0.651479
0.550747
0.538826
0.529885
0.791550
0.680685
0.593662
0.678897
0.564456
0.689626
0.723600
0.760555
0.673532
0.820756
0.792742
0.834465
0.888705
0.953674
1.132488
1.116991
1.348853
3.121495
11.247993
46.101809
96.775889
215.433836
343.647599
540.281534
671.780705
785.867572
799.839497
717.406869
602.713823
414.285660
279.932618
144.779682
75.602531
26.554465
12.167692
7.282495
6.654859
6.770492
7.449985
10.559559
15.052557
25.551915
36.046505
52.393675
64.917803
77.918768
85.127950
86.602569
80.567598
68.026781
56.805611
43.299794
32.596588
22.070408
16.341805
11.086464
9.282827
7.728934
7.025599
6.821752
6.646514
6.754994
6.662607
6.863475
##ZVALUE=340
0.552535
0.512600
0.497699
0.464916
0.642538
0.480413
0.569820
0.661612
0.612736
0.607967
0.567436
0.543594
0.537634
0.537634
0.519753
0.535846
0.523925
0.754595
0.507832
0.683665
0.724792
0.505447
0.741482
0.736713
0.622869
0.661612
0.614524
0.653863
0.682473
0.577569
0.530481
0.603795
0.636578
0.707507
0.682473
0.640750
0.663996
0.721812
0.792742
0.866652
0.867844
0.872612
0.848770
0.891685
1.083612
1.083612
1.180768
1.239777
1.367927
1.412630
1.655817
2.160668
15.755892
36.751628
152.566433
242.148638
585.598946
608.951449
786.445737
881.635547
867.824554
670.855641
612.244606
341.182947
289.680958
161.936879
88.448524
35.139918
15.878677
7.604957
6.672740
6.557703
6.398559
7.840991
10.317564
15.449524
22.708774
36.446452
47.947764
62.232614
72.280765
79.753995
80.106854
76.044798
67.606568
54.845810
43.294430
30.706525
23.549795
15.230775
11.325479
8.438826
7.548928
6.712675
6.492734
6.424785
##ZVALUE=345
0.516772
0.506639
0.401735
0.394583
0.521541
0.461936
0.488758
0.453591
0.606775
0.517964
0.505447
0.484586
0.425577
0.534654
0.560880
0.449419
0.398755
0.506639
0.431538
0.535846
0.442863
0.608563
0.656843
0.558496
0.590682
0.697970
0.805855
0.595450
0.767708
0.712872
0.845790
0.607967
0.694990
0.639558
0.706911
0.553727
0.705719
0.577569
0.469685
0.636578
0.705719
0.805855
0.755787
0.696778
0.731945
0.756979
0.933409
0.981688
0.906587
1.008511
1.117587
1.278520
1.184940
1.310706
2.439618
14.525652
40.876865
112.328529
207.918882
379.498601
517.210960
674.561858
736.078024
725.214481
644.233823
482.456684
352.936983
204.994678
114.910007
45.725703
21.894574
9.222627
6.563663
6.172657
6.159544
6.214976
6.913543
9.404421
13.591647
21.834970
30.787587
45.476556
55.790544
66.343546
72.041750
74.004531
70.880651
62.784553
54.256916
42.066574
31.853914
21.113753
15.764832
11.139512
8.261800
6.960630
##ZVALUE=350
0.403523
0.463724
0.457764
0.383854
0.509620
0.452995
0.610948
0.537634
0.262856
0.582933
0.469685
0.527501
0.460744
0.526905
0.411868
0.440478
0.376701
0.635982
0.443459
0.591874
0.507832
0.533462
0.567436
0.490546
0.503659
0.582933
0.675917
0.593662
0.561476
0.645518
0.558496
0.525713
0.737906
0.534654
0.646710
0.582933
0.695586
0.652671
0.684857
0.709891
0.820756
0.690818
0.677705
0.820756
0.769496
0.708699
0.680685
0.741482
0.769496
0.913739
0.833869
0.965595
0.947714
1.141429
1.211762
1.273751
1.785755
7.232428
22.569895
77.875853
157.836676
335.924625
502.908826
718.293786
843.449831
881.064534
806.331635
624.383688
453.587770
253.010988
148.983598
66.832900
31.435490
11.142492
6.983876
6.038547
5.748868
5.645752
6.038547
6.823540
8.629560
13.264418
18.690825
28.722882
38.216710
50.458908
57.812929
66.218972
67.577958
66.111684
60.570836
48.832893
40.382743
29.549599
22.039413
14.873743
##ZVALUE=355
0.562668
0.518560
0.546575
0.503659
0.426769
0.497699
0.638962
0.620484
0.644922
0.457764
0.467896
0.460744
0.454783
0.463724
0.455976
0.598431
0.628829
0.545979
0.542998
0.559688
0.485778
0.560880
0.536442
0.540614
0.426769
0.703931
0.630617
0.585914
0.535846
0.539422
0.579953
0.591874
0.469685
0.549555
0.534654
0.507832
0.671744
0.615716
0.673532
0.736713
0.683665
0.596642
0.728965
0.813603
0.743866
0.780821
0.890493
0.792742
0.787973
0.858903
0.739694
0.943542
0.918508
0.830889
1.095533
1.020432
1.223683
1.235604
1.510978
3.558993
11.682510
47.856569
104.028583
235.564709
382.057428
592.466593
720.562935
797.574520
768.385530
619.134903
474.064946
288.146734
174.004436
76.008439
37.852526
14.292598
7.844567
5.919933
5.756617
5.401969
5.115867
5.459785
6.237626
8.014441
10.745525
16.496778
23.257732
33.546686
41.497946
52.106977
58.013797
60.894489
60.740709
54.069757
46.701431
37.123561
##ZVALUE=360
0.442863
0.428557
0.467896
0.461936
0.414848
0.338554
0.437498
0.517964
0.404716
0.392795
0.460744
0.421405
0.506639
0.474453
0.554919
0.518560
0.510812
0.609756
0.510812
0.533462
0.504851
0.543594
0.477433
0.577569
0.639558
0.578761
0.582933
0.669956
0.482798
0.624657
0.512600
0.554919
0.778437
0.522733
0.433922
0.661612
0.603795
0.695586
0.675917
0.703931
0.591874
0.700951
0.900626
0.605583
0.956655
0.596642
0.755787
0.776649
0.792742
0.842810
0.723600
0.787973
0.781417
0.909567
0.953674
0.997782
1.124740
1.078844
1.139641
1.228452
1.307726
2.081990
5.533695
24.305582
62.933564
168.425441
292.291641
493.708849
656.667948
796.322823
807.791948
710.136890
573.183894
362.461805
229.473710
107.248425
55.745840
21.493435
9.923577
5.650520
5.665421
5.247593
4.944801
4.829764
5.035996
5.486608
6.507635
9.283423
13.045669
19.495487
26.387572
37.223697
44.343472
51.635504
54.812431
56.182742
##ZVALUE=365
0.465512
0.450611
0.358820
0.443459
0.380874
0.425577
0.595450
0.499487
0.437498
0.425577
0.434518
0.412464
0.505447
0.574589
0.509620
0.554919
0.366569
0.443459
0.515580
0.500679
0.514984
0.661612
0.498891
0.487566
0.470877
0.564456
0.602603
0.420809
0.558496
0.517964
0.579953
0.569820
0.568628
0.664592
0.586510
0.409484
0.412464
0.644922
0.659823
0.548959
0.554919
0.638962
0.651479
0.737906
0.703931
0.767708
0.749826
0.658631
0.699759
0.652671
0.743866
0.739694
0.765920
0.870824
0.908971
0.825524
0.855923
0.882745
1.029968
1.030564
0.974536
1.335740
1.518726
1.436472
2.575517
12.861490
35.978556
107.603669
207.435489
398.408771
568.168759
752.871037
826.335549
783.320665
656.313896
443.177819
294.325948
148.882866
79.890490
30.342937
13.376474
5.975962
5.210638
5.213618
4.757643
4.412532
4.632473
4.658699
4.684925
5.699992
7.289648
11.242628
15.434623
23.311973
30.141473
39.259791
##ZVALUE=370
0.469685
0.505447
0.388622
0.413656
0.432730
0.590682
0.382662
0.325441
0.341535
0.441670
0.569820
0.372529
0.639558
0.513792
0.401735
0.163913
0.408888
0.434518
0.468493
0.445843
0.528693
0.422597
0.608563
0.680685
0.510812
0.642538
0.479817
0.541806
0.487566
0.481606
0.456572
0.496507
0.611544
0.616908
0.582933
0.676513
0.520945
0.444651
0.740886
0.519753
0.546575
0.489950
0.599623
0.546575
0.538826
0.769496
0.590682
0.643730
0.568628
0.646710
0.617504
0.641942
0.779629
0.678897
0.729561
0.730753
0.646710
0.809431
0.807643
0.808835
0.858903
0.900626
1.052618
1.038909
1.267791
1.311898
1.731515
6.914735
21.998882
72.632432
138.487816
269.594789
403.555632
580.544472
660.948753
670.495033
598.848462
451.479554
321.534872
174.838901
97.570419
38.955808
18.450618
7.599592
5.270839
4.505515
4.431605
4.180670
4.105568
4.019737
3.989935
4.215837
4.784465
6.513596
8.886456
13.823509
##ZVALUE=375
0.374913
0.391603
0.400543
0.518560
0.316501
0.381470
0.538826
0.441670
0.528693
0.497699
0.418425
0.482798
0.475645
0.328422
0.376701
0.417829
0.447631
0.404716
0.393987
0.509620
0.527501
0.507832
0.373721
0.450611
0.433922
0.457764
0.319481
0.414848
0.446439
0.468493
0.326633
0.440478
0.490546
0.611544
0.596642
0.658631
0.654459
0.505447
0.600815
0.443459
0.515580
0.494719
0.591874
0.472665
0.479817
0.527501
0.616908
0.721812
0.648499
0.634789
0.726581
0.629425
0.598431
0.744462
0.699759
0.594854
0.516772
0.658631
0.500679
0.751615
0.659823
0.788569
0.800490
0.724792
0.918508
0.964999
0.888705
1.039505
1.445413
3.549457
11.587739
42.834878
92.237592
201.139450
307.268500
451.838970
535.920858
581.727624
562.786460
460.606813
358.188748
219.217539
135.768652
62.641501
31.539798
11.307597
6.143451
4.530549
4.333854
3.866553
4.025698
3.774762
3.726482
3.503561
3.690720
4.259944
##ZVALUE=380
0.409484
0.586510
0.310540
0.421405
0.485778
0.458956
0.346899
0.318885
0.459552
0.524521
0.382662
0.528693
0.456572
0.418425
0.409484
0.444651
0.367761
0.293851
0.376701
0.515580
0.363588
0.355840
0.394583
0.423789
0.456572
0.416636
0.488758
0.462532
0.299811
0.427961
0.536442
0.439882
0.428557
0.435710
0.474453
0.476837
0.371933
0.493526
0.371933
0.494719
0.569820
0.553727
0.545979
0.635982
0.561476
0.451803
0.585914
0.631809
0.480413
0.625849
0.586510
0.536442
0.611544
0.394583
0.554919
0.604987
0.487566
0.724792
0.514984
0.759959
0.730753
0.726581
0.653863
0.699759
0.814795
0.611544
0.837445
0.857711
0.963807
1.195669
1.269579
2.036691
6.357431
30.263662
69.886446
163.123012
260.768533
400.682688
497.496724
574.272871
569.913983
487.047434
398.105979
276.673436
185.409784
90.781450
47.568679
17.387867
7.793903
4.295707
3.694892
3.797412
3.504753
3.555417
3.500581
3.286600
##ZVALUE=385
0.403523
0.522733
0.485778
0.315905
0.355840
0.393987
0.336766
0.407696
0.462532
0.421405
0.363588
0.439882
0.455976
0.553727
0.335574
0.274777
0.557899
0.459552
0.447631
0.473857
0.416636
0.587702
0.309944
0.512600
0.504851
0.420809
0.310540
0.465512
0.476837
0.605583
0.495911
0.412464
0.518560
0.411868
0.441670
0.354648
0.447631
0.447631
0.484586
0.452995
0.535846
0.462532
0.542998
0.625849
0.512600
0.507832
0.432730
0.435710
0.500679
0.362992
0.567436
0.631809
0.649691
0.579953
0.517964
0.619888
0.521541
0.469685
0.580549
0.482798
0.513792
0.565648
0.641942
0.609756
0.723600
0.717640
0.650883
0.752807
0.775456
1.020432
1.038909
0.907779
1.118779
1.371503
2.928972
16.384721
42.841434
110.870004
196.032524
342.826843
447.892547
548.134446
570.406914
534.131527
463.517904
335.702896
236.039758
127.448440
71.766973
30.027628
13.047457
5.256534
3.735423
3.382564
3.550649
3.326535
##ZVALUE=390
0.310540
0.369549
0.342727
0.368953
0.404716
0.455976
0.309944
0.421405
0.289679
0.343919
0.415444
0.436902
0.617504
0.544786
0.401735
0.456572
0.602603
0.415444
0.418425
0.401735
0.418425
0.422597
0.357628
0.376701
0.556707
0.427961
0.494719
0.329614
0.407696
0.456572
0.373721
0.550747
0.452995
0.579953
0.381470
0.519753
0.505447
0.444651
0.494719
0.520945
0.406504
0.521541
0.331998
0.552535
0.403523
0.451803
0.528693
0.491738
0.485778
0.529885
0.486970
0.724792
0.533462
0.416636
0.584722
0.553727
0.627637
0.480413
0.534654
0.527501
0.635982
0.446439
0.612736
0.700951
0.632405
0.763535
0.765920
0.902414
0.854731
0.923872
1.125932
0.921488
0.980496
1.009703
1.007915
1.118779
1.492500
8.103848
26.093721
81.179738
155.350566
290.575624
394.289494
506.569743
560.646653
571.574569
519.775748
406.183004
308.470726
186.678767
109.227896
44.655800
20.380616
6.640553
3.826618
3.495812
##ZVALUE=395
0.337958
0.488758
0.436902
0.478625
0.458956
0.388622
0.404716
0.464916
0.336766
0.449419
0.261664
0.404716
0.514984
0.517964
0.350475
0.357628
0.265837
0.494719
0.420809
0.510812
0.586510
0.551939
0.373721
0.602603
0.391603
0.494719
0.374913
0.418425
0.550747
0.311732
0.434518
0.432730
0.496507
0.354648
0.539422
0.493526
0.661612
0.583529
0.582933
0.505447
0.511408
0.400543
0.460744
0.457764
0.578761
0.462532
0.512600
0.534654
0.564456
0.524521
0.495911
0.474453
0.441670
0.601411
0.546575
0.642538
0.472665
0.528693
0.562668
0.456572
0.483990
0.580549
0.554919
0.598431
0.428557
0.741482
0.731945
0.719428
0.837445
0.785589
0.914931
0.995994
0.934601
0.880957
0.838637
0.929832
0.997782
1.097918
1.213551
4.563928
15.390515
56.445599
111.769438
224.263668
333.738923
481.303930
564.135909
606.999993
582.117438
479.422808
372.463465
228.417516
146.808624
69.347620
33.748746
11.738539
##ZVALUE=400
0.429749
0.367761
0.378489
0.442863
0.373721
0.357628
0.423789
0.271797
0.346899
0.396967
0.526905
0.487566
0.305772
0.460744
0.494719
0.338554
0.420809
0.338554
0.234842
0.296831
0.502467
0.461936
0.407696
0.506639
0.457764
0.540614
0.490546
0.513792
0.515580
0.514984
0.501871
0.375509
0.473857
0.512600
0.626445
0.451803
0.429749
0.592470
0.405908
0.457764
0.430942
0.476837
0.344515
0.574589
0.672936
0.554919
0.674725
0.455976
0.625849
0.603795
0.543594
0.409484
0.462532
0.571609
0.477433
0.580549
0.476837
0.592470
0.571609
0.419617
0.559688
0.470877
0.761747
0.600815
0.587702
0.646710
0.690818
0.654459
0.657439
0.771880
0.785589
0.884533
0.878572
0.848770
0.888705
0.730753
0.707507
0.826716
0.939965
1.084805
1.225471
2.487898
8.389950
33.699870
73.627830
163.171887
259.655714
403.321981
494.309664
569.642782
574.577451
498.783588
411.487818
282.978415
187.773705
95.291734
##END
