##TITLE=KDZ0101
##FORMAT=SPECTACLE-ASCII V-1.2
##DATA TYPE=ULTRAVIOLET SPECTRUM
##SECOND TYPE=ULTRAVIOLET SPECTRUM
##DATE=02/28/18
##TIME=17:08:23
##SPECTROMETER/DATA SYSTEM=SPECTACLE
##XUNITS=NM EM
##YUNITS=ENERGY
##YFACTOR=1
##FIRSTX=220
##LASTX=410
##NPOINTS=96
##3DDATA=Equidistant
##ZUNITS=NM EX
##FIRSTZ=210
##LASTZ=400
##ZPOINTS=39
##XYDATA=(Y..Y)
##ZVALUE=210
3.151894
2.938509
2.736449
3.744960
3.084540
3.585815
3.746748
3.465414
2.721548
3.106594
3.062487
1.976490
2.708435
2.667904
2.735853
2.267957
2.476573
2.580881
2.678633
3.050566
2.884865
3.211498
3.025532
2.769828
3.101826
3.121495
3.318787
3.515482
3.836751
4.206896
4.816651
4.186630
4.421473
4.366636
4.051924
4.640818
5.079508
4.607439
4.859567
5.063415
5.123615
4.985929
5.205870
5.081892
5.254745
4.742742
4.287958
5.094409
5.347729
5.629659
5.570650
4.803538
5.715489
5.415678
4.836917
4.636645
4.339814
5.187988
4.780889
4.818439
4.537702
4.528761
5.365610
5.465746
4.921556
4.867911
5.865693
5.812645
6.054640
5.690455
9.218454
8.411407
11.023879
11.663437
12.333989
13.152957
13.018847
11.996627
12.269616
11.145473
10.607839
9.927750
8.303523
8.138418
7.243752
5.868673
5.320907
4.627705
5.193949
4.720688
5.012751
5.426407
5.139709
6.248951
6.267428
5.752444
##ZVALUE=215
8.885860
8.962750
8.136630
6.086826
6.240606
6.070733
5.910993
5.620718
5.980730
6.600618
5.951524
5.807877
4.543662
3.894567
3.504753
3.224611
3.107786
2.544522
3.048778
3.405809
2.953410
3.094673
3.519654
3.244877
3.697872
4.142523
3.787875
4.743934
4.454851
4.265904
4.250407
5.514622
5.005598
5.285740
5.670786
5.399585
6.062984
5.383492
5.690455
5.267859
6.037951
5.674958
5.883574
5.532503
5.274415
5.185604
5.053878
5.280972
5.180836
5.702972
6.475449
6.203651
5.795956
5.773902
4.930496
5.537868
4.998446
4.497766
4.991889
5.006790
5.602837
4.720688
4.627705
4.966855
5.407929
4.964471
5.533695
5.678535
6.257892
7.371902
6.722808
8.627772
9.300709
10.707974
10.054708
11.050701
12.300611
11.107922
10.639429
10.302663
8.892417
7.754564
7.821918
7.538795
6.709695
6.121993
5.855560
5.162954
4.917979
4.542470
4.731417
4.759431
4.707575
5.351901
5.322695
6.377697
##ZVALUE=220
28.162599
27.339458
30.262470
25.826693
24.802685
19.513965
16.296506
13.199449
14.254451
14.970899
14.913678
14.490485
14.029741
11.668801
9.739995
8.400679
5.428791
4.515648
4.185438
3.484488
3.076792
3.828406
3.523827
3.785491
3.801584
4.367828
4.199743
5.122423
4.860759
4.926920
5.879998
6.440878
5.965829
6.488562
6.500483
6.882548
6.720424
7.130504
5.858541
6.180406
6.960630
6.882548
6.420612
5.950928
6.035566
6.984472
5.485415
5.649924
5.719662
6.245971
5.988479
5.957484
5.730987
5.175471
6.164908
5.578995
6.214976
6.634593
5.692840
5.970597
5.108714
5.345941
5.108714
5.367994
5.864501
5.892515
5.746484
5.845428
7.776618
7.609725
8.086562
9.338856
11.678934
12.044907
11.631846
12.038946
11.523962
12.120605
11.411905
11.161566
10.117888
9.043813
8.201599
8.453727
7.648468
6.982684
6.819963
5.221963
5.580783
5.527735
6.643534
5.495548
5.368590
5.151629
5.335808
5.619526
##ZVALUE=225
42.918921
47.739744
62.030554
70.865750
71.888566
76.931715
66.802502
49.181581
42.440891
31.266809
29.033422
25.985837
26.209950
29.094815
27.879477
26.370883
20.815730
19.340515
12.628436
10.034442
5.823970
4.810691
4.140735
4.580617
4.365444
4.386902
4.937649
5.063415
4.746914
5.747676
6.405711
7.112622
7.435679
6.471872
7.560849
7.335544
7.421970
6.835461
6.876588
8.059740
7.081628
6.720424
6.367564
7.760525
7.333755
6.374717
6.349683
6.171465
6.716847
7.246733
6.891489
6.497502
5.687475
6.230474
7.193685
6.677508
7.329583
6.744862
6.755590
6.880760
7.514954
5.705953
7.553697
6.108880
6.572604
7.161498
6.912947
6.712675
8.594990
8.623600
9.178519
10.927916
12.585521
12.791753
13.627410
13.584495
13.607740
12.130737
11.062622
11.308789
10.695457
9.810925
10.052919
9.735823
8.862615
8.462667
7.478595
7.771850
7.490516
6.893873
6.855726
6.846786
8.173585
7.692575
7.648468
7.025599
##ZVALUE=230
40.718913
44.995546
67.070723
105.138421
134.892464
160.911679
165.341496
163.863897
141.761899
119.558573
82.547665
63.682795
49.484968
45.640469
49.788952
52.761436
56.195855
54.812431
46.841502
37.145615
29.447675
19.092560
13.275743
7.203817
5.602837
5.270839
5.740523
5.685687
5.470514
5.861521
5.784631
6.912947
6.870627
7.163882
7.803440
7.288456
8.000731
7.526875
7.060766
7.983446
7.780790
7.004738
6.779432
6.793737
7.772446
6.639957
6.818771
6.272793
7.410645
7.095933
6.155968
7.307529
7.516742
6.726980
7.440448
7.537603
7.497668
6.778836
7.672906
6.834865
7.644892
8.050799
7.206798
8.192658
7.856488
8.057952
8.617640
9.379983
9.778738
10.718703
11.746883
11.973977
12.854934
13.830662
14.193654
13.662577
13.820529
14.259815
12.706518
12.690425
13.020635
11.260509
10.991693
10.487437
9.833574
10.843873
9.179711
11.211634
9.290576
9.788871
9.618998
9.044409
9.827614
10.029674
10.290742
10.531545
##ZVALUE=235
15.355945
16.630888
41.384697
73.945522
128.835440
181.996822
247.537494
294.216871
322.483778
314.796567
267.791748
213.466883
167.012811
109.447837
86.810589
70.027709
73.825717
79.247952
84.767938
86.091757
79.811811
68.234801
51.240921
37.979484
23.535490
15.016794
10.546446
7.416606
6.932616
7.362962
6.474853
6.785989
6.999969
6.240606
7.955432
7.151961
7.268786
7.109642
6.404519
7.588863
6.843805
5.969405
6.888509
7.302761
6.914735
6.678700
7.905960
6.557703
6.675720
7.218719
7.209778
7.319450
7.598996
7.769465
7.515550
7.775426
8.391738
8.747578
7.407665
8.400679
8.073449
9.169579
8.267760
8.456707
8.309484
8.521676
9.777546
10.530949
11.317730
11.073947
12.613535
13.164878
13.859868
14.447570
15.643835
15.857816
16.580820
16.145706
14.237761
14.629960
14.351606
13.306737
12.989640
12.315512
13.360977
12.813807
12.034774
11.345744
12.231469
11.711717
13.191700
12.578964
12.189746
12.576580
12.451410
12.751818
##ZVALUE=240
2.508759
3.248453
8.585453
25.013685
49.012899
104.286671
167.327523
273.833871
366.515517
445.149541
495.909452
497.021675
431.147814
360.493660
261.532664
187.201500
129.810572
103.829503
94.530582
102.589726
116.218925
117.479563
115.133524
105.142593
86.299777
65.438747
48.512816
30.834675
22.710562
13.606548
10.942817
8.790493
8.159876
9.006858
8.480549
7.390976
7.519722
7.504821
7.377863
7.348657
6.528497
7.233620
6.622672
6.730556
7.085800
6.625652
6.911755
7.037520
6.944537
7.117987
7.099509
6.735921
6.958842
5.676746
7.489920
7.321835
7.867813
8.120537
7.321835
9.419918
7.943511
8.323789
8.244514
9.272695
10.456443
9.406805
10.207891
9.606481
11.306405
12.069941
13.654828
15.388727
15.289783
13.951659
17.654896
17.214417
17.561913
16.032457
17.252564
16.734600
16.237497
15.431643
17.256737
13.561845
14.959574
13.692975
15.034676
15.389919
13.509989
13.646483
14.740825
14.543533
14.792681
14.857650
13.295412
13.719797
##ZVALUE=245
1.797676
1.351833
1.607537
1.637936
6.522536
17.236471
47.209859
85.642934
186.933875
272.657871
404.976010
498.614907
563.388467
591.201782
559.177995
465.263724
372.186899
255.097747
180.076957
119.763613
100.653768
104.438663
117.410421
130.413771
135.365725
134.029984
114.214420
98.434687
71.696639
53.369403
39.360523
23.682714
16.594529
10.712743
8.880496
8.219481
8.042455
7.724762
7.308722
8.033514
6.476641
6.493926
7.139444
6.360412
5.964637
5.893707
6.106496
6.170869
6.031990
6.469488
6.598830
6.341934
6.299615
6.627440
6.267428
6.533861
6.223917
6.208420
6.701946
6.563663
6.776452
6.985664
7.331967
7.562637
8.094907
8.653998
7.863641
8.651614
9.753704
11.508465
11.305809
12.302995
13.032556
12.991428
14.540553
16.482472
14.761686
14.278889
15.310645
14.432669
15.248656
14.298558
15.922785
14.041662
14.335513
13.787746
14.021993
14.059544
12.928843
13.421774
13.288856
14.192462
14.203787
13.480783
13.971925
14.150739
##ZVALUE=250
1.847744
1.533628
1.561642
1.736879
1.820922
1.911521
2.726912
10.995865
35.726428
74.399710
167.544484
259.915590
369.540453
522.499681
613.597631
678.739548
671.463609
592.410564
491.753817
349.266529
243.703723
165.119767
107.013583
97.799897
111.704469
125.002861
143.113732
147.535801
141.006708
126.030445
113.197565
78.634620
59.847832
36.770701
24.128556
14.877915
9.998679
8.596778
7.243752
6.848574
6.790757
5.972981
6.942749
6.823540
5.824566
6.381869
6.724000
5.978942
5.769730
6.376505
5.276799
6.005764
5.460978
5.599856
5.876422
5.726814
5.996823
5.983710
6.085634
6.711483
6.233454
6.893873
6.907582
6.997585
7.181764
7.154942
8.096695
8.410811
9.681582
10.243654
11.101961
11.442900
12.867451
14.188886
12.478828
13.185740
13.788939
14.282465
12.884736
13.128519
13.167858
12.907982
12.464523
12.414455
12.860894
12.962818
13.851523
13.908744
12.102723
13.145804
13.696551
12.354851
13.142824
12.804866
13.071895
13.571978
##ZVALUE=255
1.348853
1.544952
1.426935
1.765490
1.412630
1.746416
1.587868
1.763701
2.302527
5.418658
25.591850
56.678653
106.637478
230.453610
341.388583
524.638891
648.301840
762.926936
795.090795
749.517679
655.902624
521.974564
339.419842
224.181414
131.420493
99.970698
94.158649
106.746554
128.498673
142.768621
147.761703
146.552920
132.820606
109.746456
85.569620
58.444738
39.381981
21.986961
14.133453
9.544492
7.353425
7.038713
7.270575
6.520748
6.212592
6.242990
6.397963
6.208420
6.379485
6.123781
6.120801
5.544424
5.874634
5.355477
5.457997
5.773902
5.466938
6.426573
5.884767
5.308986
6.188750
6.081462
6.161928
6.489754
6.332994
6.701946
6.981492
7.636547
8.666515
8.519888
9.627938
10.060668
10.907650
11.871457
13.134480
12.501478
11.558533
12.748837
12.448430
11.869669
12.248755
11.485815
11.433959
12.481809
12.143850
11.727810
11.730790
12.108684
11.742711
11.535883
11.721849
12.053847
11.991858
12.458563
13.302565
11.755824
##ZVALUE=260
1.519918
1.426935
1.112819
1.221895
1.446605
1.488924
1.528859
1.547933
1.649857
1.674891
2.205968
2.877712
9.397864
36.927462
77.561736
177.607536
288.524628
468.773842
613.554716
780.512691
852.780938
848.018527
737.773776
603.445768
402.624607
271.932483
162.118673
107.952952
81.491470
84.849000
108.361840
131.544471
148.131847
159.093738
153.316855
133.746862
112.502575
82.991719
63.317418
38.516521
25.851727
15.683770
10.056496
7.775426
7.786751
7.088780
6.076694
6.825924
6.432533
6.714463
6.602407
6.196499
5.203485
6.002784
5.309582
5.809665
5.411506
5.570650
5.748868
5.475879
5.239844
5.190969
5.975962
5.517602
5.605817
5.875826
6.029606
7.223487
7.032752
7.963777
8.539557
9.764433
8.645654
9.639859
10.033846
10.965466
10.416508
11.125803
10.266900
11.068583
10.321736
10.717511
10.907650
10.725856
10.797977
10.629892
10.942817
10.948777
11.226535
11.430979
10.979772
11.388659
11.674762
11.443496
11.887550
12.176633
##ZVALUE=265
1.048446
1.214743
1.496673
1.290441
1.365542
1.399517
1.314878
1.412630
1.497865
1.305938
1.500845
1.696944
1.760721
1.844764
5.206466
26.473999
56.750774
136.904716
238.888860
434.602499
595.381856
763.020515
913.211703
937.690735
834.711790
715.224743
534.185767
382.843614
221.943855
132.393837
87.662935
71.380734
85.164905
118.475556
136.284828
157.830715
160.183907
154.792666
137.127638
108.784437
87.216496
57.511926
39.875507
22.715926
14.194846
9.143949
7.445812
6.893873
6.881952
6.229877
6.543994
6.061792
6.440878
6.029606
5.873442
5.131960
5.584955
5.709529
5.355477
5.256534
5.423427
5.290508
5.723834
5.969405
6.066561
6.374717
6.350875
6.837845
7.102489
7.314682
7.853508
8.510947
8.995533
9.619594
9.379983
10.005832
9.577870
9.916425
9.661913
10.210872
9.607673
9.984970
9.750724
9.741783
10.005832
10.032654
10.100603
10.494590
9.900928
9.766817
9.686947
10.232925
10.067821
10.955930
10.565519
11.303425
##ZVALUE=270
1.014471
1.047850
0.942945
0.937581
1.388788
1.196861
1.265407
1.332760
1.229644
1.169443
1.255870
1.500845
1.437664
1.548529
1.640916
1.953840
2.660751
12.368560
34.854412
104.449987
191.328526
321.914554
563.992858
746.155977
941.193700
997.673869
967.051983
853.585005
649.407506
484.488606
288.061500
176.982880
105.247498
63.865781
65.847635
90.392828
113.536716
142.592788
155.863762
163.086653
155.149698
136.110783
114.396811
84.011555
60.094595
36.996603
24.355650
14.536977
10.880828
7.472634
6.568432
6.488562
5.848408
6.079674
5.850792
5.728602
6.018877
5.708933
5.786419
5.414486
5.847812
5.617738
5.917549
5.890727
5.761981
5.761981
5.896688
6.775856
6.754994
7.417798
7.571578
8.218884
8.490682
8.707643
9.215474
8.872747
9.408593
9.607673
9.412766
8.774996
8.952618
9.292960
9.430647
9.410977
8.869767
9.159446
9.392500
9.377599
9.622574
9.940863
9.057522
9.402633
9.612441
9.592772
9.698868
9.583831
##ZVALUE=275
1.037717
0.901818
1.001954
0.883937
1.122952
1.049638
1.055598
1.151562
1.162887
1.194477
1.199841
1.146793
1.514554
1.413822
1.484752
1.489520
1.712441
1.739860
1.921654
5.021691
19.360781
54.405928
152.570605
281.231999
516.933799
683.625937
884.378552
991.660953
1015.710831
965.188742
831.074715
602.933764
428.838730
229.177475
132.406950
65.674782
51.034689
63.504577
83.820820
114.114881
133.114457
153.530836
159.303546
151.984692
137.828588
108.618736
85.682869
58.737993
41.488409
23.975968
15.260577
8.881688
7.077456
6.349683
5.798936
5.649924
5.603433
5.465746
5.470514
5.893707
5.492568
5.858541
5.586743
5.420446
6.006956
6.045699
6.596446
6.554723
6.413460
6.709695
7.488728
7.693768
7.631779
8.706450
8.602738
8.556843
9.552836
8.663535
8.477569
8.531809
8.852482
9.081960
8.370876
9.174943
9.077787
8.819699
8.601546
9.336472
9.312630
9.140968
9.182692
9.503961
9.400845
8.655787
9.326935
9.417534
##ZVALUE=280
0.941753
0.829697
1.127720
1.034737
0.934601
0.771880
0.994802
1.046658
1.160502
1.087785
0.995994
1.046658
0.816584
1.323819
1.111627
1.182556
1.295805
1.619458
1.518726
1.724958
1.700521
2.346635
11.998415
39.499998
123.776793
224.225521
420.769453
597.397685
836.861730
992.599726
1015.710831
1015.710831
950.988531
702.616572
513.635874
287.184715
171.732903
75.807571
46.574473
43.513775
57.320595
85.135698
107.312799
134.882927
148.291588
156.529546
148.421526
130.063891
110.238791
82.150698
60.992837
36.132932
24.655461
14.186502
9.727478
6.683469
5.913973
5.525947
5.334616
5.765557
5.538464
5.804896
5.848408
6.032586
5.604625
6.518960
6.428957
6.361604
6.522536
6.556511
7.286668
7.794499
8.069873
8.387566
8.413792
8.543730
8.849502
9.011626
8.189678
9.020567
8.306503
8.450747
8.202791
8.491874
8.716583
8.780956
8.658767
8.505583
8.763671
9.171963
8.877516
8.582473
8.859634
8.882880
8.685589
8.939505
##ZVALUE=285
0.720620
0.876784
0.991821
0.994802
0.676513
0.865459
1.005530
0.949502
0.901818
0.973940
0.916719
1.010895
1.003742
0.998974
1.034737
1.136661
1.225471
1.225471
1.260638
1.390576
1.494884
1.529455
1.859665
1.980662
5.828738
19.416809
66.137910
136.622787
290.699601
458.424687
642.774701
888.851881
1011.909842
1015.710831
1002.368927
812.367797
631.566644
385.807753
240.793824
110.181570
57.747960
31.819940
35.481453
56.693554
76.820850
106.988549
125.415921
144.353509
149.610639
143.212676
131.095648
107.411742
85.523725
58.467984
40.749907
23.278594
15.231967
9.245872
6.619692
5.972981
5.613565
5.554557
5.565882
5.659461
6.017685
5.751848
6.330609
6.532669
6.736517
6.913543
7.229447
7.267594
7.634759
8.203983
7.781982
8.013844
8.106828
8.188486
8.233786
8.309484
8.353591
8.471608
8.673668
8.323789
8.695722
8.890629
8.751750
8.413792
8.826852
8.983612
9.129643
8.615851
8.889437
8.517504
8.885860
8.808970
##ZVALUE=290
0.953674
0.716448
0.720620
0.873804
0.918508
0.794530
0.886917
0.785589
1.041889
0.845790
0.920892
0.898838
1.102686
0.765920
0.942945
1.184940
1.022816
1.014471
1.206994
1.287460
1.379848
1.148582
1.422763
1.475811
1.660585
1.774430
2.731681
7.993579
35.487413
86.608529
172.506571
360.986590
545.897484
820.764899
987.086892
1015.712619
1015.712619
939.990878
761.386752
500.956774
324.712992
158.476830
82.874894
34.354925
24.968982
35.444498
49.370527
72.858930
92.986822
120.376945
136.115551
144.873857
142.969489
126.389861
107.239485
79.686642
60.136914
37.435889
25.080442
14.415979
10.317564
7.040501
5.841851
6.032586
5.774498
5.496740
6.083846
6.497502
6.837845
6.554723
7.280707
7.349849
7.869601
8.034706
8.223653
8.490682
8.438826
8.719563
9.127855
8.614659
8.130670
8.403659
8.709431
8.872747
8.508563
9.113550
9.157658
9.043813
9.078979
8.877516
9.046793
8.417964
8.762479
9.089708
9.218454
9.209514
##ZVALUE=295
0.745654
0.773668
0.762939
0.760555
0.656843
0.933409
0.882745
0.695586
0.834465
0.655651
1.034737
0.983477
0.745654
0.862479
0.866652
0.922680
0.969768
0.976920
1.071692
1.045465
1.088977
1.302958
1.334548
1.396537
1.299977
1.464486
1.653433
1.493692
2.213717
3.820658
18.715858
51.560402
144.805908
268.000960
499.158502
697.132945
935.505033
1015.712023
1015.712023
1015.712023
842.476487
640.660524
385.822654
235.335827
103.815794
52.626729
23.160577
20.982623
31.250715
45.482516
69.142580
88.560581
114.495754
128.218532
137.809515
134.333968
120.279789
102.600455
78.747869
59.369802
37.902594
26.167631
15.025735
10.179877
7.339716
6.426573
6.101727
6.477833
6.632805
6.802678
7.181764
7.540584
8.049607
7.983446
8.212924
8.069873
8.217692
8.447766
8.396506
8.602738
8.600950
8.890629
8.968711
8.973479
9.074807
9.127855
8.427501
9.298921
9.272695
9.154677
9.281635
8.439422
9.209514
9.136796
9.325743
9.613633
##ZVALUE=300
0.738502
0.700951
0.670552
0.733733
0.751615
0.662804
0.666976
0.818968
0.732541
0.761747
0.790954
0.777841
0.919700
0.880957
0.981688
1.025796
0.852942
0.850558
0.839829
0.954866
1.099706
1.248717
1.191497
1.262426
1.157522
1.244545
1.341701
1.435876
1.491904
1.617670
1.812577
2.099872
8.475780
27.926564
94.051957
188.089013
383.518934
585.977435
856.012702
1006.615758
1015.712023
1015.712023
979.630947
799.100995
512.349010
321.840644
155.040622
81.244707
30.640960
16.764998
18.592477
25.944710
43.516755
59.855580
84.578991
104.306936
125.116706
131.977797
129.200816
120.008588
98.899603
81.093907
56.421757
40.275455
24.595857
16.703606
10.783672
8.206964
6.846786
7.046461
7.187724
7.566810
7.690787
7.696748
8.204579
8.292794
8.422732
8.558631
8.809566
8.982420
8.859634
8.747578
8.484721
9.132624
9.149909
8.971691
9.180903
9.234548
9.577870
9.451509
9.192824
9.284616
9.200573
9.457469
9.458661
9.418726
##ZVALUE=305
0.767708
0.713468
0.657439
0.685453
0.738502
0.660419
0.624657
0.768900
0.745654
0.777841
0.821948
0.686646
0.736713
0.782609
0.910759
0.880957
0.814795
0.865459
0.940561
1.115799
0.942945
0.901818
0.965595
0.982881
1.034737
1.051426
1.113415
1.333952
1.227856
1.300573
1.391768
1.630783
1.643896
2.051592
3.536940
19.896626
53.341985
152.903795
280.580521
527.814627
747.862458
997.365713
1015.715003
1015.715003
1015.715003
840.463638
633.035898
386.709571
233.496428
102.472901
49.491525
18.536448
12.404919
16.548634
25.060773
41.583776
58.903694
82.498789
98.748803
117.206573
123.346448
122.333765
114.131570
94.808936
77.276826
53.905845
39.491653
24.385452
16.684532
10.760427
8.764863
7.990599
7.478595
8.258820
8.035898
7.973909
8.508563
7.778406
8.426905
8.616447
8.908510
9.424686
8.802414
9.386539
9.542704
9.503961
9.686947
9.243488
9.242892
9.804964
9.651780
9.551644
9.223819
9.171963
9.601712
9.434819
##ZVALUE=310
0.700951
0.593662
0.752807
0.651479
0.786781
0.583529
0.765920
0.647902
0.615716
0.752807
0.511408
0.755787
0.732541
0.924468
0.852942
0.981688
0.872612
0.859499
0.828505
0.793934
0.894666
0.841618
0.802875
0.993609
0.943542
1.079440
1.184940
1.250505
1.204610
1.169443
1.077652
1.192689
1.346469
1.607537
1.567602
1.852512
1.975894
9.593964
29.900670
97.065568
191.346407
401.950479
603.965521
892.907977
1015.710831
1015.710831
1015.710831
985.189676
793.950558
511.732697
333.824754
160.602927
83.052516
29.390454
13.787746
11.330843
14.644861
23.304820
34.173727
52.682757
69.864988
92.109442
106.288791
116.048455
117.055774
107.438564
95.532537
75.181723
57.311654
37.533641
26.711822
17.152429
12.262464
9.518862
9.084940
8.382797
8.177757
8.078814
8.378625
8.589625
8.893609
8.822680
8.543730
9.025931
9.280443
9.563565
9.461641
9.513497
9.588599
9.872913
9.850860
9.877682
9.521842
9.707808
9.954572
9.417534
##ZVALUE=315
0.522733
0.752807
0.658631
0.673532
0.720620
0.808835
0.734925
0.707507
0.678897
0.633597
0.584722
0.774860
0.660419
0.678897
0.757575
0.722408
0.843406
0.864863
0.904799
0.684857
0.676513
0.801682
0.909567
0.954866
1.002550
0.848770
1.040697
0.942945
0.989437
0.978708
0.780821
1.164675
0.985861
1.357794
1.285672
1.463890
1.396537
1.740456
1.776814
4.281998
17.794967
66.993833
140.667558
310.757756
502.425432
799.779892
987.621546
1015.706658
1015.706658
1015.706658
907.306671
629.608631
426.748991
221.484900
115.751624
41.777492
18.400550
9.861588
10.013580
14.618635
20.392537
33.780932
46.432614
66.473484
83.028674
102.065802
109.721422
112.061501
104.478002
88.399649
73.852539
53.557754
39.245486
24.867654
17.706752
12.166500
9.904504
9.117723
8.185506
8.713603
8.731484
8.744597
8.833408
9.035468
8.884668
9.248853
9.757876
9.605885
9.642839
9.378791
9.792447
9.814501
9.621978
9.500980
9.347796
9.627938
##ZVALUE=320
0.673532
0.340939
0.763535
0.628829
0.726581
0.568628
0.576973
0.682473
0.682473
0.712872
0.694990
0.649691
0.407696
0.657439
0.636578
0.711679
0.916719
0.780821
0.788569
0.600815
0.859499
0.971556
0.967979
0.650883
0.801682
0.897646
0.834465
0.788569
0.935793
0.983477
1.082420
0.925660
1.066923
1.043677
1.197457
1.070499
1.067519
1.284480
1.356602
1.504421
1.745820
2.324581
7.352829
38.278699
91.956854
234.539509
382.145643
620.631576
810.023546
1009.628773
1015.715003
1015.715003
944.792628
705.938935
502.870679
272.866488
155.415535
63.761473
28.979778
10.997653
8.472800
9.757876
11.880994
19.412637
28.492808
45.352578
60.071945
80.179572
93.288422
105.929971
105.912685
98.976493
88.194609
68.955421
52.846670
35.600662
25.129914
16.771555
12.590885
10.140538
9.071827
8.761883
9.113550
8.939505
8.906722
9.202957
9.290576
9.390712
9.448528
9.472966
9.088516
9.021759
9.019971
9.638667
9.418726
9.377599
##ZVALUE=325
0.502467
0.534654
0.524521
0.401735
0.470877
0.398755
0.666976
0.567436
0.697970
0.496507
0.732541
0.574589
0.408888
0.631809
0.639558
0.604987
0.500679
0.744462
0.660419
0.661612
0.774860
0.802875
0.604987
0.647902
0.594854
0.868440
0.759959
0.669956
0.776649
0.786781
0.551939
0.892878
1.030564
0.974536
0.985861
1.130700
1.229644
1.240969
1.211762
1.266599
1.370907
1.437664
1.497865
1.950860
3.954768
25.212765
66.019893
167.663693
298.329592
538.043976
740.356445
969.669819
1015.676856
1015.676856
1002.499461
805.327892
607.378483
372.377634
223.789811
96.546412
44.996738
15.213490
8.735657
8.322597
9.005666
12.661815
18.032789
29.125810
40.923953
60.382485
75.427890
90.428591
98.300576
99.769831
94.081759
78.744888
65.361857
47.727823
35.949945
23.167729
16.690493
12.272596
10.202527
9.391904
9.038448
8.597970
8.924603
9.075999
8.595586
8.986592
8.989573
9.292960
9.041429
8.798838
8.958578
9.151697
##ZVALUE=330
0.574589
0.606775
0.633597
0.703931
0.664592
0.543594
0.584722
0.585914
0.644922
0.732541
0.688434
0.802875
0.508428
0.634789
0.656843
0.682473
0.614524
0.774860
0.610948
0.697970
0.729561
0.935793
0.754595
0.707507
0.892878
0.752807
0.817776
0.768900
0.845790
0.932813
0.935793
0.841618
0.800490
0.791550
0.870824
0.858903
0.940561
1.082420
1.004934
1.013875
1.198649
1.386404
1.315475
1.496673
1.634955
1.834631
2.502799
11.513829
37.712455
122.737885
228.142738
442.462564
634.180903
885.840654
1015.731692
1015.731692
1015.731692
888.568759
697.332025
435.883999
273.466706
126.018524
62.732697
22.590756
10.927916
7.570982
7.727742
8.693933
11.420846
18.324852
26.273727
40.527582
54.158568
72.262883
83.506703
91.875792
92.905760
86.136460
75.777769
59.348941
46.211481
31.458735
23.669600
16.393661
12.929440
10.328889
9.600520
8.666515
8.587837
8.854866
8.802414
8.492470
8.397698
8.608699
8.636713
8.574724
##ZVALUE=335
0.533462
0.656843
0.570416
0.570416
0.560880
0.472665
0.626445
0.610948
0.360608
0.643730
0.523925
0.584722
0.486970
0.564456
0.580549
0.618696
0.545979
0.691414
0.684857
0.540614
0.729561
0.728965
0.666976
0.538826
0.558496
0.633597
0.724792
0.715852
0.660419
0.749826
0.820756
0.780821
0.702739
0.816584
0.786781
0.815988
0.982881
0.819564
0.864863
0.939965
1.027584
1.016855
1.092553
1.091957
1.226664
1.366735
1.556873
1.718998
1.770854
4.896522
17.959476
73.370934
154.081583
329.747796
507.728457
769.414902
940.665603
1015.712023
1015.712023
899.989605
744.615793
498.387814
331.403613
168.743730
86.661577
30.236840
13.673902
7.661581
7.590652
7.634759
8.867979
11.382699
16.161799
26.623607
37.136674
54.476857
65.732598
79.031587
85.856915
86.854696
81.673861
69.676638
58.408976
44.185519
34.277439
23.677945
17.719865
12.828708
10.747910
9.432435
8.548498
8.144975
8.257627
8.161664
8.347631
8.178949
##ZVALUE=340
0.503659
0.656843
0.608563
0.620484
0.446439
0.500679
0.512600
0.636578
0.597835
0.531673
0.551939
0.581741
0.474453
0.465512
0.570416
0.642538
0.601411
0.712872
0.726581
0.554919
0.548959
0.622869
0.530481
0.686646
0.662804
0.658631
0.741482
0.698566
0.683665
0.844598
0.916719
0.824928
0.680685
0.750422
0.665784
0.842810
0.621676
1.029968
0.891685
0.989437
0.957847
0.842810
0.835657
0.787973
0.932813
1.089573
1.157522
1.329780
1.440644
1.440644
1.626611
2.750754
8.446574
42.487979
105.108023
258.509517
422.153473
670.310855
837.549567
993.170738
1015.712619
944.217443
813.650489
588.119626
409.351587
209.736824
114.293694
46.438575
19.058585
8.540750
7.779598
7.583499
7.665753
8.579493
11.151433
16.777515
23.819804
37.108660
48.527718
64.648986
74.904561
81.750751
82.344413
76.959729
69.055557
55.702925
44.978857
31.550527
24.862885
16.487837
12.775660
10.078549
9.019971
8.057952
7.814765
7.885695
##ZVALUE=345
0.477433
0.470877
0.570416
0.523925
0.489950
0.501871
0.603795
0.644922
0.458956
0.581741
0.449419
0.494719
0.563860
0.476837
0.517964
0.546575
0.584722
0.589490
0.603795
0.425577
0.589490
0.531673
0.638962
0.633597
0.589490
0.545979
0.755787
0.551939
0.761747
0.586510
0.553727
0.712872
0.719428
0.494719
0.810623
0.735521
0.718832
0.823736
0.898838
0.798702
0.924468
0.926852
1.054406
0.836849
0.945926
0.866652
1.042485
1.010895
1.106858
1.188517
1.278520
1.447797
1.460910
1.906753
3.712773
23.403764
65.233707
178.866982
318.791866
562.586784
755.754709
980.149508
1015.712023
1015.712023
925.924778
686.035752
497.749448
285.832882
159.534812
61.259866
27.357936
10.881424
7.894635
7.366538
7.117987
7.237792
8.072853
10.774732
14.598966
23.521781
32.678843
47.559738
57.023764
67.988634
74.199438
75.894594
72.390437
63.910484
55.416822
42.964816
32.831430
22.717714
16.718507
12.118816
9.717941
8.537769
##ZVALUE=350
0.479817
0.395775
0.414848
0.553727
0.581741
0.550747
0.533462
0.403523
0.496507
0.494719
0.609756
0.442863
0.572801
0.374913
0.573993
0.597835
0.508428
0.579953
0.404716
0.585914
0.562668
0.600815
0.541806
0.730753
0.602603
0.567436
0.589490
0.533462
0.593662
0.610948
0.657439
0.594854
0.699759
0.632405
0.881553
0.840425
0.632405
0.817776
0.785589
0.626445
0.588894
0.780821
0.775456
0.974536
0.893474
0.995994
1.022816
1.002550
1.024604
1.098514
0.882745
1.035929
1.311898
1.421571
1.308918
1.633763
2.613664
12.145638
38.243532
121.581554
234.292746
463.819504
663.959980
911.815763
1015.672684
1015.672684
1011.373997
821.736455
610.381961
351.018906
208.316445
92.173815
41.378736
13.429523
8.108616
6.971955
7.013679
6.552935
6.665587
7.946491
9.734631
14.802814
19.909739
29.256940
37.900805
51.051974
59.631467
67.079663
68.529844
66.940784
61.492920
50.256848
40.748715
29.088855
22.874475
15.786886
##ZVALUE=355
0.419617
0.489950
0.553727
0.541806
0.329614
0.576973
0.499487
0.487566
0.641942
0.610948
0.613928
0.437498
0.620484
0.546575
0.448823
0.589490
0.729561
0.565648
0.454783
0.474453
0.624657
0.574589
0.620484
0.533462
0.617504
0.544786
0.669956
0.498891
0.691414
0.666976
0.595450
0.667572
0.639558
0.560880
0.711679
0.698566
0.654459
0.666976
0.631809
0.736713
0.708699
0.822544
0.706911
0.857711
0.925660
0.870824
0.748634
1.067519
0.974536
1.027584
0.966787
0.998974
0.968575
1.028776
1.293421
1.342893
1.366735
1.645684
1.682639
5.400777
19.661784
76.538920
160.462856
335.283875
521.271825
781.797767
929.139853
1015.691757
989.051461
656.536818
600.695014
249.927640
234.607458
55.256486
51.842928
18.897653
8.921623
6.411672
6.340742
6.206632
6.315708
6.567836
8.152723
8.573532
16.332865
18.027425
24.014711
43.240786
43.649673
54.079890
62.743425
63.475966
61.244965
56.836605
47.127604
39.372444
##ZVALUE=360
0.548959
0.583529
0.514984
0.579953
0.542998
0.531673
0.352859
0.490546
0.694990
0.503659
0.599623
0.572801
0.699759
0.569820
0.577569
0.662804
0.612736
0.489950
0.622869
0.605583
0.623465
0.632405
0.520945
0.576973
0.434518
0.655651
0.726581
0.671744
0.626445
0.808835
0.684857
0.693798
0.685453
0.717640
0.707507
0.633597
0.623465
0.709891
0.737906
0.685453
0.563860
0.825524
0.747442
0.572801
0.841618
0.977516
0.787973
0.973940
0.787973
0.868440
1.004934
0.856519
1.165867
1.086593
1.108646
1.065731
1.249909
1.222491
1.510978
1.611710
1.750588
2.277493
11.037588
34.419894
113.601685
219.627619
429.876447
626.017451
869.943500
989.460945
1008.511782
933.941007
716.973543
532.137752
314.805508
183.093548
74.577928
32.468438
10.506511
6.855726
6.251931
6.249547
5.562901
5.655885
6.019473
6.235838
7.823706
9.636879
14.529824
19.806623
28.551817
36.930442
47.154427
52.845478
57.072639
57.157874
##ZVALUE=365
0.648499
0.639558
0.605583
0.513792
0.566840
0.524521
0.524521
0.572801
0.501871
0.405908
0.614524
0.732541
0.600815
0.614524
0.549555
0.625849
0.615716
0.548959
0.551939
0.512600
0.546575
0.656843
0.569820
0.541806
0.606775
0.561476
0.718832
0.566840
0.577569
0.607967
0.844598
0.638962
0.588894
0.695586
0.585914
0.659823
0.733733
0.711679
0.918508
0.714660
0.820756
0.772476
0.749826
0.707507
0.787973
0.845790
0.817776
0.911951
0.869632
0.874996
0.809431
0.895858
0.887513
0.946522
0.903606
1.065731
0.970960
1.027584
1.189709
1.393557
1.286864
1.459718
1.619458
2.054572
4.171729
22.901893
63.162446
177.579522
312.746763
549.114943
738.688707
940.470695
1014.980674
967.905521
831.260681
588.636994
403.997898
214.155912
113.707781
41.104555
17.274618
6.993413
5.601645
5.860925
5.540848
5.318522
5.042553
5.466938
5.668998
6.490946
8.132458
12.478828
16.430616
24.305582
30.889511
39.713979
##ZVALUE=370
0.467896
0.432730
0.565648
0.530481
0.550747
0.640750
0.670552
0.421405
0.479817
0.587702
0.616908
0.497699
0.556707
0.429749
0.607967
0.405908
0.554919
0.453591
0.505447
0.588894
0.514984
0.709891
0.599623
0.570416
0.532866
0.627637
0.766516
0.524521
0.657439
0.564456
0.658631
0.528693
0.680685
0.582933
0.639558
0.705719
0.687838
0.739694
0.668764
0.667572
0.684857
0.813603
0.718832
0.618696
0.713468
0.645518
0.749826
0.723600
0.563860
0.798702
0.790954
0.778437
0.883937
0.869632
0.814795
0.892878
0.990629
0.938773
1.041889
1.023412
1.045465
1.214743
1.158714
1.438856
1.493692
1.705885
2.532601
13.511777
44.062734
137.885809
258.302689
484.184623
683.510900
908.892751
1009.590030
1003.876925
897.243619
666.728020
481.299758
259.510875
143.910646
55.751801
25.801659
9.708405
6.097555
5.295873
5.069971
5.080700
4.773736
4.879832
4.668832
4.823804
5.445480
7.489920
10.150671
15.245676
##ZVALUE=375
0.497699
0.523925
0.454783
0.457764
0.485778
0.477433
0.514984
0.458956
0.521541
0.538826
0.489950
0.461936
0.619888
0.607967
0.567436
0.579953
0.357628
0.602603
0.475645
0.430942
0.615716
0.591874
0.481606
0.583529
0.598431
0.594854
0.411868
0.571609
0.489950
0.672936
0.516772
0.581741
0.582933
0.664592
0.518560
0.702739
0.573993
0.506639
0.496507
0.586510
0.506639
0.697970
0.633597
0.612736
0.738502
0.643730
0.776649
0.736713
0.820756
0.752807
0.637770
0.592470
0.786781
0.990629
0.767708
0.800490
0.721812
0.873804
0.761747
0.743866
0.991821
0.989437
1.015663
1.085997
1.234412
1.083612
1.316667
1.551509
1.853704
7.758737
27.018785
90.242624
187.416673
393.694639
579.305887
823.644996
945.533514
985.482931
922.009945
737.441778
561.105609
331.969857
204.484463
92.428923
45.691729
15.117526
7.167459
5.177855
4.974604
4.896522
4.893541
4.496574
4.215837
4.390478
4.270673
5.028844
##ZVALUE=380
0.501871
0.471473
0.588894
0.556707
0.454783
0.492930
0.463724
0.521541
0.384450
0.496507
0.380874
0.357628
0.505447
0.436902
0.587702
0.479817
0.426769
0.526905
0.356436
0.451803
0.486970
0.396967
0.449419
0.482798
0.505447
0.535846
0.466704
0.488758
0.594854
0.510812
0.451803
0.610948
0.556707
0.485778
0.544786
0.601411
0.530481
0.571609
0.525713
0.558496
0.611544
0.622869
0.470877
0.590682
0.643730
0.694990
0.709891
0.651479
0.672936
0.684857
0.708699
0.759959
0.659823
0.469685
0.674725
0.644922
0.504851
0.780821
0.766516
0.725985
0.757575
0.927448
0.794530
1.003742
1.074672
1.006722
1.207590
1.204610
1.278520
1.625419
1.750588
3.335476
13.083816
61.674714
140.867829
317.406654
492.901802
732.063651
882.400870
981.863737
955.922604
807.234645
660.089850
457.162857
303.072929
145.289898
73.456764
24.333596
10.324717
5.158782
4.685521
4.571676
4.200935
4.262924
4.024506
4.205704
##ZVALUE=385
0.540614
0.375509
0.434518
0.446439
0.505447
0.444651
0.427961
0.403523
0.459552
0.402927
0.407696
0.420809
0.466704
0.487566
0.402927
0.486970
0.555515
0.411868
0.458956
0.557899
0.484586
0.448823
0.469685
0.599623
0.438690
0.533462
0.534654
0.552535
0.569820
0.551939
0.580549
0.623465
0.585914
0.588894
0.595450
0.523925
0.452995
0.633597
0.640750
0.590682
0.763535
0.530481
0.493526
0.537634
0.550747
0.619888
0.474453
0.592470
0.593662
0.587702
0.609756
0.588894
0.610948
0.528693
0.497699
0.713468
0.557899
0.737906
0.831485
0.655651
0.817776
0.820756
0.910759
0.865459
0.849962
0.811815
1.017451
0.973940
1.280904
1.276731
1.309514
1.530647
1.829863
2.039671
7.327795
26.434660
99.143982
211.436749
437.974930
645.123720
904.874802
1013.836861
1015.710831
982.130766
788.374543
607.354641
372.545719
232.515931
104.501843
49.920678
16.000867
6.733537
4.568696
4.222989
4.151464
4.033446
##ZVALUE=390
0.437498
0.408888
0.442863
0.441670
0.416636
0.413656
0.415444
0.481606
0.375509
0.638962
0.468493
0.624657
0.471473
0.566840
0.545979
0.534654
0.487566
0.292659
0.447631
0.441670
0.647902
0.420809
0.519753
0.573993
0.521541
0.556707
0.535846
0.597835
0.401735
0.461936
0.506639
0.395775
0.506639
0.410676
0.537634
0.390410
0.530481
0.608563
0.698566
0.579953
0.594854
0.634789
0.610948
0.570416
0.602603
0.564456
0.544786
0.589490
0.521541
0.660419
0.567436
0.581741
0.798702
0.573993
0.692606
0.710487
0.634789
0.655651
0.786781
0.821948
0.734925
0.761747
0.818968
0.799894
0.650883
0.808835
0.798702
0.971556
1.032948
1.116991
1.125932
1.443624
1.356602
1.306534
1.379848
1.557469
2.973676
17.894506
54.254532
159.862041
293.490887
538.902879
719.015002
908.484459
981.490016
953.030586
850.795507
644.575953
477.049947
284.221768
164.813995
66.427588
30.720830
9.810925
4.775524
4.001856
##ZVALUE=395
0.383854
0.418425
0.378489
0.367761
0.294447
0.458956
0.467896
0.390410
0.538826
0.400543
0.466704
0.460744
0.484586
0.361800
0.433922
0.438690
0.471473
0.584722
0.482798
0.564456
0.461936
0.467896
0.462532
0.447631
0.488758
0.438690
0.531673
0.517964
0.554919
0.519753
0.575781
0.440478
0.493526
0.613928
0.627637
0.471473
0.560880
0.718832
0.447631
0.679493
0.555515
0.605583
0.538826
0.555515
0.647902
0.663996
0.628829
0.442863
0.664592
0.562668
0.648499
0.688434
0.707507
0.538826
0.519753
0.625849
0.727773
0.581741
0.665784
0.692606
0.592470
0.677705
0.709891
0.628829
0.788569
0.661612
0.739694
0.804663
0.955462
1.162887
1.172423
1.143813
1.163483
1.298785
1.243949
1.245737
1.320839
1.561642
1.920462
9.603500
36.388636
124.372840
229.123831
419.511795
594.123006
826.354623
950.005651
990.086794
936.554670
769.573450
583.708882
350.083709
219.703913
101.448894
48.011541
15.480518
##ZVALUE=400
0.447631
0.433922
0.544786
0.487566
0.362992
0.329614
0.430942
0.392795
0.567436
0.388622
0.283718
0.358820
0.474453
0.480413
0.577569
0.341535
0.538826
0.383854
0.428557
0.357628
0.472665
0.558496
0.498891
0.429749
0.362992
0.610948
0.520945
0.464916
0.600815
0.582933
0.479817
0.497699
0.492930
0.546575
0.539422
0.609756
0.436902
0.627637
0.602603
0.570416
0.571609
0.727773
0.642538
0.533462
0.657439
0.617504
0.598431
0.730753
0.694990
0.736713
0.547767
0.643730
0.664592
0.580549
0.518560
0.573993
0.715852
0.650883
0.658631
0.594854
0.500679
0.679493
0.702739
0.801682
0.729561
0.863671
0.939965
0.962615
0.831485
0.993609
1.132488
1.014471
1.087785
1.046658
1.147985
1.169443
1.112819
1.225471
1.193881
1.496673
1.605749
4.506707
19.207597
79.048872
166.760683
355.192423
541.236997
792.239904
953.363776
1015.710831
1013.033986
849.290490
682.463646
451.068878
291.079879
142.557621
##END
