##TITLE=QP0060
##FORMAT=SPECTACLE-ASCII V-1.2
##DATA TYPE=ULTRAVIOLET SPECTRUM
##SECOND TYPE=ULTRAVIOLET SPECTRUM
##DATE=04/11/18
##TIME=15:17:39
##SPECTROMETER/DATA SYSTEM=SPECTACLE
##XUNITS=NM EM
##YUNITS=ENERGY
##YFACTOR=1
##FIRSTX=220
##LASTX=410
##NPOINTS=96
##3DDATA=Equidistant
##ZUNITS=NM EX
##FIRSTZ=210
##LASTZ=400
##ZPOINTS=39
##XYDATA=(Y..Y)
##ZVALUE=210
2.253652
2.468824
2.746582
2.605915
2.401471
3.380775
2.729893
3.020763
3.597736
2.736449
2.724528
2.849698
3.399849
2.755523
2.664924
2.904534
2.412796
2.708435
3.177524
3.181696
3.618598
2.715588
3.273487
3.870726
3.757477
3.856421
3.927946
4.245639
3.911853
4.332662
4.528761
4.089475
4.440546
4.320741
3.917813
4.685521
4.357696
4.488826
5.227923
5.378723
4.968643
4.458427
4.507899
4.544854
4.839897
5.897880
5.569458
4.899502
5.073547
5.173683
5.435944
5.562901
5.358458
6.081462
5.481839
5.487800
6.207824
5.486608
5.716681
5.614758
5.439520
6.610751
6.003976
4.988909
5.390644
5.881786
6.761551
6.661415
7.361770
9.669662
11.136532
11.125803
12.781620
14.155507
15.310645
15.249848
16.255975
15.513897
13.847947
13.887882
13.295412
12.190938
10.517836
9.243488
8.671880
7.331967
6.309748
6.065965
6.140471
6.098747
5.924702
5.806684
6.482601
5.887747
6.911755
6.737709
##ZVALUE=215
7.077456
6.582737
6.326437
4.562736
4.809499
4.264712
5.195737
5.893707
4.959702
5.768538
5.047917
5.246997
4.290938
3.763437
2.611876
3.179908
3.307462
2.977848
3.064871
4.087687
3.925562
4.411936
3.575683
4.339814
4.216433
3.940463
3.856421
4.136562
4.548430
4.488826
4.564524
5.180836
4.294515
5.201697
4.318953
4.633665
5.033612
5.081892
6.206632
4.623532
5.557537
5.652905
5.296469
5.618930
5.808473
5.520582
5.377531
5.473495
5.086660
5.205870
4.861951
5.541444
6.777644
6.112456
5.561709
5.514622
5.494952
5.797744
6.792545
4.882812
5.707741
5.624890
5.345941
6.028414
6.321669
7.402897
6.383657
8.054972
7.287860
9.519458
9.723902
10.640621
11.900663
13.388991
14.510751
14.564991
15.011430
13.811588
14.456511
13.463497
12.770891
10.490417
10.822415
9.620786
9.002686
7.399917
7.697940
6.243587
6.478429
5.528927
5.638599
5.553961
5.490780
6.212592
5.790591
6.490946
##ZVALUE=220
20.141602
21.968484
23.028851
22.887588
19.622445
17.027855
14.467835
11.612773
10.368824
11.193752
10.760427
12.148619
11.452436
9.948611
9.025931
7.641912
5.971789
4.614592
3.658533
3.165603
4.094839
4.371405
3.512502
3.763437
4.076958
4.209876
4.162788
4.956722
4.078746
5.005598
4.311800
5.199909
4.787445
5.172491
5.001426
5.475879
5.493760
6.519556
5.506873
6.331801
6.159544
5.607605
5.880594
5.221963
6.361604
6.039739
6.018877
7.098913
7.005930
6.983876
6.388426
6.243587
6.896853
6.135702
7.079840
6.858706
6.864667
7.442832
7.340908
6.949902
7.797480
6.987453
6.939769
7.803440
7.690787
8.713603
8.213520
8.067489
9.494424
10.107756
11.865497
11.681914
14.640689
13.973713
17.177463
17.478466
16.553998
15.974641
14.991760
14.345646
14.344454
13.145804
10.142922
10.291934
9.945631
9.841919
9.447932
7.755756
7.668734
7.579923
6.977916
7.843971
8.157492
8.418560
7.948875
7.607937
##ZVALUE=225
38.018823
39.238930
49.687624
60.986876
69.229603
69.471598
59.527755
46.675801
37.874579
31.555891
22.913814
23.572445
25.482774
24.819970
25.549531
24.834871
20.028949
15.765429
12.415648
8.444786
6.921887
4.922748
4.724860
3.935695
3.854632
5.280972
4.940629
5.604625
4.640818
5.364418
4.922748
4.919767
5.439520
6.072521
6.269813
5.839467
5.855560
6.504655
7.199645
7.387996
6.023645
6.891489
5.794764
7.356405
7.373691
6.391406
7.027984
6.945729
8.277893
6.899834
7.305741
7.566810
8.190870
9.480715
8.815527
10.254979
9.057522
10.384917
10.672808
9.981990
10.188818
10.862947
9.264946
10.967851
10.847449
10.747910
11.082888
10.090470
12.661815
13.075471
12.897849
15.525818
16.382933
16.253591
16.712546
17.258525
18.039942
16.898513
16.201735
15.459657
15.577674
13.690591
12.838840
13.868809
12.555718
12.093782
10.796785
11.158586
10.626912
10.585785
10.989904
10.698438
10.999441
10.722876
9.544492
10.807514
##ZVALUE=230
34.006834
34.794807
67.608953
91.615915
118.152499
149.172544
164.734721
163.629651
143.021941
117.010474
87.342858
63.420534
51.004887
41.116476
42.919517
46.878457
51.367879
46.754479
40.105581
32.165647
26.676655
19.111633
12.568831
7.822514
6.049871
4.996657
5.736947
5.838871
6.147623
5.487800
6.134510
6.513596
5.609989
6.594658
6.273985
6.904602
6.916523
6.028414
7.460713
6.903410
7.425547
6.760955
7.099509
8.236766
7.707477
7.224679
6.952882
8.219481
8.190870
8.006692
8.887649
8.994937
9.121895
10.536909
11.131763
12.679696
11.420846
13.061762
13.582706
12.927651
13.040900
13.566613
13.239980
13.888478
13.989806
15.453696
14.089942
16.350746
16.000867
17.242432
18.711686
19.382834
20.158887
21.841526
21.270514
22.767782
23.860931
21.203756
20.984411
22.096634
20.555854
19.196868
18.079877
18.719435
17.901659
17.786622
17.258525
16.671419
16.002655
14.561415
16.456842
16.980767
17.414689
16.761422
16.702414
16.976595
##ZVALUE=235
13.426542
14.013648
31.363964
70.470572
110.433698
180.594921
239.349604
299.823880
326.453447
318.635702
286.857486
238.120556
166.029930
123.282671
85.335970
72.725415
69.937706
74.114799
82.018971
79.602599
77.190995
61.515570
49.084425
33.396482
24.173856
15.661716
9.474754
7.325411
7.071495
7.231832
6.779432
7.693768
6.443858
6.607771
7.196665
8.130670
5.810857
6.962419
8.286834
7.463694
7.362962
8.171797
7.980466
7.420778
7.860661
8.570552
7.729530
7.749796
9.359717
8.547902
8.738637
10.372996
10.079741
12.309551
12.139678
12.447834
12.621880
12.599826
13.165474
13.021827
15.347600
15.609860
17.255545
16.459823
17.100573
18.097758
18.921494
18.298626
19.207597
21.453500
20.733476
23.620725
25.617480
27.704835
28.018951
27.606487
27.820468
27.946830
28.276443
28.204918
27.449727
26.256442
26.894808
23.462772
24.156570
24.621487
25.150776
23.193955
23.258924
24.696589
23.552775
23.944974
21.844506
24.544001
22.828579
22.890568
##ZVALUE=240
2.152920
2.605915
7.070899
18.441677
47.306418
88.613629
176.675916
265.156627
386.414528
463.895798
529.539585
519.777536
477.386713
386.254787
294.542909
192.341805
137.344003
100.249648
93.029737
97.906590
106.761456
118.541718
114.593506
103.092790
82.419515
65.950751
45.357943
32.399893
19.096732
13.787746
10.232925
9.239912
8.097887
7.737875
7.870793
7.427931
8.215904
8.111000
8.518696
7.968545
8.423924
7.377863
7.513762
8.216500
8.294582
8.267760
9.007454
8.578897
8.802414
9.789467
8.636713
9.883642
9.424686
11.726618
12.994409
12.241602
11.333823
12.110472
12.240410
14.678836
14.656782
14.874935
15.048981
15.830994
18.737912
18.333793
18.665791
20.488501
19.737482
24.137497
24.882555
28.796792
29.365420
32.441616
32.516718
32.570958
32.563806
32.920837
32.518506
32.891631
31.961799
32.209754
30.323863
30.206442
31.486750
31.144619
30.936599
32.723546
29.451847
31.190515
31.097531
28.721690
30.377507
30.908585
28.441548
30.857921
##ZVALUE=245
1.556873
1.747608
1.806617
2.325773
4.314780
14.922619
35.913587
91.321468
170.138478
296.221972
409.675837
551.060438
633.737445
653.624535
619.681478
540.009737
407.563448
303.474665
183.703899
132.510662
99.722743
98.180771
114.185810
123.079419
126.989484
120.599866
109.337568
89.299679
66.879988
50.702691
38.050413
21.472573
14.709830
9.623766
8.187890
6.887913
6.994605
6.683469
6.908774
6.070733
8.019805
7.840991
7.458925
7.659793
7.608533
7.902980
7.573962
8.400679
7.657409
8.159876
8.803606
8.273721
9.640455
9.281635
9.328723
10.710955
9.671450
10.453463
11.115670
11.717677
12.795925
12.693405
12.769699
13.841987
14.582872
16.334653
16.349554
17.809868
20.803809
22.430420
21.576881
23.910999
25.748610
26.770830
28.476715
30.805469
30.211806
30.776858
30.198693
30.490756
30.433536
31.495690
30.151606
30.651689
29.628873
30.687451
30.208826
27.605891
30.696988
31.921864
30.041933
30.047894
30.916929
29.619932
30.990839
29.808879
##ZVALUE=250
1.859665
1.789927
1.880527
1.813769
1.833439
2.057552
3.009439
8.596778
32.012463
70.436597
167.388916
275.005698
401.992798
577.441454
683.139563
762.124658
757.184029
666.542649
560.102463
383.019447
259.802938
171.420574
106.656551
92.131495
103.224516
117.235780
132.759809
134.673715
130.116940
119.821429
103.984475
76.457858
56.776404
33.405423
22.525787
13.000965
9.387732
7.037520
7.038713
6.606579
7.288456
6.953478
6.971955
7.135868
7.669926
8.574724
7.728934
7.715821
7.470846
8.171797
7.621646
7.392764
7.739663
8.485913
9.357929
8.449554
8.433461
8.589625
9.796619
9.838939
10.339618
10.860562
10.755658
12.365580
13.109446
15.282631
15.065670
15.637875
16.975999
18.369555
20.353794
20.853877
22.008419
24.376512
24.808645
25.225878
25.803447
27.876496
27.745962
26.968718
28.500557
28.006434
27.348995
27.846694
27.148724
28.193593
29.068589
28.280616
29.843450
29.488802
30.871630
28.967857
28.336644
28.868914
28.417706
27.932525
##ZVALUE=255
1.454949
1.433492
1.184940
1.530647
1.416802
2.093911
1.697540
1.335740
2.147555
5.135536
21.787882
54.075718
110.912919
237.308741
367.136002
564.405918
694.458485
826.151967
873.168707
814.825892
714.916587
563.628674
349.195004
227.275491
124.824643
92.138648
86.881518
102.307796
123.346448
138.045549
142.852664
142.632723
130.459666
104.134679
80.833435
55.583715
36.958456
22.003651
12.630820
8.580685
8.014441
6.679893
7.541776
7.527471
8.032918
6.943941
7.665753
7.357597
7.833838
7.537603
8.081794
7.890463
8.639693
8.132458
9.105802
8.214712
8.285642
9.468794
8.934736
9.440780
8.783937
10.430813
11.365414
11.238456
11.196733
12.075901
13.153553
14.246702
15.181899
16.458631
17.683506
19.436479
20.444989
21.388531
22.778511
22.399426
24.484992
24.545789
25.431514
24.911761
26.547909
25.504827
25.172830
25.502443
25.705695
25.597811
25.491714
26.255846
26.656985
26.424527
26.957989
28.657913
26.772618
26.400685
27.879477
29.702783
##ZVALUE=260
1.177788
1.426935
1.184940
1.367927
1.487732
1.638532
1.182556
1.345873
1.841784
1.623631
1.807809
2.680421
8.499622
34.422874
79.597831
192.687511
314.498544
522.704720
691.232681
897.741914
977.787971
988.309979
866.030455
709.650517
467.122793
318.740606
183.578730
114.043951
81.213713
83.135962
97.764730
126.094818
141.882896
153.684616
145.031810
130.820870
109.338760
80.600977
59.576631
37.776828
24.864674
14.906526
10.845661
8.207560
7.040501
7.503629
7.481575
7.833838
7.919669
8.195639
8.085966
8.217692
8.070469
7.659793
8.838773
8.451939
8.403659
9.204745
8.382797
9.445548
9.673834
9.902716
10.190606
10.753870
10.870695
11.870861
12.674928
13.783574
14.240742
15.786886
16.014576
17.171502
18.708706
19.834638
21.026731
21.634698
21.964908
22.129416
22.447705
22.813678
23.997426
22.377968
23.077726
23.773909
24.274588
23.943782
23.893714
25.482774
24.486780
24.558902
26.337504
24.887919
26.020408
25.981665
26.156902
25.771856
##ZVALUE=265
1.179576
1.228452
1.158714
1.221895
1.105666
1.221895
1.147985
1.510978
1.523495
1.459718
1.539588
1.583695
1.797676
2.124906
4.913807
25.346875
61.656833
150.492787
269.600749
504.547954
692.635775
865.617990
1015.892029
1015.892029
984.303951
839.323997
618.890524
424.339771
231.331587
144.579411
84.007978
69.767833
80.025792
110.300779
131.717920
149.419904
154.089928
149.408579
136.030912
107.271671
84.991455
57.037473
39.149523
21.853447
14.477968
9.945631
8.859634
8.344650
7.977486
7.626414
7.881522
8.211732
8.426905
8.859634
8.973479
8.754730
8.720756
9.178519
9.188652
9.568930
9.789467
10.182858
9.843707
10.989904
11.673570
11.905432
11.625886
12.599826
12.711883
15.008450
15.483499
16.210675
17.009974
17.637610
18.932819
19.912720
20.775795
20.570755
22.001863
21.797419
20.351410
21.699667
21.965504
22.462606
22.471547
22.829771
22.414923
23.560524
24.242997
24.187565
23.012757
23.905635
23.528934
24.372935
23.331642
24.110675
##ZVALUE=270
0.984669
0.922680
0.991821
1.028776
1.030564
1.206994
1.381636
1.088977
1.044869
1.277924
1.276731
1.185536
1.335740
1.474619
1.685619
1.854897
2.369881
11.320710
32.741427
107.922554
212.342739
373.401642
652.532578
874.401927
1015.890837
1015.890837
1015.890837
1005.836725
788.244605
589.007735
401.834846
211.312771
117.450953
65.781474
62.388778
86.226463
108.545423
137.637854
150.899887
158.336759
153.303742
133.566856
113.552809
82.558990
61.385632
37.630796
24.467707
15.811920
11.123419
9.005666
8.652806
8.505583
9.365678
9.141564
9.401441
9.594560
9.751916
9.495616
9.600520
9.647608
10.404587
10.350943
10.675788
11.267662
11.702776
11.561513
12.949705
13.404489
13.377666
13.986826
15.189648
16.549826
16.667843
18.299818
18.024445
19.024611
19.628406
19.435883
19.538999
21.023750
21.076798
20.396709
20.937920
21.021962
21.199584
21.020770
21.586418
21.860600
22.248626
21.735430
22.978783
21.955967
21.608472
22.994876
22.758842
23.799539
##ZVALUE=275
0.923872
0.976920
0.881553
0.915527
1.021624
1.019835
1.127720
1.243949
1.078844
1.184940
1.304746
1.235604
1.302958
1.299977
1.293421
1.210570
1.514554
1.815557
2.032518
5.675554
20.307899
58.463812
166.736841
313.313007
589.435697
799.329877
1014.399529
1015.890837
1015.890837
1015.890837
1008.357406
757.477880
526.868701
276.467800
159.646869
71.329474
52.016973
60.689449
81.831813
111.572742
134.650469
152.667761
158.819556
149.782896
135.985613
106.926560
86.125731
59.531927
41.851997
25.494695
17.865896
12.386441
9.925961
10.153651
9.937882
9.561777
9.920597
10.770559
10.668635
11.162758
11.149645
11.134744
11.429787
11.390448
11.418462
12.618899
12.460947
13.388991
14.369488
14.413595
15.184879
15.355945
16.563535
17.224550
17.546415
18.890500
18.980503
19.420981
19.953847
19.049644
19.260645
19.765496
20.293593
19.908547
21.374822
21.080971
20.237565
21.461844
21.314621
20.619631
21.767616
20.669699
21.419525
21.041632
21.720529
21.847486
##ZVALUE=280
0.875592
0.653863
0.938773
0.797510
0.877976
0.957847
0.862479
0.903606
0.845790
0.974536
1.005530
0.980496
1.310706
1.056790
1.186728
1.113415
1.331568
1.526475
1.474619
1.618862
1.895428
2.198815
13.228655
43.933988
134.937763
250.245929
466.727614
680.198669
964.249969
1015.890837
1015.890837
1015.890837
1015.890837
854.105949
625.493526
353.034735
210.358500
92.355609
52.045584
43.672919
55.607557
83.751678
105.895996
133.469701
145.784616
152.892470
148.422718
133.489966
112.811923
82.166791
61.672926
39.835572
28.362870
17.938614
13.207793
11.056662
10.248423
10.248423
10.857582
11.351705
11.525750
11.611581
11.413693
12.282729
12.122989
12.548566
12.849569
13.373494
13.848543
14.548898
15.569925
15.769601
16.265512
18.028617
17.661452
18.150806
18.763542
19.264817
19.381642
19.495487
19.281507
19.516945
19.694567
19.333959
20.201802
19.791722
20.102859
20.682812
20.032525
20.413995
20.428896
21.114945
20.014644
21.112561
20.649433
20.597577
##ZVALUE=285
0.665784
0.734925
0.719428
0.736713
0.815988
0.724792
0.784993
0.862479
0.791550
1.193881
0.779629
0.747442
1.064539
1.104474
1.124740
0.758767
1.050830
1.038909
0.996590
1.291633
1.372695
1.603961
1.704693
2.047420
6.882548
22.638440
77.808499
164.243579
358.933806
561.431646
781.312585
1015.879512
1015.879512
1015.879512
1015.879512
1003.362536
798.738003
479.843616
299.042463
137.520432
70.401430
36.687851
37.047863
56.232810
76.220632
105.282664
126.217604
142.856836
151.554942
146.229863
134.683847
109.402537
89.753866
61.050653
43.884516
27.529597
19.483566
13.672709
11.852980
11.242628
11.550784
11.775494
11.686683
12.008548
12.628436
12.999773
13.011694
14.087558
14.289618
14.930964
15.327930
16.133785
16.877651
17.332435
18.253922
18.144846
18.996000
18.969774
18.893480
19.089580
18.732548
19.804835
19.695759
19.959807
20.240545
20.407438
20.078421
19.877553
20.329952
19.633770
20.977855
19.679666
19.987822
20.275712
20.674467
20.204782
##ZVALUE=290
0.776649
0.839829
0.760555
0.878572
0.620484
0.838637
0.877976
0.960827
0.710487
0.758767
0.977516
1.096725
0.938773
1.176596
1.078844
1.293421
1.067519
1.191497
1.054406
1.125932
1.190901
1.237988
1.362562
1.254678
1.667738
2.050996
8.743405
9.874701
42.387843
100.562572
251.339674
422.991514
729.029775
971.169472
1015.911698
1015.911698
1015.911698
1015.911698
895.408988
665.626526
382.913947
224.959850
94.161630
45.651793
27.636886
33.471584
51.637888
70.827603
98.791718
118.944645
139.979720
145.733953
142.927766
131.506920
109.844804
87.463856
60.166717
45.976639
29.237866
21.049976
15.078783
12.552738
11.663437
12.257695
12.575984
13.022423
13.596416
13.832450
14.872551
15.441775
15.779734
16.288757
17.345548
17.630458
17.496943
18.264651
19.629598
18.787980
19.588470
20.096898
19.676685
20.166636
20.225644
19.755960
19.932985
20.210743
20.122528
19.993782
20.132661
19.908547
20.309687
20.383596
19.907951
20.032525
19.728541
19.703507
##ZVALUE=295
0.701547
0.838637
0.787973
0.641942
0.679493
0.540614
0.675917
0.700951
0.708699
0.730753
0.536442
0.738502
1.070499
0.841618
0.889897
0.882745
0.893474
1.031756
0.863671
1.057982
1.088977
1.214743
1.180768
1.282692
1.358986
1.659989
1.762509
1.875758
1.993775
5.141497
19.249916
77.793598
168.232918
377.385616
596.768856
927.292705
1015.890837
1015.890837
1015.890837
1015.890837
1015.890837
780.780911
534.683466
279.296637
151.313543
56.593418
27.942657
22.725463
31.059980
50.129890
67.538619
95.956922
113.369823
131.975412
141.215920
138.342977
126.585960
103.600621
85.889697
60.073733
44.739842
29.284954
21.804571
15.911460
14.503598
13.207793
13.395548
14.292598
14.758706
15.303493
15.699863
16.779900
17.063618
18.398762
17.908812
18.702745
18.984675
19.325614
19.580722
18.502474
19.830465
19.889474
19.637942
21.002889
20.597577
20.481944
21.122694
20.773411
20.572543
20.601749
20.308495
20.321608
19.883513
20.252466
19.995570
19.534826
##ZVALUE=300
0.676513
0.714660
0.709891
0.743866
0.509620
0.647902
0.771880
0.552535
0.679493
0.586510
0.608563
0.613928
0.704527
0.884533
0.774860
0.720620
0.710487
0.860691
0.988841
0.911951
0.867844
0.912547
1.084805
1.009703
1.099706
0.973940
1.354814
1.491904
1.428723
1.832843
1.976490
2.476573
10.136962
34.519434
115.758777
225.820541
467.388630
710.428953
1011.585593
1015.892029
1015.892029
1015.892029
1015.892029
985.978842
658.145547
426.676869
215.647817
113.391876
41.369796
20.584464
20.935535
28.557777
44.765472
60.470700
87.209940
106.587410
124.976635
132.249594
133.215785
122.178793
103.910565
86.981654
62.741637
46.378970
30.788779
23.274422
17.329454
15.449524
14.548898
15.369654
16.245842
16.289949
17.154813
17.861724
18.520951
18.872619
19.126534
19.835830
19.537807
20.435452
20.746589
20.391941
20.960569
21.343827
21.153688
20.786524
20.979643
20.660758
21.142960
20.890832
20.555854
20.221472
20.239949
20.360947
20.813942
19.768476
##ZVALUE=305
0.527501
0.544786
0.554919
0.625849
0.612736
0.768900
0.745654
0.613928
0.677705
0.526905
0.498891
0.455976
0.432730
0.553727
0.526905
0.707507
0.654459
0.812411
0.868440
0.848770
0.821948
0.897646
0.754595
1.057982
0.960827
0.884533
1.162887
1.195669
1.398921
1.398921
1.441836
1.613498
1.923442
2.105832
4.052520
23.643970
66.148639
188.777447
342.160463
634.467006
891.310573
1015.890837
1015.890837
1015.890837
1015.890837
1014.480591
809.302926
510.152578
315.093994
140.874982
66.908598
23.412704
15.151501
19.035935
26.931763
43.236613
60.325861
83.392859
101.486444
120.425820
126.605630
126.184821
118.947625
100.776553
83.169937
59.112906
44.738650
30.820966
24.294853
18.531680
17.429590
17.222762
17.176867
17.840862
18.558502
18.397570
18.708706
19.965768
19.955635
19.358993
20.138621
21.379590
21.647811
21.942854
21.307468
21.538734
21.525621
21.340847
21.393895
21.085739
21.332502
20.634532
20.586848
20.131469
21.060705
20.046830
##ZVALUE=310
0.535846
0.578761
0.458956
0.648499
0.531673
0.449419
0.566840
0.579953
0.633597
0.634789
0.564456
0.703931
0.450611
0.525713
0.473857
0.689626
0.769496
0.775456
0.837445
0.664592
0.718832
0.840425
0.782609
0.929832
0.912547
0.877976
1.067519
0.927448
1.085997
1.208782
1.216531
1.269579
1.399517
1.537800
1.745820
1.932979
2.271533
10.563731
34.253597
115.747452
230.690837
475.471616
726.772547
1015.892029
1015.892029
1015.892029
1015.892029
1015.892029
1001.794934
690.597892
458.181500
228.822827
119.487643
41.231513
18.057823
13.474822
16.922951
25.527477
36.493540
55.566430
72.272420
95.801950
110.680461
120.489001
122.626424
114.311576
100.455880
80.469847
62.720776
44.973493
34.231544
25.133491
21.718740
19.243956
18.330812
19.351840
19.252896
19.730926
20.244718
20.320415
20.362735
21.353960
21.291971
21.736622
21.314621
21.830797
22.152662
21.774769
21.960735
21.859407
21.538734
21.372437
21.231771
21.675825
21.491647
21.084547
##ZVALUE=315
0.429749
0.478625
0.478625
0.524521
0.483990
0.372529
0.540614
0.545979
0.407696
0.454783
0.652671
0.648499
0.520945
0.532866
0.332594
0.548959
0.633597
0.611544
0.665784
0.525713
0.570416
0.754595
0.762939
0.576973
0.794530
0.970960
1.019835
1.009703
0.817776
0.968575
0.873804
1.069903
1.259446
1.122952
1.228452
1.444817
1.747608
1.846552
2.235770
4.145503
23.051500
65.158606
189.560652
349.190831
664.460659
942.978859
1015.890837
1015.890837
1015.890837
1015.890837
1015.890837
878.997445
544.081926
336.021781
151.353478
71.142912
21.969676
12.701750
12.510419
15.637875
23.711920
33.634901
51.735640
68.131685
91.047883
104.417801
116.468668
116.537809
108.794570
97.348690
76.979995
63.264966
45.724511
35.700798
27.148724
23.152828
20.814538
20.384789
20.127892
20.822883
20.834804
21.226406
21.302700
21.967888
21.898746
22.147894
22.151470
22.444725
22.373796
21.658540
22.230744
22.298694
21.932721
21.663904
21.671653
21.039844
##ZVALUE=320
0.516772
0.435710
0.448823
0.552535
0.485778
0.515580
0.682473
0.462532
0.470877
0.560880
0.658631
0.512600
0.519753
0.513792
0.595450
0.559688
0.574589
0.703931
0.824928
0.611544
0.654459
0.585914
0.774860
0.691414
0.799894
0.637770
0.790954
0.872612
0.749826
0.872612
1.081824
1.314878
0.904799
1.191497
1.072884
1.221895
1.455545
1.258850
1.584888
1.780987
1.921654
2.560616
8.344650
44.323802
114.584565
297.823548
498.756766
841.591954
1015.914679
1015.914679
1015.914679
1015.914679
1015.914679
995.352864
738.667846
405.633450
227.455497
94.689727
42.330623
14.629960
11.548996
12.448430
15.580654
22.631884
31.536818
49.275756
64.823627
84.467530
99.384785
111.554861
113.190413
105.937719
95.079541
76.989532
63.225627
45.770407
36.176443
28.340816
24.475455
22.359490
21.205544
21.685958
22.117496
21.691918
21.984577
22.433996
22.870898
22.596717
21.567941
22.564530
22.381544
21.958947
22.037625
21.868944
22.200942
21.664500
##ZVALUE=325
0.460744
0.544786
0.558496
0.463724
0.514984
0.469685
0.521541
0.540614
0.450611
0.380874
0.470877
0.445843
0.491738
0.540614
0.493526
0.577569
0.626445
0.619888
0.604987
0.592470
0.561476
0.617504
0.763535
0.607967
0.729561
0.672936
0.673532
0.944734
0.776649
0.562668
0.994802
0.893474
0.950694
1.162887
0.991821
1.151562
1.234412
0.941753
1.201630
1.246929
1.363754
1.633763
1.851916
2.234578
4.598498
30.222535
75.699687
206.893682
368.086696
687.817931
954.780579
1015.890837
1015.890837
1015.890837
1015.890837
1015.890837
843.241811
491.657853
297.099948
130.135417
60.538650
19.688606
11.843443
11.774898
12.498498
16.385913
22.052526
34.141541
46.357512
66.400766
81.808567
97.387433
105.847716
106.635690
101.354718
88.467002
75.518489
58.563948
46.875477
34.040809
28.956532
24.302602
22.586584
21.662712
22.107959
22.093654
21.820664
21.727681
21.974444
22.044778
22.033453
21.591783
21.554828
21.405816
21.420717
21.591783
##ZVALUE=330
0.375509
0.554919
0.512600
0.428557
0.517964
0.405908
0.371933
0.428557
0.437498
0.323653
0.435710
0.447631
0.358820
0.407696
0.607967
0.434518
0.525713
0.544786
0.651479
0.644922
0.679493
0.643730
0.592470
0.591874
0.522733
0.622869
0.673532
0.617504
0.674725
0.727773
0.721812
0.700951
0.861883
0.737906
0.801682
0.965595
0.904799
0.979900
0.988841
1.162887
1.199841
1.237988
1.332760
1.263618
1.594424
2.047420
2.533793
12.558699
41.264892
135.241747
264.433622
535.658598
799.109936
1015.890837
1015.890837
1015.890837
1015.890837
1015.890837
974.049568
622.341633
398.575664
185.220838
92.458725
32.386780
15.217662
11.156797
11.734962
13.332963
15.994906
23.520589
31.693578
46.403408
61.492920
80.213547
92.441440
102.616549
101.468563
96.689463
87.267756
70.510507
57.431459
43.208599
35.539865
29.184818
25.692582
23.253560
22.346973
21.688938
22.304654
21.574497
21.755695
21.616817
21.349788
21.339655
21.728873
21.164417
##ZVALUE=335
0.394583
0.331998
0.399947
0.380874
0.311732
0.447631
0.452995
0.499487
0.453591
0.571609
0.460744
0.452995
0.403523
0.376701
0.334978
0.540614
0.577569
0.469685
0.583529
0.546575
0.658631
0.398755
0.383854
0.508428
0.389814
0.639558
0.530481
0.552535
0.677705
0.611544
0.675917
0.501871
0.672936
0.821948
0.628829
0.841618
0.663996
0.795722
0.896454
0.985861
0.898838
1.235604
0.997782
1.313686
1.242757
1.298785
1.360774
1.799464
2.091527
5.585551
21.374822
84.050894
177.064538
394.560695
638.241768
990.966558
1015.890837
1015.890837
1015.890837
1015.890837
1015.890837
751.376748
509.442687
263.913870
135.351419
46.836734
20.208955
11.447668
10.873675
12.097955
13.694763
17.193556
22.484660
33.345819
44.763684
61.599612
75.030923
88.348985
95.831752
97.473860
92.043877
81.085563
70.481896
56.250691
45.681596
35.458803
29.599667
25.333762
22.970438
21.823645
21.415949
21.036863
20.719767
20.563602
20.489693
20.755529
##ZVALUE=340
0.414848
0.299811
0.302792
0.409484
0.317693
0.430942
0.451803
0.242591
0.280738
0.462532
0.387430
0.376701
0.432730
0.434518
0.558496
0.560880
0.495911
0.371933
0.451803
0.506639
0.401735
0.489950
0.417829
0.469685
0.318885
0.624657
0.441670
0.522733
0.766516
0.713468
0.654459
0.539422
0.699759
0.763535
0.645518
0.679493
0.581741
0.903606
0.772476
0.513792
0.994802
0.872612
0.803471
0.885725
0.958443
1.132488
1.148582
1.332760
1.314878
1.556873
1.708865
2.778769
10.043979
49.952865
121.560693
303.260684
515.414476
854.234695
1015.892029
1015.892029
1015.892029
1015.892029
1015.892029
889.750719
618.937016
321.306586
176.497698
70.996881
29.842854
13.039708
12.043715
12.172461
12.729764
14.677644
17.752647
23.787618
31.756759
44.809580
57.323575
73.546767
83.636642
91.261864
91.920495
86.994767
80.179572
65.358877
55.799484
43.560863
35.587549
28.316975
24.911761
21.990538
20.628572
20.365715
20.160675
19.612908
##ZVALUE=345
0.468493
0.587702
0.412464
0.343919
0.474453
0.445843
0.520945
0.494719
0.353456
0.393987
0.560880
0.558496
0.446439
0.563860
0.649691
0.452995
0.481606
0.464916
0.466704
0.538826
0.611544
0.573993
0.486970
0.648499
0.675917
0.662804
0.678897
0.484586
0.638962
0.639558
0.755787
0.554919
0.699759
0.717640
0.765920
0.685453
0.647902
0.822544
0.717640
0.701547
0.707507
0.851750
0.748634
1.029968
1.003742
1.136661
0.968575
1.253486
1.392961
1.350641
1.494884
1.590848
1.798868
2.170801
4.860759
28.894544
79.649687
209.193826
377.606750
688.374639
939.610600
1016.008854
1016.008854
1016.008854
1016.008854
994.752645
758.194923
448.711514
252.056718
96.596479
43.514967
16.419888
12.252927
12.004972
12.390614
13.169646
14.032722
17.320514
21.343827
30.688643
40.591955
55.242777
65.448880
76.843500
83.375573
86.276531
83.268881
74.379444
65.824986
53.790808
44.264793
33.882856
27.986765
23.234487
21.307468
19.760728
##ZVALUE=350
0.463724
0.458956
0.485778
0.326633
0.430942
0.242591
0.336766
0.264645
0.493526
0.417829
0.357628
0.310540
0.480413
0.428557
0.268817
0.458956
0.361800
0.443459
0.409484
0.436902
0.538826
0.475645
0.489950
0.696778
0.537634
0.463724
0.472665
0.475645
0.564456
0.508428
0.687838
0.763535
0.647902
0.620484
0.646710
0.757575
0.670552
0.673532
0.640750
0.722408
0.757575
0.748634
0.819564
0.743866
0.893474
0.920892
0.911951
0.911951
0.838637
1.056790
1.241565
1.359582
1.494884
1.579523
1.663566
1.761913
2.798438
15.188456
47.046542
144.143701
274.062753
558.985472
814.381838
1015.937924
1015.937924
1015.937924
1015.937924
1015.937924
867.002606
512.923002
306.985974
128.472447
58.032870
19.077659
12.151599
11.311769
11.797547
11.387467
12.246966
13.890862
16.499758
21.675825
27.806759
37.003756
46.935678
59.685707
68.953633
77.315569
78.253746
76.928735
71.037412
60.038567
51.473975
39.495826
32.875538
26.182532
##ZVALUE=355
0.303984
0.303984
0.434518
0.306964
0.538826
0.296831
0.371933
0.387430
0.334978
0.404716
0.367761
0.370741
0.465512
0.321865
0.265837
0.291467
0.382662
0.292659
0.450611
0.451803
0.400543
0.493526
0.481606
0.464916
0.472665
0.383854
0.399947
0.429749
0.553727
0.435710
0.505447
0.570416
0.460744
0.600815
0.693798
0.451803
0.542998
0.562668
0.567436
0.449419
0.613928
0.671744
0.684857
0.764728
0.837445
0.743866
0.706911
0.734925
0.801682
0.860691
0.927448
1.004934
0.968575
0.896454
1.353621
1.553893
1.240969
1.539588
2.097487
6.662607
23.945570
94.830394
197.148919
415.012836
652.595758
988.337994
1015.848517
1015.848517
1015.848517
1015.848517
959.156752
636.215806
397.584438
172.465444
80.856681
25.935769
13.677478
10.624528
10.588765
11.002421
11.578798
11.830926
12.787580
15.350580
18.026829
24.685860
31.790733
42.113662
51.072836
60.891509
67.874789
71.135759
69.867969
64.515471
57.423711
47.402978
##ZVALUE=360
0.401735
0.392795
0.542998
0.419617
0.452995
0.408888
0.246763
0.286698
0.333786
0.399947
0.262856
0.455976
0.383854
0.442863
0.594854
0.305772
0.310540
0.399947
0.560880
0.383854
0.504851
0.531673
0.550747
0.430942
0.508428
0.541806
0.389814
0.503659
0.531673
0.456572
0.461936
0.499487
0.617504
0.503659
0.606775
0.704527
0.637770
0.650883
0.640750
0.535846
0.459552
0.569820
0.705719
0.809431
0.666976
0.709891
0.681877
0.722408
0.812411
0.763535
1.117587
0.868440
1.038909
1.163483
1.079440
1.155734
1.221895
1.226664
1.470447
1.883507
1.868606
3.202558
10.522604
50.380826
122.225881
300.475955
494.648814
805.972815
1015.897989
1015.897989
1015.897989
1015.897989
1015.897393
747.503638
494.651794
235.364437
118.596554
42.714477
18.187761
10.611415
9.754896
10.398626
10.373592
10.572672
11.065602
11.864901
13.196468
16.284585
19.716620
27.113557
34.312606
44.988990
52.389503
60.874820
63.524842
64.167976
##ZVALUE=365
0.284910
0.332594
0.323653
0.275970
0.233650
0.393987
0.501871
0.408888
0.402927
0.521541
0.397563
0.241995
0.417829
0.530481
0.429749
0.450611
0.405908
0.489950
0.435710
0.472665
0.356436
0.492930
0.406504
0.431538
0.585914
0.576973
0.412464
0.626445
0.448823
0.427961
0.571609
0.555515
0.496507
0.568628
0.590682
0.471473
0.434518
0.659823
0.695586
0.490546
0.746846
0.691414
0.801682
0.737906
0.800490
0.678897
0.774860
0.757575
0.654459
0.657439
0.900626
0.925660
0.839829
0.813603
1.050830
0.967979
0.952482
1.037717
1.353621
1.176000
1.407862
1.858473
2.024770
2.241731
5.748868
21.598935
84.206462
183.105469
420.035720
664.642453
987.011790
1015.892029
1015.892029
1015.892029
1015.892029
917.761922
592.972636
360.042453
158.015490
72.353482
22.365451
11.255741
9.381771
9.390712
9.405613
9.489655
9.722710
9.854436
10.597706
11.722445
14.115572
16.914606
23.590922
29.568672
39.243698
46.142936
##ZVALUE=370
0.444651
0.573993
0.440478
0.469685
0.610948
0.484586
0.360608
0.489950
0.584722
0.537634
0.574589
0.487566
0.607967
0.442863
0.579953
0.485778
0.442863
0.506639
0.578761
0.615716
0.647902
0.618696
0.607967
0.607967
0.622869
0.758767
0.537634
0.686646
0.643730
0.499487
0.599623
0.573993
0.539422
0.515580
0.742674
0.626445
0.677705
0.559688
0.721812
0.786781
0.673532
0.515580
0.736713
0.717640
0.650883
0.659823
0.894666
0.805855
0.757575
0.841618
0.814795
0.933409
0.976920
0.963807
1.004934
0.969768
1.004934
1.105666
1.116991
1.325607
1.469851
1.429915
1.449585
1.702905
1.861453
2.159476
3.291965
11.441708
59.181452
143.266916
344.178677
547.012687
858.393908
1016.042829
1016.042829
1016.042829
1016.042829
965.204835
634.794831
417.893529
203.048587
98.260641
33.170581
15.082955
8.973479
8.730888
8.763671
8.786917
8.956790
8.993745
9.389520
9.912848
10.726452
12.250543
15.802979
19.250512
##ZVALUE=375
0.340939
0.382662
0.318885
0.299811
0.264645
0.285506
0.112653
0.369549
0.383854
0.359416
0.370741
0.338554
0.331998
0.406504
0.400543
0.305772
0.310540
0.262856
0.288486
0.299811
0.352859
0.330806
0.310540
0.431538
0.543594
0.386834
0.463724
0.413656
0.329614
0.477433
0.368953
0.406504
0.571609
0.513792
0.487566
0.449419
0.416636
0.603795
0.504851
0.461936
0.481606
0.640750
0.556707
0.576973
0.440478
0.486970
0.528693
0.516772
0.601411
0.712872
0.519753
0.598431
0.638962
0.537634
0.720620
0.767708
0.916719
0.791550
0.751615
0.873804
0.925660
0.981688
0.958443
1.161695
1.330972
1.348853
1.454949
1.745820
2.210736
7.087588
25.690794
94.293952
204.632878
457.876921
700.213909
1006.773710
1015.890837
1015.890837
1015.890837
1015.890837
837.617517
506.531000
315.467715
149.553418
71.935654
23.432970
11.042953
7.775426
7.863641
7.724762
7.806420
8.238554
8.087754
8.323789
8.648634
9.513497
##ZVALUE=380
0.237823
0.316501
0.302792
0.292659
0.321865
0.362992
0.257492
0.378489
0.429749
0.358820
0.208616
0.277758
0.331998
0.260472
0.293851
0.503659
0.323653
0.242591
0.324845
0.429749
0.455976
0.186563
0.228882
0.284910
0.311732
0.402927
0.181794
0.439882
0.327826
0.378489
0.483990
0.267625
0.351667
0.385642
0.481606
0.481606
0.453591
0.271797
0.569820
0.462532
0.404716
0.519753
0.424981
0.397563
0.553727
0.492930
0.433922
0.465512
0.488758
0.587702
0.616908
0.665784
0.628829
0.504851
0.637770
0.640750
0.656843
0.729561
0.801682
0.665784
0.668764
0.729561
0.743866
0.924468
1.050830
1.022816
1.229644
1.368523
1.287460
1.804829
1.899600
3.469586
13.843775
65.401793
152.716637
359.823704
578.786731
908.028483
1015.914679
1015.914679
1015.914679
1015.914679
955.623984
665.154457
447.582603
214.511752
107.350945
36.233664
15.284419
7.684827
7.200837
7.155538
7.115602
7.574558
7.286668
7.617474
##ZVALUE=385
0.395775
0.422597
0.327826
0.337958
0.229478
0.365973
0.378489
0.187755
0.380874
0.350475
0.384450
0.355840
0.317693
0.399947
0.514984
0.417829
0.305772
0.473857
0.344515
0.374913
0.383854
0.361800
0.576973
0.267625
0.601411
0.367761
0.371933
0.322461
0.462532
0.513792
0.385642
0.451803
0.392795
0.445843
0.436902
0.502467
0.441670
0.592470
0.443459
0.527501
0.464916
0.370741
0.390410
0.651479
0.391603
0.571609
0.519753
0.556707
0.489950
0.583529
0.697970
0.486970
0.563860
0.658631
0.623465
0.731945
0.607967
0.684857
0.583529
0.620484
0.778437
0.839829
0.841618
0.957847
0.783801
1.057982
0.850558
1.121759
1.191497
1.486540
1.547933
1.709461
1.901984
2.332926
6.528497
36.486983
93.770623
241.915584
431.538820
760.571957
996.397734
1015.986800
1015.986800
1015.986800
1015.986800
803.287625
566.745400
303.930640
173.236728
68.091750
27.632713
9.052753
6.961823
6.409883
6.785989
6.879568
##ZVALUE=390
0.202656
0.172853
0.379682
0.276566
0.363588
0.311732
0.293851
0.185966
0.420809
0.428557
0.174642
0.189543
0.256896
0.219941
0.322461
0.239611
0.355840
0.272989
0.320673
0.180602
0.231862
0.300407
0.331998
0.373721
0.401735
0.236630
0.154972
0.357628
0.410676
0.402927
0.337958
0.277758
0.378489
0.496507
0.429749
0.300407
0.513792
0.508428
0.322461
0.490546
0.338554
0.539422
0.523925
0.392795
0.444651
0.487566
0.339746
0.424981
0.431538
0.441670
0.504851
0.396967
0.444651
0.520945
0.401735
0.530481
0.567436
0.688434
0.582933
0.696778
0.610948
0.643730
0.529885
0.704527
0.826716
0.895858
0.828505
0.955462
1.181960
1.308918
1.306534
1.438856
1.500845
1.666546
1.708865
1.869798
3.260970
19.230843
61.435699
189.555883
361.875892
680.374503
928.135514
1015.890837
1015.890837
1015.890837
1015.890837
928.664804
705.017447
418.998599
239.778757
96.225739
41.890740
12.273788
6.895661
6.038547
##ZVALUE=395
0.219941
0.226498
0.168681
0.481606
0.147820
0.159740
0.241995
0.166893
0.279546
0.228882
0.135899
0.221729
0.161529
0.199676
0.163913
0.320673
0.267625
0.282526
0.324845
0.323653
0.460744
0.384450
0.356436
0.345707
0.300407
0.257492
0.173450
0.226498
0.390410
0.389814
0.453591
0.228882
0.243783
0.252724
0.314713
0.299811
0.348687
0.153780
0.399947
0.316501
0.287890
0.425577
0.479817
0.486970
0.376701
0.469685
0.427961
0.307560
0.445843
0.444651
0.492930
0.593662
0.381470
0.510812
0.362992
0.441670
0.607967
0.506639
0.514984
0.562668
0.624657
0.567436
0.647902
0.687838
0.611544
0.695586
0.781417
0.790954
1.017451
0.987649
1.183748
1.313686
1.130700
1.257658
1.325607
1.259446
1.348853
1.665950
2.166629
10.638833
38.454533
130.412579
248.889923
475.667715
703.675747
1006.397009
1015.892029
1015.892029
1015.892029
1015.892029
849.214792
526.285768
325.776935
140.875578
66.262484
20.608902
##ZVALUE=400
0.235438
0.317693
0.323653
0.224710
0.223517
0.045896
0.171661
0.198483
0.384450
0.138879
0.265837
0.294447
0.364780
0.310540
0.262856
0.146627
0.316501
0.462532
0.200868
0.320673
0.290871
0.338554
0.237823
0.414848
0.254512
0.277758
0.394583
0.195503
0.186563
0.245571
0.369549
0.498891
0.346899
0.326633
0.285506
0.334978
0.341535
0.222921
0.437498
0.338554
0.451803
0.455976
0.418425
0.221729
0.426769
0.316501
0.331998
0.426769
0.444651
0.203848
0.444651
0.421405
0.586510
0.541806
0.607967
0.634789
0.527501
0.581741
0.407696
0.450611
0.609756
0.553727
0.552535
0.708699
0.684857
0.620484
0.810623
0.871420
0.914931
1.118779
1.125932
1.087785
1.247525
1.169443
1.196861
1.226664
1.022816
1.144409
1.274943
1.521707
1.907945
5.444884
19.878745
75.336695
161.917806
362.040997
578.570962
899.940729
1015.890837
1015.890837
1015.890837
1015.890837
944.461823
616.909862
402.205586
201.382637
##END
