##TITLE=DDW01
##FORMAT=SPECTACLE-ASCII V-1.2
##DATA TYPE=ULTRAVIOLET SPECTRUM
##SECOND TYPE=ULTRAVIOLET SPECTRUM
##DATE=02/28/18
##TIME=14:41:25
##SPECTROMETER/DATA SYSTEM=SPECTACLE
##XUNITS=NM EM
##YUNITS=ENERGY
##YFACTOR=1
##FIRSTX=220
##LASTX=410
##NPOINTS=96
##3DDATA=Equidistant
##ZUNITS=NM EX
##FIRSTZ=210
##LASTZ=400
##ZPOINTS=39
##XYDATA=(Y..Y)
##ZVALUE=210
14.943480
15.461445
12.948513
12.280941
10.243654
10.368824
9.456873
6.698966
6.737709
5.176663
3.399849
2.552867
2.219677
2.586842
2.095699
2.122521
2.135634
2.434850
2.155900
2.475977
2.942681
2.835989
2.717972
2.740622
2.996922
3.393888
3.746748
3.103614
3.878474
3.618598
3.767610
4.642606
4.613996
3.941655
5.033612
5.128980
5.801916
5.274415
6.853938
6.362796
6.544590
6.057620
6.614923
6.362796
6.455779
6.409883
5.623698
7.017851
6.954670
7.008910
7.330775
6.851554
7.736683
7.442832
8.509755
7.863641
8.347631
8.143783
10.233521
9.532571
9.552836
8.365512
8.773804
8.201599
10.154843
9.020567
9.782910
9.176731
9.990931
10.593534
12.117624
11.210442
12.224913
12.769699
13.944507
14.499426
13.439655
12.195706
10.942817
9.775758
10.046959
8.476973
8.316636
7.466674
6.732941
6.041527
5.286932
5.955696
6.468892
9.307861
11.241436
14.823675
18.022656
22.004843
29.554963
32.531619
##ZVALUE=215
45.132637
43.365955
34.660697
25.545955
20.948648
18.831491
15.583634
17.641783
15.840530
14.211535
11.605620
8.761883
7.492900
4.909635
4.060864
3.489852
2.869964
2.466440
2.605915
2.645850
3.244877
3.063679
2.920628
3.879666
3.292561
3.389716
3.660917
4.277825
4.104972
4.535913
4.666448
5.293489
6.034970
5.961657
7.265806
6.779432
6.968975
7.250905
8.203983
7.876754
7.475615
7.347465
6.922483
7.270575
8.291602
7.619858
7.493496
7.475615
8.431673
8.350611
9.665489
9.837747
8.366704
9.318590
9.794831
10.262728
8.954406
9.830594
10.725856
12.296438
11.166930
10.491610
11.296868
11.564493
10.849833
12.254715
11.620522
11.895895
12.205839
11.667609
11.986494
12.820959
13.452768
14.385581
12.459755
13.793707
12.501478
13.880730
11.768937
11.402965
9.742975
9.070635
7.812977
6.906986
6.167889
7.251501
5.915761
6.107688
5.308986
5.426407
4.985929
5.738735
6.898642
7.396936
11.814833
15.703440
##ZVALUE=220
121.183991
118.031502
102.596879
79.406500
64.076781
48.571825
34.680963
29.781461
25.128722
24.004579
25.467873
24.191737
21.814704
19.082427
14.232993
9.843707
7.170439
5.310774
3.344417
3.605485
3.833771
2.495646
3.920794
3.244877
3.442764
3.758669
4.009604
4.313588
4.984736
4.558563
5.835891
5.440712
6.088614
6.877780
8.351803
7.189512
9.101629
9.244680
10.114908
8.938909
9.391904
10.125637
9.351969
10.647774
9.693503
10.183454
10.130405
9.766817
8.857846
9.544492
11.429787
11.086464
11.263490
11.751652
11.894703
13.069510
11.936426
13.197660
14.880896
13.445616
14.020801
14.919639
12.938976
14.561415
15.238523
14.427900
13.765693
13.070703
12.992620
14.992952
14.354587
14.395714
16.125441
15.689731
16.060472
15.195608
15.876889
13.424754
14.727712
14.561415
11.984706
10.536909
9.899735
8.970499
7.446408
6.685853
7.064939
6.873608
6.194711
5.407929
5.012751
5.964637
6.505847
6.380677
5.178452
6.223917
##ZVALUE=225
178.308487
188.345909
205.705762
200.628638
185.576677
157.104731
129.539967
87.155700
66.545606
50.055981
40.395856
39.690733
39.091706
40.432811
40.015578
34.856796
27.134418
23.060441
16.544461
10.107756
7.745624
4.901886
3.528595
4.731417
4.477501
4.219413
4.329681
5.186796
4.473925
4.960895
6.051660
6.529689
7.188916
7.615685
7.492900
9.962916
10.620952
10.996461
12.309551
11.798739
11.577606
11.893511
10.720491
11.261702
11.935830
11.684895
11.781454
12.113452
12.057424
11.972785
12.885928
13.355613
15.835762
15.326738
14.925599
16.630888
17.273426
16.793609
17.169714
18.146634
18.682480
18.184781
18.693805
17.187595
17.553568
16.696453
18.315911
17.280579
16.909838
19.077659
18.249750
18.410683
19.182563
17.722845
17.773509
16.514659
17.066598
15.536547
15.075803
15.012622
13.743639
11.813641
11.724830
10.816455
9.558797
8.846521
8.174777
9.467602
7.193685
7.824898
8.295774
7.644892
7.022619
7.049441
7.014871
6.761551
##ZVALUE=230
137.751698
144.371986
221.995711
264.839530
314.168930
324.316621
315.596461
281.130672
218.790770
167.894959
104.524493
79.395771
63.653588
59.545636
60.999990
65.521002
64.432621
59.287548
51.929951
39.453506
30.846000
21.358728
12.903810
8.819699
5.138516
6.459951
5.542636
6.074905
4.869699
6.260872
6.675720
6.613731
6.908774
7.959604
8.633733
9.956956
9.519458
10.774732
11.658669
11.743903
11.523962
11.416674
11.238456
11.550784
12.336969
11.162758
12.807846
12.727976
13.176799
14.255643
16.312599
18.213987
18.999577
19.010901
20.386577
20.206571
21.168590
23.302436
22.740960
24.736524
23.607612
23.289919
23.433566
24.402738
26.811957
25.600791
23.375750
23.690462
22.057891
21.238923
22.187829
21.801591
21.747947
22.455454
23.201704
21.330714
18.812418
19.300580
20.172000
17.658472
15.253425
14.965534
15.297532
13.173819
13.511777
11.652708
10.324717
10.302663
9.708405
9.584427
9.966493
9.598732
8.834600
8.614659
9.108782
7.721782
##ZVALUE=235
35.974979
41.970611
87.488890
175.320506
261.910558
361.447930
438.892841
495.291948
512.901545
479.995608
382.043719
293.367505
183.390975
133.564472
99.212527
83.455443
84.588528
89.609623
92.876554
91.036558
84.346533
68.647861
55.555701
35.600662
26.773810
16.481876
11.384487
8.317828
6.892681
7.086992
6.682873
7.684827
7.861853
8.849502
8.511543
8.816719
9.721518
9.619594
10.175705
9.385943
9.952784
10.340810
11.064410
11.228919
10.947585
10.436773
12.209415
13.168454
14.511943
16.486645
19.910932
20.982623
22.513866
23.973584
24.350882
26.504993
26.363730
30.062795
29.694438
31.247735
32.688975
32.548904
31.379461
32.021999
32.976866
30.817986
31.743646
30.761957
31.441450
30.518770
29.968619
29.852986
30.616522
28.449893
26.169419
27.506948
26.563406
25.159717
25.107861
21.860600
19.921660
18.478632
16.867518
15.584826
16.190410
15.018582
13.560653
14.662743
13.226867
11.674762
11.867881
12.261868
10.569692
11.531711
11.093616
9.968877
##ZVALUE=240
1.801848
2.370477
9.472966
28.851628
68.795681
151.983500
252.988935
404.407978
512.371659
611.132979
645.718575
597.525835
524.292588
393.643975
286.403894
184.902549
131.201744
98.650455
96.239448
106.559992
114.213824
114.766955
111.992955
98.790526
81.454515
64.264536
43.194890
32.444000
18.647909
14.224648
9.234548
8.023977
8.113980
7.281899
7.862449
8.434653
8.104444
7.503629
8.912683
8.885860
8.420944
10.181665
9.249449
8.756518
9.931922
9.776950
9.626746
12.795925
14.367700
16.848445
18.381476
21.226406
23.923516
25.490522
26.059747
31.106472
29.786825
30.401945
33.221841
37.262440
35.514832
36.218762
36.062598
34.328699
35.952926
36.666989
35.710931
34.890771
32.173991
33.763647
31.031966
33.014417
30.514598
30.031800
30.870438
28.934479
27.293563
26.072860
26.050806
25.026798
21.229982
21.387935
17.951727
18.987656
17.292500
16.428828
16.101599
13.958812
14.709830
14.524460
12.268424
12.730956
13.318658
12.364984
11.375546
11.198521
##ZVALUE=245
1.481771
1.369715
1.962781
2.214909
8.268952
24.393797
64.329505
129.550695
261.406898
383.540988
563.042760
665.170550
725.127459
725.657940
653.868914
506.300926
388.751626
251.479745
173.932910
116.250515
97.660422
99.579692
110.797882
128.341913
128.482580
122.465491
107.615590
91.843605
70.157647
51.231980
36.920905
22.005439
16.216636
10.089874
9.739995
8.667707
8.679628
9.086728
8.964539
9.349585
9.483695
9.001493
9.327531
9.703636
9.905696
9.946823
10.580420
12.710690
13.947487
16.545653
18.224716
21.418929
22.670627
24.643540
26.473999
27.075410
28.242469
31.816959
32.803416
33.111572
34.730434
34.385920
34.966469
33.757687
35.285950
32.087564
31.821728
32.888651
34.064651
32.487512
32.955408
31.016469
29.578805
28.670430
28.544664
26.161671
26.757717
23.529530
23.396611
21.939874
20.422935
18.754601
17.375946
17.990470
16.301870
15.189648
14.742613
14.099479
12.823939
12.883544
12.823939
11.449456
11.209846
10.395646
9.948611
9.668469
##ZVALUE=250
1.111627
1.465678
1.165867
1.060963
1.373887
1.476407
2.716780
17.400980
45.971870
91.646910
210.293531
343.037844
535.005927
673.053861
785.795450
824.987888
764.904618
654.875636
539.446473
360.786915
237.125754
137.418509
94.884634
91.751814
100.050569
118.511915
131.958723
134.694576
130.283833
118.632913
99.967718
72.189569
54.314733
34.989715
24.045706
15.024543
12.062788
9.343624
10.192990
9.145737
9.315610
8.684993
9.567738
9.996891
9.882450
9.932518
10.052919
12.364984
13.113618
15.234947
15.233755
17.170906
19.451976
22.127628
21.020770
23.531914
23.814440
26.487708
25.814772
26.659966
27.109981
28.749704
28.560758
27.056932
28.155446
27.595758
26.844740
27.576685
26.893616
27.727485
26.628971
24.707913
24.422407
23.596883
22.963881
21.859407
21.795630
20.339489
19.447803
17.171502
17.047524
15.705824
15.088916
13.306737
13.218522
13.190508
12.485981
10.756850
9.817481
10.425448
9.699464
10.112524
9.789467
8.680820
8.585453
9.202957
##ZVALUE=255
1.086593
0.913739
0.817776
1.299977
1.145601
1.201630
1.254678
1.257658
2.139807
7.025599
35.644770
77.133775
147.435665
303.529501
455.874801
668.968558
807.035565
896.094441
893.772840
772.897601
630.813837
476.363897
288.031697
185.377598
105.787516
86.206794
84.398985
99.959970
118.510723
135.825872
139.568448
138.401985
122.937560
101.536512
78.575611
53.876638
37.599802
23.918748
16.724467
12.965798
11.637807
10.554790
11.286736
10.896921
11.043549
10.744929
11.534691
11.901855
12.526512
13.196468
14.465451
16.146898
16.726851
17.835498
18.190742
19.104481
19.319654
20.682812
21.676421
22.795796
22.504926
21.996498
22.929907
22.589564
22.375584
20.923615
22.314787
20.988584
20.726919
21.042824
20.297766
20.542741
19.733906
19.023418
18.397570
18.930435
17.048717
15.619993
16.418695
13.614893
12.485981
12.282729
12.326837
10.944605
10.350943
10.430813
9.479523
9.813905
8.851886
8.262992
8.147955
7.543564
7.371902
8.184910
7.740855
6.921887
##ZVALUE=260
0.953674
0.847578
0.898838
0.877976
1.014471
0.866652
0.902414
1.152754
1.447797
1.452565
1.497865
3.073812
12.336969
50.274730
104.103684
245.417953
388.045907
603.964925
776.253939
937.822461
973.787904
930.535793
758.189559
593.175888
374.668837
251.222849
144.311786
92.507601
72.808862
77.076554
99.722743
121.665001
134.681463
145.165920
142.820477
123.732686
108.509660
80.952644
60.922503
41.573644
28.775930
19.510984
15.434623
12.605786
12.745857
12.882948
11.970997
12.374520
13.096929
14.179945
15.372634
16.433001
17.972589
18.138885
18.817782
19.522905
19.913912
21.063685
21.756887
22.185445
21.751523
21.460652
21.846890
21.194816
22.300482
21.160841
20.931959
21.155477
21.400452
20.255446
19.504428
19.552708
19.282699
18.506646
17.396808
16.120672
16.311407
15.039444
14.073849
13.668537
12.431741
12.392998
11.439919
10.908842
9.852648
9.253621
8.873940
9.055734
7.947683
7.420778
7.371902
7.378459
7.435679
7.448792
6.934404
7.680655
##ZVALUE=265
0.807643
0.760555
0.967979
0.925660
0.870824
0.976920
0.955462
1.030564
1.419783
1.240969
1.197457
1.370907
1.529455
1.741648
5.538464
34.370422
77.482462
189.351439
320.713520
562.104583
757.627487
914.706588
1014.427543
1001.403928
845.059752
690.866709
487.248898
333.042741
179.089904
113.132596
76.497793
64.120889
76.942444
106.328726
126.798749
145.341754
151.871443
144.640803
131.207705
107.128620
85.066557
59.469938
42.414665
28.015971
21.595955
16.056895
15.537739
14.458895
15.074611
16.344786
17.568469
19.355416
19.341707
20.381808
21.093488
21.488667
22.798777
23.206472
23.695827
24.795532
24.789572
24.074912
23.731589
24.648905
24.061799
24.268627
23.319721
23.301840
23.097992
22.146702
22.475719
20.965934
20.132661
19.585490
18.611550
17.433763
16.289949
15.175939
16.090870
13.715625
13.230443
12.238622
11.685491
10.823607
10.631680
9.852648
9.417534
9.083748
8.325577
8.269548
7.600784
8.055568
7.721782
7.892847
6.767511
6.990433
##ZVALUE=270
0.729561
0.888705
0.814795
0.811815
0.824928
0.767708
0.948906
0.901818
0.989437
0.815988
0.990629
1.180768
1.121759
1.208782
1.429915
1.461506
2.563596
14.706850
42.866468
134.691596
254.844427
422.917604
696.259737
887.393951
1015.710831
1015.710831
963.674784
828.117728
599.837899
436.537862
294.638872
155.484676
93.057752
58.498979
62.680840
83.716512
105.288625
132.327676
144.723654
154.077411
148.910880
128.352642
112.338662
84.596872
64.475536
41.898489
31.773448
23.583770
19.572973
18.757582
19.544959
20.966530
21.028519
22.955537
22.710562
24.275780
25.586486
26.736856
26.913881
27.178526
28.067827
28.001666
28.247833
27.119517
26.409626
26.391745
26.571751
25.287867
25.163889
23.605824
24.077892
22.626519
22.293925
21.217465
20.052791
19.738674
18.330812
17.344952
15.898943
15.312433
14.172792
13.444424
12.854934
11.909604
12.192726
11.046529
10.221601
8.889437
9.858608
8.909702
9.096861
8.617640
8.552670
8.873940
8.129478
8.166432
##ZVALUE=275
0.744462
0.714660
0.658631
0.774860
0.728965
0.802875
0.858903
0.671744
0.828505
0.689626
0.910759
0.957847
0.801682
1.194477
1.406670
1.065731
1.348853
1.692772
1.928806
5.672574
25.613904
73.287487
199.266672
352.515578
617.473722
799.667835
980.897546
1015.712023
1015.712023
922.264457
721.446872
543.722510
373.316407
194.550753
114.941597
60.445666
48.785806
60.901642
80.323815
106.246471
128.042698
145.909786
150.167942
144.098997
131.023526
105.199814
85.619688
62.054992
47.704577
34.930706
28.654933
26.266575
24.365783
25.317669
25.999546
27.606487
27.630925
30.121803
31.366944
31.863451
32.712817
32.325983
32.184720
31.136870
30.263662
29.776692
28.973818
28.965473
28.711557
27.592778
26.629567
25.316477
24.423599
23.663640
22.488832
21.565557
20.831823
19.553900
18.071532
16.932487
15.669465
14.688969
14.175773
13.593435
12.567639
12.022853
11.499524
10.441542
10.725856
9.611845
9.701848
9.168983
9.035468
8.837581
8.376837
8.188486
##ZVALUE=280
0.622869
0.577569
0.524521
0.582933
0.582933
0.642538
0.645518
0.776649
0.872612
0.739694
0.698566
0.785589
0.758767
0.866652
0.813603
0.844598
1.215935
1.176596
1.485944
1.491904
1.746416
2.257824
15.820861
53.299665
160.530806
279.266834
494.038463
681.576729
902.599692
1012.069583
1015.710831
980.289578
844.957829
610.016584
435.644984
243.568420
144.494772
69.233775
44.825673
45.049787
56.740642
82.799792
103.862882
125.961900
140.713453
145.295858
139.696598
126.424432
110.711455
87.181926
71.218610
51.822662
42.462945
35.339594
32.250881
30.859709
31.232834
34.088492
34.913421
35.854578
37.054420
35.937428
36.826730
35.894513
35.456419
35.027862
34.536719
33.458471
32.805800
31.800866
30.904412
29.520988
28.325915
27.642846
26.311874
23.878813
23.078918
21.652579
20.449758
19.756556
17.858744
16.904473
15.957952
14.836788
14.540553
12.889504
12.360811
11.926889
11.473894
11.005998
10.755658
9.873509
9.688735
9.356737
9.382963
8.951426
##ZVALUE=285
0.590682
0.547767
0.573993
0.519753
0.691414
0.582933
0.729561
0.518560
0.659823
0.548959
0.767708
0.791550
0.900626
0.788569
0.981688
0.848770
1.020432
1.015663
0.910759
1.167655
1.268983
1.298785
1.437664
1.789927
6.209612
25.427938
88.027716
179.864764
362.802744
540.331006
771.470666
918.017030
1006.577611
1007.859707
908.252597
704.166889
534.311533
320.271850
198.170543
94.664693
52.372813
32.399893
35.942793
53.275824
71.506500
99.619627
117.381811
136.026740
143.872499
143.200755
135.717988
117.286444
99.568963
77.718496
64.369440
50.319433
45.351982
42.293668
42.890906
43.324828
43.767691
43.378472
43.608546
42.769909
41.731000
41.456819
41.868687
40.185452
39.912462
38.459897
37.024617
34.214854
33.136606
31.394958
30.280948
28.691888
27.245879
25.054812
23.320913
22.268891
21.302700
19.494891
18.876791
17.660856
16.212463
15.138984
14.719963
14.077425
13.186932
12.512803
11.715889
11.277795
10.920763
10.580420
10.202527
9.281635
##ZVALUE=290
0.638962
0.449419
0.540614
0.610948
0.499487
0.486970
0.508428
0.459552
0.682473
0.663996
0.736713
0.723600
0.927448
0.638962
0.748634
0.998974
0.958443
0.666976
0.947714
0.891685
0.804663
1.167655
1.208782
1.242757
1.443624
1.631975
2.377629
9.187460
50.506592
114.271641
252.442956
413.301587
605.011582
839.111805
962.242484
1012.569666
961.358547
786.719918
623.958707
402.476788
263.014436
129.467845
67.000985
29.845834
24.224520
34.599900
48.206449
71.240664
92.561841
120.881796
138.223767
151.690841
151.509643
140.431523
127.600431
104.636550
88.064671
73.303580
64.616799
56.537986
53.726435
51.730871
50.770640
49.286485
49.007535
47.593713
47.196746
45.982599
45.140982
43.239594
42.158961
40.239692
38.024783
34.958720
34.102798
31.631589
31.219721
28.979778
27.923584
25.101900
23.712516
22.341609
20.238757
19.542575
18.212795
16.739964
15.978813
15.323758
14.653802
13.729930
12.902617
12.186766
11.807680
11.306405
10.774732
10.346770
##ZVALUE=295
0.487566
0.435710
0.514984
0.494719
0.437498
0.566840
0.416636
0.503659
0.735521
0.328422
0.682473
0.600815
0.593662
0.509620
0.720620
0.696778
0.748634
0.600815
0.905991
0.957847
0.966787
0.778437
1.092553
1.094937
1.176000
1.177788
1.310706
1.484752
1.879930
3.370643
21.908879
67.295432
147.900581
320.527554
494.391918
733.445883
877.190828
989.523530
981.734991
861.140490
712.288022
492.540598
329.457521
168.582797
93.075633
38.545728
23.675561
25.422573
35.020709
56.425929
76.046586
105.249882
125.729442
147.290826
156.453848
157.085657
148.465633
132.348537
118.236542
98.982453
85.637569
70.625544
63.199997
57.411790
53.704977
51.684976
50.380826
50.044656
48.771501
47.340989
45.885444
42.583942
40.530562
37.283897
35.462976
34.603477
32.020807
30.175447
28.710961
26.537776
25.396943
22.819638
21.803975
20.034909
18.977523
18.115640
16.893744
16.333461
15.234947
14.425516
13.187528
12.570620
11.714697
11.457801
11.017919
9.880662
##ZVALUE=300
0.450611
0.389814
0.438690
0.413656
0.430942
0.416636
0.353456
0.584722
0.485778
0.459552
0.635982
0.609756
0.408888
0.649691
0.563860
0.657439
0.602603
0.730753
0.713468
0.740886
0.752807
0.763535
0.697970
0.783801
0.880957
0.957847
1.048446
1.149774
1.203418
1.315475
1.577735
1.971722
8.394718
33.189654
109.720826
207.939744
404.291749
585.283637
808.899999
924.928784
980.501771
936.508775
775.339007
612.515807
389.877558
247.965455
123.489499
68.134665
34.041405
28.072596
35.352707
45.567751
64.327717
82.294941
108.138919
127.693415
150.683522
160.253644
160.369873
155.559778
138.526559
121.922493
100.113750
85.837841
68.718791
60.984492
55.205822
52.103996
49.397945
47.986507
44.390559
42.594671
40.273666
38.526654
36.303997
34.567714
32.711625
31.070709
28.461814
27.263761
24.447441
23.513436
21.831989
20.483732
18.797517
17.433763
16.655922
15.527606
14.317632
14.304519
12.666583
12.482405
11.574626
11.048913
10.950565
10.402799
##ZVALUE=305
0.342727
0.370741
0.435710
0.468493
0.379682
0.670552
0.500679
0.405908
0.440478
0.495911
0.467896
0.390410
0.589490
0.483990
0.545979
0.545979
0.512600
0.502467
0.418425
0.684857
0.542998
0.776649
0.786781
0.801682
0.806451
0.988841
0.988841
0.946522
1.185536
1.152754
1.160502
1.360774
1.437664
1.567602
2.660751
19.309521
58.631897
161.042809
281.241536
501.855016
677.034855
877.668858
961.779952
956.549644
859.353542
652.669668
493.067503
300.934911
187.671781
93.723536
55.719614
36.211610
35.802722
42.654872
52.820444
69.851875
87.064505
110.144615
127.656460
146.390796
153.425932
154.201984
147.002935
129.096508
112.746954
90.550780
76.091886
61.923862
54.831505
46.846867
43.083429
39.969683
37.430525
35.269856
33.708811
31.453967
29.269457
27.910471
26.126504
24.201870
22.784472
20.811558
19.931793
18.859506
17.414689
16.413927
15.931726
14.566779
13.754964
12.645721
12.453794
11.196733
10.848641
10.313988
9.789467
9.531975
##ZVALUE=310
0.253916
0.427961
0.470877
0.352859
0.306964
0.299811
0.270605
0.372529
0.365973
0.381470
0.431538
0.304580
0.501871
0.475645
0.532866
0.572801
0.554919
0.458956
0.464916
0.525713
0.578761
0.679493
0.608563
0.734925
0.697970
0.737906
0.779629
0.677705
0.798702
0.884533
1.150966
0.970960
1.307726
1.343489
1.429915
1.357794
1.873970
7.307529
27.380586
95.818639
185.490847
370.980501
556.087494
781.186819
909.349918
973.343849
925.534964
773.549676
615.098476
402.621627
267.930627
141.794682
84.145665
45.756698
36.206841
36.714673
42.112470
53.241849
63.592792
82.154870
97.839832
117.795467
128.306746
138.290524
139.227509
128.884912
116.781592
97.512603
82.868934
63.666701
50.944686
40.439963
35.098791
30.075908
28.818846
26.283860
25.032759
22.865534
21.389723
20.240545
19.156933
17.403960
16.632676
15.483499
14.578700
13.665557
13.114810
12.178421
11.780858
11.133552
10.992885
10.194778
9.533763
9.160638
8.922815
8.363724
##ZVALUE=315
0.279546
0.325441
0.482798
0.406504
0.414848
0.468493
0.258684
0.386834
0.339746
0.270605
0.348687
0.557899
0.599623
0.581741
0.429749
0.325441
0.541806
0.271797
0.321865
0.478625
0.536442
0.662804
0.470877
0.481606
0.660419
0.582933
0.706911
0.735521
0.720620
0.823736
0.960827
0.715852
0.861883
0.881553
1.047850
1.252890
1.170635
1.378655
1.519918
3.331900
12.599826
58.448911
127.332807
281.953812
448.227525
694.780946
842.350721
953.974724
959.661007
845.521688
707.198977
492.533445
341.420770
183.641911
106.687546
52.625537
35.839677
31.758547
34.295917
39.401650
45.169592
56.496859
67.701936
85.367560
99.348426
115.094781
121.980906
121.891499
115.252733
99.195838
84.479451
66.022873
52.397847
37.807822
30.349493
23.563504
20.799637
19.225478
17.457604
16.110539
15.309453
13.579726
13.449788
12.434721
11.837482
11.180639
10.652542
9.975433
9.576678
9.270906
8.705854
8.395910
8.019805
7.618666
7.537603
7.497668
##ZVALUE=320
0.410676
0.340939
0.463724
0.597835
0.367761
0.415444
0.428557
0.432730
0.422597
0.396967
0.376701
0.377893
0.224710
0.456572
0.518560
0.432730
0.337958
0.448823
0.720620
0.387430
0.456572
0.460744
0.392795
0.589490
0.489950
0.571609
0.663996
0.665784
0.683665
0.646710
0.665784
0.828505
0.693798
0.812411
0.851750
0.987649
0.872612
1.110435
1.072884
1.264811
1.360774
1.800656
5.026460
31.913519
82.800984
209.869742
345.476866
566.778779
734.632015
901.452899
956.485868
900.903940
790.514946
582.386851
415.366888
229.557753
132.816434
63.155890
36.970973
24.207830
22.424459
23.513436
25.209785
30.770898
38.402677
52.856803
64.815879
82.983971
93.966722
103.351474
103.157759
96.996427
86.402893
67.848563
54.450631
37.671924
28.206706
20.087957
15.127659
12.026429
10.874867
10.010600
9.419918
8.691549
8.361936
7.884502
7.912517
7.400513
7.178783
6.794930
6.961823
6.674528
6.544590
6.340742
6.352663
6.386638
##ZVALUE=325
0.266433
0.272989
0.300407
0.269413
0.354648
0.166893
0.364780
0.270605
0.424981
0.317693
0.335574
0.395775
0.391603
0.421405
0.491738
0.244975
0.449419
0.371933
0.420809
0.411868
0.535846
0.530481
0.510812
0.574589
0.524521
0.616908
0.428557
0.583529
0.690818
0.674725
0.649691
0.699759
0.526905
0.760555
0.722408
0.817776
0.751615
0.819564
0.830889
1.045465
1.110435
1.176000
1.337528
1.483560
2.612472
18.564463
52.303672
143.767595
255.823731
471.780896
642.675757
842.537880
925.997496
920.747519
829.600692
632.197857
464.719534
275.763869
163.796544
73.487759
37.205815
16.345978
12.816787
11.635423
12.137890
14.842749
19.050837
28.509498
38.735867
55.648685
67.843795
81.972480
87.885857
88.968873
83.214641
69.462657
57.541728
41.868687
30.758977
19.477606
13.166666
8.617640
7.132888
5.848408
5.328655
5.128980
5.112886
4.797578
5.061626
5.077720
5.145669
5.116463
5.399585
5.150437
5.353689
4.928708
##ZVALUE=330
0.276566
0.241995
0.347495
0.352859
0.415444
0.422597
0.383854
0.339746
0.396967
0.313520
0.276566
0.270605
0.392795
0.305772
0.311732
0.284910
0.352859
0.155568
0.217557
0.382662
0.602603
0.296831
0.552535
0.414848
0.439882
0.396967
0.489950
0.318885
0.572801
0.313520
0.549555
0.463724
0.485778
0.548959
0.651479
0.587702
0.556707
0.630617
0.823736
0.634789
0.870824
0.904799
0.956655
1.070499
1.143813
1.401901
1.639724
7.228851
26.018620
93.426704
183.744431
364.373922
532.445908
745.453835
863.322616
906.098485
848.847628
681.203008
529.523492
336.440802
211.352706
95.918775
47.691464
17.748475
9.240508
6.631613
6.504655
7.373691
9.124875
15.268922
22.113919
33.945441
46.037436
61.324835
72.156787
78.592896
78.734756
73.941946
64.006448
49.775839
37.620664
24.571419
17.783642
11.748672
7.956624
5.774498
4.975796
4.432797
4.175901
4.206896
4.380941
4.251599
4.418492
4.438758
4.551411
4.556775
##ZVALUE=335
0.144839
0.230670
0.263453
0.303984
0.153780
0.252724
0.246763
0.207424
0.357628
0.259876
0.182986
0.307560
0.238419
0.275970
0.258684
0.156760
0.249743
0.275970
0.328422
0.279546
0.316501
0.312924
0.276566
0.312924
0.284910
0.357628
0.347495
0.392795
0.436902
0.393987
0.413656
0.418425
0.372529
0.387430
0.523925
0.488758
0.432730
0.509620
0.637770
0.633597
0.555515
0.655651
0.669956
0.803471
0.859499
0.864863
0.854731
1.136661
1.341701
2.694726
15.735626
47.912598
141.493678
252.010822
457.073450
630.354881
811.418891
872.662663
854.161978
766.455531
576.637983
424.821973
247.263908
143.073797
59.140921
27.004480
10.015965
6.321669
5.367994
5.481839
6.357431
8.152723
13.316870
19.420981
31.390786
41.788816
56.431890
65.849423
74.393749
75.117946
68.535805
59.740543
48.362613
38.009882
25.711656
18.555522
11.272430
8.130670
5.551577
4.883409
4.510880
4.228950
4.446507
4.388690
4.400611
4.736781
##ZVALUE=340
0.220537
0.360608
0.373721
0.246763
0.216961
0.232458
0.281930
0.190735
0.052452
0.354648
0.268817
0.323653
0.371933
0.164509
0.300407
0.363588
0.423789
0.522733
0.370741
0.386834
0.374913
0.274777
0.286698
0.453591
0.247955
0.438690
0.396967
0.440478
0.385642
0.302792
0.571609
0.527501
0.498891
0.544786
0.443459
0.467896
0.425577
0.455976
0.449419
0.412464
0.620484
0.627637
0.627637
0.676513
0.837445
0.819564
0.841618
1.030564
0.890493
1.161695
1.274943
1.948476
5.514622
33.153892
86.618662
215.821862
361.378789
574.544668
711.122751
823.845863
843.979716
763.009787
646.405816
458.647609
312.489867
158.200860
85.065961
33.481717
13.979673
6.298423
5.595684
4.938841
4.948974
6.041527
8.070469
12.574792
19.052625
30.214787
39.881468
54.584742
62.409639
69.492459
68.844557
65.080523
58.222413
46.533942
36.664605
25.179982
18.625855
11.876822
8.521676
5.980730
5.091429
4.664660
4.674792
4.319549
##ZVALUE=345
0.302792
0.280738
0.230670
0.184774
0.377893
0.245571
0.290871
0.244975
0.279546
0.301600
0.298619
0.258684
0.285506
0.344515
0.477433
0.356436
0.370741
0.115633
0.360608
0.361800
0.238419
0.437498
0.240803
0.212789
0.259876
0.404716
0.358820
0.344515
0.317693
0.376701
0.401735
0.315905
0.459552
0.499487
0.388622
0.667572
0.332594
0.607967
0.573993
0.502467
0.463724
0.567436
0.685453
0.626445
0.665784
0.766516
0.755787
0.767708
0.777841
0.822544
0.919700
0.938773
1.176000
1.376867
3.011823
12.970567
61.780810
130.859613
277.373791
424.285531
629.707575
750.905871
827.578902
804.578662
684.902668
551.984906
360.482931
231.301785
102.857947
49.492717
16.517639
8.244514
5.303621
4.822612
4.479885
4.620552
5.082488
6.717443
11.458993
16.647577
26.879907
36.005974
47.518611
55.712461
62.178969
64.529777
60.583949
54.777861
44.449568
35.905838
25.410652
18.898845
12.146831
8.582473
6.288886
5.367994
##ZVALUE=350
0.347495
0.286698
0.242591
0.246763
0.230670
0.327826
0.281930
0.179410
0.256896
0.243783
0.234842
0.334978
0.285506
0.372529
0.159740
0.205636
0.344515
0.249743
0.434518
0.427961
0.406504
0.433922
0.509620
0.365973
0.373721
0.473857
0.322461
0.327826
0.417829
0.395775
0.464916
0.356436
0.395775
0.423789
0.463724
0.384450
0.470877
0.509620
0.499487
0.530481
0.392795
0.403523
0.508428
0.623465
0.519753
0.470877
0.540614
0.570416
0.578761
0.739694
0.747442
0.890493
0.800490
0.924468
1.068711
1.299977
1.608729
7.441640
27.924776
96.657872
186.606646
369.889736
521.438718
698.297024
788.517594
804.840922
738.968849
584.301949
437.287688
252.807736
151.965618
68.793893
30.613542
9.492636
5.840659
4.782677
4.269481
4.062653
3.992915
4.891753
6.290674
10.734797
15.314817
23.042560
31.456947
42.956471
50.564408
56.850910
59.094429
57.040453
51.992536
42.556524
34.746528
24.727583
17.793775
11.984706
##ZVALUE=355
0.201464
0.171661
0.291467
0.259876
0.218749
0.213981
0.295639
0.433922
0.322461
0.167489
0.303984
0.279546
0.177622
0.214577
0.111461
0.278950
0.457764
0.259876
0.294447
0.316501
0.246763
0.452995
0.470877
0.459552
0.373721
0.255704
0.318885
0.295639
0.465512
0.321865
0.393987
0.446439
0.557899
0.530481
0.526905
0.385642
0.496507
0.463724
0.383854
0.482798
0.461936
0.430942
0.512600
0.551939
0.382662
0.615716
0.555515
0.758767
0.630617
0.601411
0.657439
0.635982
0.747442
0.911951
0.833869
1.081824
0.996590
1.083612
1.391768
3.566742
13.446808
60.203671
129.561424
272.435546
420.331955
620.862842
729.658008
785.790682
755.162835
617.199540
479.130745
298.565626
181.778669
77.760816
37.405491
12.975931
6.424785
4.592538
4.106760
3.907681
3.784895
4.033446
4.468560
5.776882
7.997751
13.461709
19.030571
28.749704
35.973787
44.942498
50.257444
53.761601
53.434968
47.417879
41.683912
32.430887
##ZVALUE=360
0.244975
0.253916
0.188947
0.312924
0.180602
0.327826
0.374913
0.310540
0.316501
0.383854
0.238419
0.384450
0.343919
0.257492
0.387430
0.446439
0.289679
0.285506
0.267625
0.274777
0.288486
0.390410
0.346899
0.267625
0.217557
0.251532
0.402927
0.459552
0.454783
0.324845
0.510812
0.424981
0.453591
0.570416
0.290871
0.389814
0.449419
0.492930
0.523925
0.367761
0.478625
0.504851
0.487566
0.490546
0.378489
0.402927
0.582933
0.442863
0.695586
0.579953
0.553727
0.675917
0.799894
0.827909
0.767708
0.831485
0.967979
0.927448
0.952482
1.333952
1.298785
1.940727
5.808473
30.428767
79.739690
202.381015
330.106616
516.938567
653.117895
754.859447
760.143995
671.263933
548.459888
358.789563
233.880877
110.194683
55.814981
19.510984
8.364916
4.444718
4.114509
3.726482
3.527999
3.368855
3.426671
3.872514
4.802942
7.079840
10.206699
16.165972
22.551417
32.054782
38.491488
45.322776
48.408508
48.208833
##ZVALUE=365
0.218749
0.273585
0.347495
0.251532
0.267625
0.297427
0.179410
0.200868
0.533462
0.297427
0.345707
0.142455
0.199676
0.284910
0.289679
0.340939
0.326633
0.313520
0.226498
0.311732
0.171661
0.252724
0.378489
0.400543
0.416636
0.445843
0.390410
0.358820
0.294447
0.386834
0.255704
0.217557
0.401735
0.310540
0.392795
0.462532
0.286698
0.416636
0.477433
0.670552
0.526905
0.525713
0.341535
0.361800
0.481606
0.481606
0.449419
0.528693
0.494719
0.466704
0.366569
0.547767
0.660419
0.586510
0.724792
0.586510
0.700951
0.792742
0.907779
0.875592
1.000762
1.094937
1.164675
1.437664
2.463460
15.504956
46.474934
132.315755
244.877934
434.229970
570.475459
697.668791
736.569762
687.223673
585.361719
410.569906
282.078981
150.324702
79.064965
27.443767
11.479855
4.760623
4.136562
3.645420
3.557801
3.435612
3.142953
3.229976
3.396869
4.247427
5.678535
9.181499
13.123751
20.388961
26.084781
34.333467
##ZVALUE=370
0.328422
0.452995
0.259876
0.129938
0.329614
0.369549
0.447631
0.374913
0.297427
0.297427
0.391603
0.431538
0.420809
0.284910
0.381470
0.358820
0.393987
0.286698
0.279546
0.314713
0.395775
0.404716
0.518560
0.310540
0.447631
0.544786
0.332594
0.385642
0.403523
0.350475
0.340939
0.443459
0.415444
0.561476
0.458956
0.386834
0.384450
0.506639
0.471473
0.539422
0.468493
0.423789
0.434518
0.474453
0.465512
0.378489
0.543594
0.604987
0.605583
0.671744
0.481606
0.591874
0.519753
0.540614
0.643730
0.559688
0.662804
0.612736
0.825524
0.863671
0.888705
0.918508
0.893474
0.939965
1.090765
1.437664
1.812577
7.508993
27.350783
99.385977
187.207460
347.017646
493.631959
657.767653
718.459487
698.948503
620.427728
463.973880
331.489444
179.061890
99.427700
37.747622
17.350912
6.724596
4.191995
3.435612
3.414750
3.231764
3.249645
3.212690
3.107786
3.237724
3.853440
5.409718
7.414818
12.009740
##ZVALUE=375
0.275970
0.245571
0.175834
0.028610
0.226498
0.339746
0.125766
0.267625
0.267625
0.165701
0.419617
0.286698
0.251532
0.200868
0.203848
0.279546
0.363588
0.447631
0.256896
0.205636
0.405908
0.138879
0.390410
0.337958
0.271797
0.314713
0.246763
0.402927
0.186563
0.269413
0.235438
0.392795
0.297427
0.397563
0.343919
0.380874
0.289679
0.278950
0.327826
0.285506
0.295639
0.280738
0.401735
0.447631
0.460744
0.254512
0.215769
0.298619
0.391603
0.280738
0.443459
0.430942
0.395775
0.471473
0.543594
0.395775
0.388622
0.768900
0.431538
0.635982
0.670552
0.642538
0.653863
0.704527
0.860691
0.850558
0.925660
1.081824
1.388788
3.066659
18.935800
53.295493
145.257711
256.214738
432.415009
561.454892
681.989789
709.686875
643.555522
536.678433
367.542505
250.741839
136.390924
75.477958
28.411746
11.977553
4.677773
3.686547
3.197789
3.232956
3.076792
3.101826
2.929568
2.732873
3.076792
3.200769
##ZVALUE=380
0.176430
0.182986
0.162721
0.218749
-0.042915
0.274777
0.282526
0.188947
0.297427
0.285506
0.113845
0.248551
0.302792
0.151992
0.317693
0.093579
0.165701
0.300407
0.097752
0.163913
0.236630
0.325441
0.170469
0.213981
0.094771
0.216961
0.187755
0.273585
0.348687
0.293851
0.328422
0.414848
0.252724
0.438690
0.378489
0.448823
0.385642
0.232458
0.511408
0.209808
0.363588
0.249743
0.365973
0.331998
0.481606
0.340939
0.429749
0.369549
0.311732
0.336766
0.333786
0.406504
0.449419
0.475645
0.506639
0.496507
0.471473
0.404716
0.373721
0.630617
0.495911
0.614524
0.475645
0.615716
0.715852
0.787973
0.580549
0.816584
1.017451
1.077652
1.421571
2.035499
7.910728
43.324828
101.887584
224.541426
356.703997
543.463826
648.123026
707.983971
677.603483
557.681918
444.147587
299.496651
195.539594
93.231797
46.486855
16.125441
7.224679
3.594756
3.302693
3.269911
3.135800
2.939701
2.834797
2.839565
##ZVALUE=385
0.232458
0.203848
0.308752
0.218749
0.224710
0.295639
0.269413
0.283718
0.247955
0.143647
0.275970
0.237823
0.127554
0.158548
0.266433
0.106692
0.326633
0.120997
0.270605
0.115633
0.090599
0.231862
0.325441
0.382662
0.311732
0.286698
0.162721
0.293851
0.372529
0.276566
0.348687
0.410676
0.479817
0.305772
0.303984
0.227690
0.415444
0.304580
0.231862
0.374913
0.357628
0.493526
0.577569
0.318885
0.293851
0.532866
0.421405
0.327826
0.451803
0.433922
0.472665
0.355840
0.428557
0.384450
0.224710
0.358820
0.532866
0.279546
0.435710
0.537634
0.463724
0.443459
0.608563
0.510812
0.617504
0.599623
0.662804
0.810623
0.919700
0.955462
0.954866
1.136661
1.186728
1.316667
3.242493
20.491481
60.264468
160.662532
277.976990
464.787483
591.215491
682.619810
688.869953
619.699955
523.279905
367.912650
252.728462
133.424997
74.707866
29.793978
12.030602
4.296899
3.284812
3.139973
3.024936
2.768636
##ZVALUE=390
0.233650
0.182986
0.030994
0.116825
0.221729
0.382662
0.207424
0.072718
0.137687
0.119805
0.244975
0.353456
0.211596
0.150800
0.274777
0.214577
0.182986
0.287890
0.325441
0.078678
0.050664
0.098944
0.324845
0.342727
0.272989
0.337958
0.375509
0.274777
0.274777
0.474453
0.385642
0.350475
0.152588
0.274777
0.262856
0.415444
0.438690
0.487566
0.381470
0.390410
0.396967
0.309944
0.464916
0.421405
0.427961
0.447631
0.374913
0.418425
0.376701
0.406504
0.507832
0.316501
0.431538
0.332594
0.413656
0.597835
0.435710
0.343919
0.457764
0.392795
0.524521
0.475645
0.419617
0.452995
0.551939
0.482798
0.597835
0.522733
0.746846
0.863671
0.801682
0.965595
0.982881
1.056790
0.956655
1.203418
1.736879
9.625554
35.392642
120.394826
224.485993
404.422879
528.493524
647.501945
691.727996
670.296550
591.492653
446.021557
330.069661
194.231868
111.315846
44.026971
19.567609
6.147623
3.594756
3.144741
##ZVALUE=395
0.184774
0.070930
0.164509
0.031590
0.165701
0.031590
0.096560
0.158548
0.044703
0.203848
0.118613
0.117421
0.065565
0.134706
-0.018477
0.054836
-0.069737
0.063777
-0.012517
0.152588
0.000596
0.122786
0.059605
0.171661
0.156760
0.169873
0.233650
0.174642
0.278950
-0.014901
0.096560
0.155568
0.214577
0.251532
0.297427
0.202656
0.424981
0.339746
0.355840
0.327826
0.356436
0.257492
0.385642
0.334978
0.343919
0.399947
0.359416
0.320673
0.272989
0.287890
0.433922
0.414848
0.176430
0.218749
0.388622
0.185966
0.347495
0.489950
0.410676
0.472665
0.387430
0.472665
0.462532
0.548959
0.435710
0.430942
0.440478
0.482798
0.604987
0.840425
0.633597
0.732541
0.793934
0.856519
0.714660
0.797510
0.913739
1.043677
1.177788
5.437732
21.772981
84.865689
165.925622
310.866833
441.818833
608.939528
689.864755
710.088611
660.630465
532.542467
403.046012
240.821838
146.484971
62.327981
29.096603
9.673834
##ZVALUE=400
0.345707
0.363588
0.271797
0.099540
0.183582
0.250936
0.208616
0.365973
0.291467
0.143647
0.028610
0.060797
0.067949
0.110865
0.223517
0.058413
0.153780
0.217557
0.346899
0.215769
0.220537
0.145435
0.177622
0.280738
0.201464
0.226498
0.154972
0.166893
0.257492
0.328422
0.418425
0.327826
0.346899
0.400543
0.572801
0.344515
0.435710
0.469685
0.514984
0.523925
0.412464
0.315905
0.349879
0.399947
0.420809
0.583529
0.637770
0.315905
0.333786
0.512600
0.426769
0.465512
0.364780
0.508428
0.410676
0.544786
0.441670
0.452995
0.531673
0.548959
0.438690
0.498891
0.637770
0.467896
0.550747
0.609756
0.733733
0.738502
0.601411
0.696778
0.747442
0.787973
0.805855
0.692606
1.015663
0.912547
0.779629
1.031756
1.061559
1.086593
1.424551
3.978610
14.980435
55.369735
118.662715
256.235003
386.348963
553.309917
645.869970
694.323778
667.373538
557.376742
442.243814
280.786753
180.939436
89.487433
##END
