##TITLE=FDDW01
##FORMAT=SPECTACLE-ASCII V-1.2
##DATA TYPE=ULTRAVIOLET SPECTRUM
##SECOND TYPE=ULTRAVIOLET SPECTRUM
##DATE=02/28/18
##TIME=14:47:41
##SPECTROMETER/DATA SYSTEM=SPECTACLE
##XUNITS=NM EM
##YUNITS=ENERGY
##YFACTOR=1
##FIRSTX=220
##LASTX=410
##NPOINTS=96
##3DDATA=Equidistant
##ZUNITS=NM EX
##FIRSTZ=210
##LASTZ=400
##ZPOINTS=39
##XYDATA=(Y..Y)
##ZVALUE=210
18.996000
18.729568
14.772415
11.956692
11.336803
11.006594
10.280609
7.733703
7.796884
4.952550
3.831983
2.948642
2.361536
2.587438
2.097487
2.212524
2.673864
2.872944
2.365708
2.770424
3.282428
3.252625
3.395677
3.853440
3.704429
6.025434
6.522536
7.989407
8.448958
9.770989
12.426972
12.766719
12.278557
14.471412
17.187595
16.291738
14.833808
16.619563
14.978647
16.540885
15.752912
16.203523
15.501976
14.418960
12.685657
13.240576
13.896823
13.523698
12.949705
13.088584
12.538433
12.834668
14.391541
13.808608
13.490915
12.340546
12.776852
12.633801
11.726618
13.930798
13.645887
12.968779
11.956692
13.628602
12.939572
11.453629
11.875629
13.933778
13.295412
14.163852
14.800429
18.797517
19.959807
20.985603
24.545789
26.743412
27.900934
26.362538
25.025606
24.033785
21.666884
18.917918
16.774535
15.985966
13.431907
10.224581
10.041595
10.139942
9.486675
11.233687
12.576580
18.264651
25.193691
32.263994
42.035580
48.722625
##ZVALUE=215
53.233504
52.899718
41.798949
31.659603
24.198890
21.707416
17.560720
16.423464
14.186502
14.453530
11.837482
10.209680
7.411838
5.009770
4.040599
3.031492
3.345609
2.955794
2.941489
2.815723
3.668666
3.937483
3.889799
4.479885
3.999472
5.050898
7.057786
8.119941
10.074973
10.806918
13.950467
13.276935
16.563535
18.809438
17.304420
18.170476
18.647909
18.974543
17.535686
19.179583
19.827485
18.182993
17.125607
17.360449
17.581582
14.901757
14.273524
14.466643
13.840795
14.284849
14.671683
14.921427
15.536547
14.441609
15.496612
14.861822
15.548468
14.842749
15.223622
15.813708
15.489459
14.824867
13.697743
14.112592
13.970733
14.875531
13.757944
13.143420
13.509989
15.351772
16.421676
17.808676
19.534826
19.880533
20.234585
22.736788
23.966432
21.320581
20.554662
20.314455
17.745495
18.494725
16.526580
14.269948
11.814833
10.052919
10.197759
9.536743
8.967519
8.039474
8.022785
6.423593
7.613897
9.021759
11.834502
15.378594
##ZVALUE=220
113.327503
115.880966
112.906694
96.789002
80.458522
59.132576
47.275424
32.501817
29.944777
26.435852
26.086569
25.611520
21.457672
18.774867
13.855696
11.235476
7.821918
4.902482
3.656745
3.405809
4.036427
3.333688
3.420711
4.483461
5.477667
5.900860
6.658435
9.988546
10.838509
13.364553
16.543865
16.246438
20.790696
20.782948
23.736954
24.023652
23.330450
23.727417
22.605658
20.213723
21.674633
21.988750
20.503998
19.579530
18.639565
19.072890
17.666817
17.865896
17.030835
16.443729
17.646551
16.429424
16.841888
16.243458
16.024709
15.775561
17.239451
15.998483
17.894506
16.583800
17.285943
16.567707
16.320944
16.852617
15.472770
16.140938
16.427636
16.433597
17.360449
16.928911
19.596815
19.283891
20.943880
21.608472
23.534894
23.866892
23.280978
24.755001
27.350783
25.118589
22.853613
22.297502
19.535422
18.177629
15.618801
14.109612
11.130571
9.909868
9.203553
8.197427
7.654428
7.960796
7.579923
9.385943
8.264780
6.873608
##ZVALUE=225
147.777796
151.859522
178.753734
192.567706
190.476775
173.356533
146.930814
106.812716
75.779557
58.424473
45.121908
38.570762
42.919517
43.823719
39.055943
34.454465
28.291941
20.510554
16.486645
9.907484
6.989837
5.949736
4.889965
5.257726
5.388856
6.985664
7.616878
9.911656
10.867715
15.094876
16.752481
17.940998
20.367503
22.916794
23.510456
22.625923
24.119616
25.388598
25.423765
24.129748
24.658442
22.400618
21.662712
21.742582
21.539927
18.974543
20.239949
18.526912
19.058585
20.643473
19.625425
21.627545
20.788908
19.638538
20.480752
21.512508
21.240711
22.554994
23.578405
22.697449
22.018552
21.828413
21.706820
22.105575
22.646785
21.434426
21.795630
20.787716
22.960901
21.110773
23.288727
24.713874
25.244951
27.512908
27.915835
29.234886
27.690530
29.696822
29.837489
26.267767
24.633408
21.910667
18.342733
15.831590
14.441609
12.543797
13.936758
11.848807
10.391474
10.734797
8.934736
10.974407
9.873509
9.955764
9.533763
9.362698
##ZVALUE=230
124.740005
133.639574
200.664997
291.595459
348.953009
388.974547
390.301943
345.258713
290.078521
224.817991
142.832994
97.907782
68.169832
60.009956
64.176917
64.941645
63.744783
61.563849
51.818490
42.436719
31.031966
18.876791
12.818575
10.303855
6.787777
6.299615
7.564425
9.397864
9.445548
10.842681
12.819767
13.342500
14.464855
15.144944
18.752813
18.772483
19.005537
18.383861
19.673705
19.112825
18.509626
21.222830
19.055605
17.861724
17.754436
19.227862
17.585754
18.422604
18.230677
18.840432
19.353628
22.946596
23.058653
26.086569
25.882721
24.438500
25.683641
26.682615
24.612546
28.819442
27.657747
28.587580
27.388930
27.516484
27.010441
26.149750
28.202534
28.526783
28.289557
28.638840
28.926730
30.824542
31.820536
33.109784
35.568476
34.886599
33.125877
34.130812
33.737421
28.519630
28.653741
23.931861
21.289587
17.590523
16.524792
16.069412
14.492869
13.590455
13.287663
13.258457
11.816621
10.837913
12.240410
11.399984
11.036992
12.432933
##ZVALUE=235
27.735829
33.314824
69.344640
163.462758
261.590481
417.390466
528.817773
655.323863
675.038695
655.648708
541.882515
425.951481
275.897980
188.630819
120.700002
96.039772
86.831450
96.341968
92.498660
96.987486
90.290904
73.757768
60.741901
41.241646
27.306676
18.512607
14.331937
10.365844
10.635853
11.016726
11.079907
11.185408
13.193488
14.307499
13.887882
14.552474
13.940930
14.075637
15.894771
15.865564
15.957952
17.903447
15.856624
16.627908
17.592907
16.635656
16.512871
17.011762
20.140409
21.683574
22.654533
25.411844
27.708411
29.428601
28.912425
30.212998
33.955574
35.671592
35.333633
34.989715
38.606524
35.737753
36.600828
35.515428
35.040975
35.709739
32.793880
34.980774
32.962561
35.450459
35.877824
35.096407
38.354993
36.458969
37.878752
38.358569
36.213994
35.881996
35.227537
32.198429
31.400919
28.560758
24.986863
22.283792
21.692514
17.210841
18.297434
15.986562
15.980601
15.612841
14.179945
13.731718
13.853908
12.897849
13.556480
13.403893
##ZVALUE=240
1.959801
2.309680
10.295510
27.742982
66.122413
161.898732
273.254514
472.531915
632.351637
804.463625
906.495452
881.788731
806.705952
631.846786
480.464697
302.116871
199.705958
138.375759
109.114647
110.377669
111.480951
117.564797
116.470456
105.548501
81.977844
67.203641
48.425794
35.010576
21.578670
15.221834
11.888742
10.864735
11.162758
12.018681
12.348890
12.505651
12.819767
13.150573
13.395548
14.151931
14.229417
14.400482
15.006661
14.797449
15.274882
15.747547
17.096996
17.359853
19.599795
21.642447
25.019646
28.658509
28.022528
29.928684
32.508969
34.426451
35.631657
40.356517
39.333701
41.431785
40.072799
43.295622
39.750934
40.440559
39.319992
38.215518
39.593577
39.457679
39.910674
36.929846
38.841963
36.686659
37.951469
40.156841
41.197538
37.996769
38.542747
34.759641
31.903982
30.653477
29.231906
26.492476
25.428534
22.892952
21.342635
19.336939
18.838644
16.853809
17.191768
17.468929
14.745593
14.519691
14.103651
13.620853
14.941692
13.413429
##ZVALUE=245
1.341701
1.306534
1.558661
1.978874
6.404519
18.943548
66.001415
139.924884
305.247903
460.888743
736.268759
934.868455
1015.710831
1015.710831
1015.710831
864.728689
671.434999
414.223671
273.481607
163.428783
120.376945
105.045438
115.459561
130.298734
133.001804
127.779841
115.017891
97.098947
73.249936
54.639578
40.496588
26.318431
19.591451
14.420748
12.869835
13.967752
13.830662
14.737844
14.129877
13.779998
14.580488
14.945865
14.299750
14.482737
14.541745
14.615655
17.095804
16.718507
18.661618
20.792484
23.778677
27.063489
27.821660
28.198957
31.770468
32.906532
33.993721
35.087466
36.483407
38.149953
39.792657
40.113926
36.671758
37.793517
37.102699
36.442876
37.497878
36.484599
35.721660
37.757754
37.851930
36.372542
35.335422
36.995411
35.180449
35.978556
32.216907
30.234456
29.839873
26.237965
25.662780
23.388863
22.638440
21.509528
18.845797
18.269420
16.347766
15.571713
15.106797
15.263557
14.520884
13.729930
12.880564
13.140440
13.072491
11.996627
##ZVALUE=250
1.451969
1.306534
1.520514
1.662970
1.120567
1.707673
3.390908
14.436841
68.312883
146.674514
323.413014
493.330956
680.232644
923.207998
1015.710831
1015.710831
1015.710831
995.260477
834.391713
571.123958
395.249724
252.948999
136.579871
104.553699
105.853677
122.527480
135.102868
140.432715
133.355856
128.248930
106.806755
79.279542
60.271621
39.913654
29.006600
20.569563
16.681552
15.496612
14.396906
14.993548
15.879869
14.550686
14.848709
13.923645
14.591813
14.651418
15.336871
16.230941
16.823411
20.103455
21.528602
20.577908
22.434592
24.556518
25.832653
27.524829
27.498603
29.085875
30.238628
30.576587
32.175779
32.939911
30.678511
30.921698
29.969811
29.043555
28.801560
28.775930
27.995706
29.239655
29.058456
28.444529
26.612878
28.297901
27.597547
25.663972
25.384426
23.932457
22.834539
21.098852
19.583702
18.729568
17.233491
17.404556
14.531612
14.407635
13.324618
11.973977
12.904406
12.121797
11.688471
11.836886
10.719895
9.551644
10.678768
10.124445
##ZVALUE=255
1.032948
1.123548
1.015663
1.038909
1.079440
1.184940
1.270771
1.442432
1.724958
8.092523
30.793548
104.490519
202.072859
384.403467
546.475649
735.734701
866.015553
932.992697
918.309689
786.849856
651.665926
502.046943
301.514864
192.066431
109.964609
88.041425
87.472796
105.070472
126.733780
140.553713
145.409703
142.278671
130.487680
110.075474
82.831979
62.631965
42.144656
30.602813
22.372603
18.110871
17.595887
16.955733
17.184615
16.528964
17.112494
15.619993
16.462803
16.178489
17.600656
19.018650
18.700957
19.348860
20.971894
21.763444
21.010637
22.077560
22.905469
23.201704
23.960471
24.841428
24.063587
24.134517
23.753643
24.028420
23.034811
22.904873
22.617579
22.178888
21.282434
21.503568
21.479726
21.253824
21.868944
19.205809
19.861460
18.713474
17.321706
18.634796
16.240478
15.499592
14.245510
13.446808
12.347698
11.825562
11.382699
10.654926
10.999441
9.778738
9.233952
8.717775
8.931756
9.238720
7.698536
8.155704
8.096695
7.426739
##ZVALUE=260
0.928640
0.926852
0.791550
0.762939
1.160502
1.162887
0.900626
1.059771
1.013875
1.273751
1.652837
2.650619
9.203553
42.727590
88.894963
228.588581
376.601815
611.200929
785.580873
985.777974
1015.699506
1008.683443
855.819583
708.248615
483.313799
346.350670
216.354728
145.919919
98.987818
89.644790
100.288987
126.273632
148.842931
157.535672
153.027773
134.887695
117.229819
90.529919
68.851709
46.769977
35.389662
25.451779
20.659566
19.452572
18.484592
17.652512
17.522573
18.381476
18.326640
18.837452
19.949675
20.467639
20.923615
20.762682
21.733642
22.035837
22.166967
22.027493
23.722649
24.005771
23.732781
23.996830
23.461580
21.821856
22.279620
21.981597
20.849705
20.740628
21.170974
20.309687
19.970536
20.296574
20.329952
19.290447
18.225908
17.684698
16.757846
15.845895
15.368462
13.399720
13.167858
12.119412
11.273623
10.378957
10.794997
10.293722
9.990931
8.962750
8.654594
8.550882
8.806586
8.214712
8.067489
7.998943
7.771850
8.434653
##ZVALUE=265
0.849962
0.858903
0.819564
0.878572
0.887513
1.118779
1.074672
1.060963
1.439452
1.030564
1.332760
1.500845
1.479983
2.305508
5.200505
33.133626
86.523890
202.504992
343.167782
588.808656
770.937800
920.721889
1015.710831
1015.710831
1003.258824
880.419612
677.540898
488.137603
282.458663
183.754563
107.136965
80.542564
86.931586
115.978718
136.595964
156.745911
160.021782
156.236887
139.456987
118.433833
97.221732
67.820549
51.027536
34.632683
28.194785
23.122430
20.444989
20.560622
20.881891
21.411777
21.510720
21.770597
23.007989
23.610592
24.205446
24.449825
25.257468
26.324987
25.332570
25.822520
25.739670
25.656819
24.664998
25.092959
23.353696
24.279952
22.630692
23.017526
21.860600
21.778941
21.032691
20.599961
19.954443
19.242764
18.910766
17.361641
16.874671
16.514659
15.396476
13.604760
13.133883
13.051629
11.581779
11.236668
10.701418
10.528564
9.210706
9.667873
9.007454
8.506775
8.349419
8.548498
8.431673
7.568598
7.213950
7.483959
##ZVALUE=270
0.506639
0.585914
0.584722
0.791550
0.840425
0.725985
0.658631
0.791550
0.907779
0.930429
0.961423
1.065731
1.218915
1.202822
1.357794
1.339912
2.374649
7.790923
48.758984
113.238692
251.178741
393.240452
603.204966
733.270645
849.750638
894.465446
872.859955
809.939504
665.730834
534.717441
349.108577
231.312513
124.713778
82.984567
74.942708
90.695620
119.827986
140.237808
157.348514
162.225962
156.566501
145.810843
118.623972
97.598433
69.313645
51.687956
36.461949
29.524565
24.230480
23.571849
23.288727
25.196671
25.634766
25.415421
26.516914
26.679635
27.409792
28.668642
29.620528
29.392838
28.863549
29.234886
27.886629
27.913451
27.321577
26.882887
26.425719
26.294589
24.896860
24.613738
23.679733
23.157597
22.050738
20.885468
19.952655
19.414425
17.651916
16.869903
16.090870
15.101433
14.809966
13.464689
12.610555
12.020469
11.116862
10.513663
10.069609
9.780526
9.257793
9.219646
8.516908
8.375645
8.461475
8.295774
7.811785
7.746816
##ZVALUE=275
0.709891
0.787973
0.756979
0.612736
0.743866
0.783801
0.636578
0.825524
0.851750
0.694990
0.701547
0.801682
0.754595
0.753999
1.119971
1.164675
1.360774
1.482964
1.511574
4.588962
16.541481
46.324730
133.656859
251.026750
451.042652
604.412556
793.790817
917.757750
991.630554
968.368649
843.921900
693.523884
504.505634
280.911922
168.759823
82.882643
58.494806
67.239404
86.486936
116.679668
136.696696
152.302980
157.929659
150.182843
139.114857
110.260844
92.467666
67.821741
52.230954
38.203001
32.714605
27.752519
27.356744
28.565526
28.708577
28.503537
30.096769
30.434728
32.004714
31.697750
33.238530
32.636523
32.001734
31.329989
30.301809
29.680729
29.043555
29.058456
27.928948
27.213693
26.688576
25.624633
23.822784
22.780895
22.237897
21.108985
20.430684
18.107891
17.871857
16.403794
15.118718
14.369488
13.599992
12.660623
12.543797
11.856556
11.412501
10.707974
10.145903
9.556413
9.362698
8.901954
8.779764
8.711815
8.573532
8.194447
##ZVALUE=280
0.424981
0.351667
0.450611
0.407696
0.611544
0.505447
0.379682
0.398755
0.623465
0.761747
0.442863
0.563860
0.713468
0.801682
0.706911
0.780821
0.744462
0.934601
0.929832
0.981688
0.951886
1.202822
8.751750
30.561686
100.722909
194.363594
373.570919
541.618466
785.278678
932.157636
1015.498638
1014.268994
934.653878
707.217455
518.798828
293.311477
173.785686
78.642964
49.273968
46.127439
59.616566
84.575415
105.511546
130.169988
143.466592
148.202777
146.088004
129.061937
113.904476
88.763833
71.931481
53.917766
44.601560
36.351681
33.415556
31.754971
32.285452
33.639669
35.089850
36.953688
37.235618
37.025809
36.104918
35.669804
36.480427
33.493638
34.097433
33.203959
32.101870
31.566620
30.369759
28.957725
28.182864
26.484728
24.898648
22.914410
21.813512
21.613836
19.238591
18.157959
17.935634
16.347766
15.163422
14.247894
13.897419
12.911558
12.331605
11.520982
11.344552
10.680556
9.694695
10.002851
9.413958
8.861423
8.691549
8.792877
##ZVALUE=285
0.449419
0.482798
0.152588
0.453591
0.544786
0.431538
0.490546
0.611544
0.680685
0.594854
0.522733
0.687838
0.561476
0.678897
0.539422
0.632405
0.673532
0.852942
0.906587
0.999570
0.926852
1.127720
1.145601
1.607537
4.024506
14.702678
51.535964
115.179420
266.943574
416.093469
579.900742
816.620588
948.296785
1000.114679
944.986939
771.476626
604.446530
375.488997
234.581828
110.490918
57.635903
33.045411
34.832954
53.855777
72.929859
99.514723
119.312406
137.853622
146.653652
146.494508
138.074756
119.077563
102.459788
79.774857
64.740777
51.620603
45.040846
42.784810
41.777492
43.556690
44.141412
42.984486
42.802691
42.026639
41.443706
40.030479
40.134788
40.064454
38.675666
37.898421
35.766959
34.077764
32.228827
30.664802
30.228496
27.048588
26.576519
24.430752
22.720695
21.318793
21.294951
19.693971
18.336773
16.649961
16.578436
15.538931
14.296770
13.724566
12.744665
12.401938
11.285543
10.666847
10.718703
10.138750
9.363890
9.756684
##ZVALUE=290
0.321865
0.613928
0.432730
0.531673
0.611544
0.584722
0.418425
0.577569
0.458956
0.665784
0.560880
0.581741
0.499487
0.674725
0.500679
0.747442
0.639558
0.644922
0.774860
0.691414
0.870824
0.658631
1.075864
0.871420
1.253486
1.456738
1.903772
5.813837
26.040673
64.101815
128.074884
275.808573
425.651670
642.116666
768.879652
862.825513
843.216777
719.431639
591.277480
395.926833
265.172720
136.248469
71.235895
31.507611
24.132729
35.032630
49.500465
73.477626
94.289780
124.053955
141.624808
152.703524
154.557824
144.920945
131.042004
105.628967
91.738701
72.775483
64.485669
57.376623
54.273605
51.862001
50.226450
48.888922
47.822595
46.713948
47.101974
45.802593
43.903589
43.158531
42.107701
39.925575
37.645698
35.381913
33.716559
31.545758
30.229688
27.651787
26.888847
25.020838
23.295879
21.208525
20.023584
19.300580
18.151999
16.550422
15.843511
14.464855
14.148951
13.064742
12.789965
11.972785
11.618733
11.097789
10.995865
10.056496
##ZVALUE=295
0.320673
0.673532
0.642538
0.553727
0.519753
0.602603
0.707507
0.521541
0.651479
0.554919
0.690818
0.704527
0.493526
0.532866
0.730753
0.554919
0.651479
0.597835
0.713468
0.653863
0.758767
0.706911
0.748634
1.036525
1.029968
0.889897
0.930429
1.094937
1.335740
2.026558
11.859536
32.081604
88.746548
165.914893
302.522779
418.582559
561.496615
638.533831
663.084984
626.038909
504.364967
394.138694
243.937969
154.036880
72.663426
38.424730
22.205710
23.548603
37.315488
53.365827
81.948638
104.162693
130.797625
148.080587
158.435702
159.852505
150.432587
136.477947
118.239522
103.591681
85.351467
73.284507
63.073635
58.687925
55.217743
52.854419
50.855875
50.533414
48.837662
46.999454
44.996738
43.068528
41.236877
38.308501
36.697984
34.409761
32.213926
30.982494
28.557777
27.012825
24.952888
23.383498
21.790862
20.505786
19.271970
18.183589
16.959906
15.956759
14.359951
14.455914
13.293624
12.609959
11.976957
11.250973
11.042953
10.144711
##ZVALUE=300
0.384450
0.403523
0.335574
0.275970
0.506639
0.387430
0.461936
0.421405
0.458956
0.392795
0.363588
0.503659
0.509620
0.541806
0.428557
0.371933
0.463724
0.492930
0.587702
0.544786
0.697970
0.542998
0.818968
0.614524
0.601411
0.703931
0.690818
0.779629
0.804663
1.079440
1.121759
1.410842
3.404617
19.705892
49.610734
124.316812
209.835768
360.040665
475.268960
600.525737
647.787452
634.397864
570.843816
437.387824
319.687724
178.655982
110.156536
56.143999
34.468770
28.271675
34.019947
49.538612
63.934922
87.893605
107.115507
134.650469
151.037574
165.164471
164.560676
156.376958
143.724680
121.570826
105.572939
85.819960
73.602796
62.208772
57.081580
53.300858
51.392913
48.678517
46.599507
44.133663
43.010712
39.171576
37.246943
34.955740
33.920407
31.123757
29.165745
26.752949
25.793910
23.356676
22.579432
20.982623
19.841790
17.780662
17.665625
16.178489
15.268922
14.244914
13.620853
12.629628
11.806488
11.179447
10.469556
10.099411
##ZVALUE=305
0.417829
0.406504
0.482798
0.463724
0.349879
0.524521
0.374913
0.413656
0.508428
0.350475
0.423789
0.449419
0.482798
0.477433
0.310540
0.464916
0.377893
0.507832
0.521541
0.640750
0.428557
0.493526
0.581741
0.583529
0.556707
0.721812
0.780821
0.714660
0.735521
0.701547
0.699759
0.772476
1.039505
1.202822
2.430677
8.869767
37.291646
81.033707
178.030729
276.795626
423.484445
526.566505
622.124672
638.365746
582.834482
496.428013
353.868604
251.204967
137.998462
85.519552
48.021674
37.898421
37.889481
43.596625
56.289434
69.011450
92.906952
111.923814
134.910941
150.319934
159.262419
159.660578
148.637891
135.741830
112.218857
96.059442
77.749491
65.893531
55.633783
49.239993
44.144988
42.025447
38.588643
36.472678
34.552813
32.609701
30.690432
29.582977
27.363896
24.965405
24.368763
22.578835
20.961761
19.981861
18.497705
16.965866
15.660524
15.005469
14.400482
13.487935
12.800694
11.804700
10.931492
10.458827
9.865761
9.437799
##ZVALUE=310
0.326633
0.295639
0.334978
0.337958
0.296831
0.443459
0.420809
0.389814
0.486970
0.402927
0.508428
0.413656
0.504851
0.491738
0.564456
0.548959
0.376701
0.439882
0.441670
0.559688
0.419617
0.536442
0.568628
0.561476
0.610948
0.505447
0.542998
0.557899
0.708699
0.624657
0.828505
0.718832
0.720620
0.690818
0.941753
0.973940
1.326799
4.526973
15.360713
53.364635
105.982423
215.586424
322.400928
469.403863
567.740798
632.629991
621.830821
545.162559
451.120734
307.843685
210.883617
117.659569
75.132847
44.927001
36.244988
37.949681
43.130517
54.406524
64.995885
84.076524
100.067854
119.907856
132.624507
142.738819
141.786933
133.822560
120.818615
103.810430
84.797740
65.337420
53.124428
42.313933
36.629438
31.612515
28.762817
27.046800
25.762916
23.901463
22.508502
21.009445
20.260811
18.539429
17.430782
16.209483
15.533566
14.912486
13.770461
12.877584
12.160540
11.466742
10.599494
10.302663
9.819865
9.231567
8.812547
8.280873
##ZVALUE=315
0.093579
0.047684
0.295639
-0.055432
0.218749
-0.080466
0.157952
0.162721
0.176430
0.156760
0.262856
0.170469
0.060797
0.072718
0.045896
0.286698
0.102520
0.068545
0.332594
0.297427
0.318885
0.235438
0.367761
0.485778
0.328422
0.348687
0.266433
0.345707
0.167489
0.390410
0.562668
0.370741
0.464916
0.378489
0.605583
0.460744
0.736713
0.917912
0.895858
2.151728
7.601976
33.479929
72.059631
164.131522
265.411735
420.122743
517.312884
601.616502
625.885725
576.661825
495.596528
358.427763
256.809592
147.789717
90.302825
48.388839
36.114454
33.012629
33.954978
39.718747
45.120716
57.880878
69.983602
87.189674
101.448894
118.821859
123.786926
124.684572
118.731856
101.326704
86.806417
67.100525
52.340627
38.080812
30.387640
23.841858
20.800829
18.703938
17.804503
16.157627
15.673637
14.247894
13.481975
12.688637
11.605620
11.175871
10.654926
9.891987
9.609461
9.126663
8.820891
8.444786
7.872581
7.473826
7.178783
7.112622
##ZVALUE=320
0.342727
0.336766
0.308752
0.300407
0.297427
0.431538
0.351667
0.338554
0.442863
0.216961
0.153780
0.335574
0.267625
0.347495
0.428557
0.586510
0.348687
0.504851
0.335574
0.280738
0.348687
0.275970
0.402927
0.292659
0.234842
0.360608
0.356436
0.379682
0.549555
0.550747
0.683665
0.580549
0.664592
0.625849
0.659823
0.664592
0.889897
0.807643
0.734925
0.883937
1.010895
1.345873
3.340840
18.110871
46.514869
120.753646
199.471712
328.084826
433.341861
551.642776
602.133870
591.276884
532.766581
409.673452
303.582549
175.728798
106.953979
55.000782
35.326481
24.670959
22.796988
23.966432
26.003718
31.508803
38.797855
54.905415
67.453980
84.413886
96.441507
105.869770
105.732679
98.325610
87.698698
68.942904
55.609941
38.026571
29.400587
19.598603
15.961528
12.067556
11.096597
9.837747
9.201765
8.856654
8.273721
7.853508
7.411838
7.061958
7.408857
6.864667
6.804466
6.710887
6.486773
6.334782
5.751848
6.130934
##ZVALUE=325
0.311732
0.286698
0.240803
0.156760
0.212789
0.328422
0.256896
0.217557
0.263453
0.401735
0.297427
0.325441
0.180602
0.373721
0.350475
0.362992
0.347495
0.313520
0.335574
0.414848
0.296831
0.375509
0.378489
0.458956
0.456572
0.550747
0.366569
0.345707
0.532866
0.383854
0.494719
0.433922
0.390410
0.540614
0.552535
0.719428
0.760555
0.625849
0.721812
0.810623
0.610948
0.801682
0.838637
0.862479
1.960993
11.808872
30.887723
82.016587
144.547820
271.716714
375.993848
502.317548
565.932989
587.622523
543.950796
431.353450
328.537822
200.052857
123.748779
59.448481
31.714439
16.074777
11.918545
11.290908
11.528730
14.920831
18.983483
28.691888
38.772821
56.509972
69.226623
82.995892
89.115500
90.268850
83.891749
70.770979
58.198571
41.975975
31.023622
19.646883
13.856888
9.093881
7.103682
5.659461
5.433559
5.214810
5.086660
4.890561
4.795790
4.792809
4.767776
4.800558
5.057454
4.747510
4.666448
4.667640
##ZVALUE=330
0.313520
0.354648
0.246763
0.186563
0.313520
0.174642
0.332594
0.343919
0.269413
0.186563
0.251532
0.212789
0.295639
0.320673
0.400543
0.294447
0.314713
0.344515
0.351667
0.270605
0.338554
0.289679
0.338554
0.190735
0.389814
0.374913
0.390410
0.323653
0.371933
0.400543
0.294447
0.440478
0.584722
0.570416
0.430942
0.391603
0.478625
0.503659
0.540614
0.553727
0.583529
0.617504
0.710487
0.788569
0.909567
1.089573
1.264811
3.926754
19.475818
47.006607
114.871860
190.432668
321.711898
418.945551
522.654653
562.664866
539.683700
475.681424
357.073545
260.719657
145.873427
84.209442
35.926700
17.415881
7.880926
6.379485
6.271601
6.792545
9.792447
14.356971
24.120808
33.337474
48.192739
60.415864
74.203610
79.224706
81.359744
76.762438
64.274669
52.602887
36.711693
27.541518
17.413497
12.214780
7.984638
5.730987
4.200935
4.124641
4.074574
3.872514
3.933907
4.054904
3.967881
4.175901
4.108548
4.559755
##ZVALUE=335
0.221729
0.246763
0.334978
0.317693
0.353456
0.450611
0.385642
0.429749
0.224710
0.392795
0.354648
0.436902
0.358820
0.270605
0.091791
0.240803
0.275970
0.311732
0.201464
0.286698
0.290871
0.334978
0.383854
0.324845
0.361800
0.272989
0.345707
0.405908
0.305772
0.368953
0.392795
0.496507
0.439882
0.503659
0.375509
0.509620
0.254512
0.498891
0.503659
0.555515
0.592470
0.523925
0.628829
0.609756
0.733733
0.471473
0.649691
0.812411
0.954866
2.313852
7.757545
31.814575
67.287683
152.096748
241.011977
376.895666
465.603471
536.905527
541.485548
485.131741
406.047702
277.392864
187.053680
97.814798
51.708817
18.920898
9.205937
5.150437
5.002618
5.272627
5.666614
8.200407
12.088418
20.821691
30.088425
45.165420
56.991577
68.795681
74.283481
75.307488
70.161819
59.263706
49.208999
37.267804
27.549863
17.511845
12.229681
7.422566
5.861521
4.550815
4.084706
3.730655
3.794432
3.963709
4.053712
3.906488
##ZVALUE=340
0.270605
0.262856
0.276566
0.235438
0.210404
0.416636
0.276566
0.327826
0.218749
0.222921
0.245571
0.194907
0.153780
0.312924
0.301600
0.212789
0.378489
0.395775
0.267625
0.273585
0.253916
0.182986
0.199676
0.255704
0.323653
0.301600
0.505447
0.480413
0.344515
0.321865
0.520945
0.336766
0.442863
0.495911
0.306964
0.434518
0.473857
0.542998
0.417829
0.539422
0.588894
0.455976
0.553727
0.623465
0.471473
0.565648
0.504851
0.789762
0.605583
0.743866
0.988841
1.394749
3.885627
18.954873
47.203898
117.027760
198.733807
324.675441
412.838459
502.362847
531.339645
496.881604
431.249738
316.219926
222.861767
117.069483
65.473914
26.613474
12.056828
5.804896
4.838705
4.699826
4.655719
5.427599
7.444620
12.210608
18.405914
29.459000
40.349960
54.326653
62.797666
69.302917
69.822669
65.385699
58.429837
46.623945
36.391616
25.252700
18.519759
11.593699
8.065701
5.458593
4.532933
3.847480
4.025698
4.026890
##ZVALUE=345
0.247955
0.272989
0.201464
0.246763
0.223517
0.288486
0.303984
0.342727
0.396967
0.335574
0.292659
0.269413
0.374913
0.188947
0.196695
0.261664
0.225902
0.363588
0.312924
0.365973
0.271797
0.238419
0.299811
0.270605
0.367761
0.327826
0.264645
0.163913
0.284910
0.332594
0.432730
0.416636
0.324845
0.382662
0.418425
0.428557
0.328422
0.456572
0.277758
0.400543
0.300407
0.416636
0.559688
0.498891
0.434518
0.465512
0.557899
0.481606
0.467896
0.590682
0.484586
0.651479
0.747442
0.907779
2.188683
8.065701
33.545494
70.678592
148.811936
231.515765
353.991985
436.862707
498.740673
505.594015
444.032550
367.933512
249.508619
164.327621
76.635480
38.680434
13.661981
6.989837
4.714727
4.478693
4.159808
4.349947
5.074739
6.579757
11.018515
16.703606
27.483702
37.044883
48.412681
56.697726
63.631535
64.516664
61.304569
55.641532
45.520663
36.468506
25.435686
17.795563
11.643767
8.264780
5.602837
4.689693
##ZVALUE=350
0.205636
0.173450
0.227690
0.218749
0.232458
0.209808
0.324845
0.363588
0.219941
0.344515
0.134706
0.196695
0.290871
0.057817
0.210404
-0.006557
0.184774
0.306964
0.199676
0.390410
0.417829
0.405908
0.227690
0.278950
0.169873
0.318885
0.347495
0.294447
0.318885
0.335574
0.364780
0.397563
0.410676
0.394583
0.355840
0.281930
0.305772
0.448823
0.412464
0.251532
0.339746
0.392795
0.582933
0.389814
0.464916
0.438690
0.420809
0.473857
0.547767
0.468493
0.539422
0.593662
0.554919
0.622869
0.647902
0.786781
0.970960
4.970431
16.077757
51.968694
98.771453
196.173787
283.129811
394.393802
461.491942
493.701696
466.257930
382.535458
292.977691
173.665881
105.807781
49.804449
23.323894
8.001924
4.893541
4.249811
4.051924
3.943443
3.949404
4.502535
6.132722
10.345578
15.256405
23.448467
31.345487
42.715669
50.062537
57.649612
59.008002
56.917667
52.251816
42.648911
34.559965
24.254918
18.020868
11.591911
##ZVALUE=355
0.192523
0.186563
0.329614
0.278950
0.210404
0.123978
0.145435
0.146627
0.256896
0.299811
0.247955
0.172853
0.307560
0.236630
0.287890
0.323653
0.186563
0.340939
0.209808
0.157952
0.213981
0.364780
0.246763
0.191927
0.274777
0.356436
0.353456
0.273585
0.244975
0.265837
0.205636
0.309944
0.302792
0.247955
0.540614
0.374913
0.397563
0.281930
0.436902
0.402927
0.281930
0.304580
0.428557
0.361800
0.338554
0.398755
0.483990
0.486970
0.468493
0.367761
0.385642
0.475645
0.625849
0.657439
0.555515
0.634789
0.537634
0.597835
1.001954
1.884699
9.784698
27.215481
74.307919
132.613778
240.336657
327.993631
427.891016
470.513701
463.004708
408.343673
299.628973
218.050480
122.937560
68.359971
27.145743
12.460947
5.264878
4.186630
3.812909
3.565550
3.651977
3.645420
3.977418
5.346537
8.882880
12.300611
20.106435
27.324557
37.982464
44.579506
51.827431
53.720474
53.487420
49.258471
40.621758
33.991933
##ZVALUE=360
0.314713
0.309944
0.160933
0.183582
0.211596
0.237823
0.169873
0.415444
0.206828
0.127554
0.034571
0.356436
0.449419
0.277758
0.222921
0.242591
0.302792
0.329614
0.222921
0.373721
0.362992
0.409484
0.299811
0.315905
0.366569
0.313520
0.324845
0.353456
0.204444
0.269413
0.237823
0.236630
0.372529
0.372529
0.386834
0.439882
0.480413
0.422597
0.456572
0.431538
0.309944
0.251532
0.442863
0.383854
0.385642
0.278950
0.422597
0.387430
0.434518
0.543594
0.314713
0.418425
0.465512
0.459552
0.509620
0.660419
0.501871
0.706911
0.603795
0.760555
1.010895
1.169443
4.437566
13.984442
47.888756
92.504621
182.055831
267.680883
383.168459
440.954566
462.524891
431.030989
338.354707
255.250931
155.590773
93.155503
39.827824
18.178821
6.525517
4.130602
3.751516
3.557801
3.438592
3.324747
3.312826
3.750920
4.530549
6.453991
11.131763
15.451908
23.246408
30.684471
39.504766
45.513511
49.201846
49.176812
##ZVALUE=365
0.300407
0.296831
0.418425
0.206828
0.293851
0.301600
0.190735
0.346899
0.255704
0.241995
0.252724
0.269413
0.308752
0.288486
0.328422
0.231862
0.335574
0.427961
0.377893
0.373721
0.341535
0.260472
0.320673
0.298619
0.526905
0.368953
0.354648
0.311732
0.397563
0.300407
0.255704
0.366569
0.147820
0.350475
0.361800
0.113845
0.292659
0.384450
0.284910
0.393987
0.444651
0.413656
0.363588
0.300407
0.417829
0.377893
0.292659
0.454783
0.405908
0.488758
0.517964
0.440478
0.475645
0.355840
0.484586
0.429749
0.600815
0.666976
0.614524
0.603795
0.711679
0.687838
0.734925
0.905991
1.851916
9.158850
25.304556
69.241524
127.758980
233.163834
312.212706
399.370790
438.373685
430.389643
377.909541
276.023746
194.512606
106.308460
58.309436
21.709800
9.739995
4.298687
3.495812
3.362894
3.164411
3.148913
2.893806
3.087521
3.059506
3.909469
5.450845
8.849502
12.951493
20.386577
26.323795
34.988523
##ZVALUE=370
0.276566
0.139475
0.058413
0.233650
0.136495
0.101924
0.222921
0.208616
0.104904
0.258684
0.243783
0.157952
0.298619
0.259876
0.315905
0.186563
0.150800
0.248551
0.083447
0.097752
0.183582
0.239611
0.217557
0.144839
0.350475
0.274777
0.202656
0.317693
0.191927
0.352859
0.103712
0.395775
0.265837
0.339746
0.226498
0.241995
0.376701
0.164509
0.319481
0.228882
0.305772
0.362992
0.241995
0.300407
0.411868
0.347495
0.484586
0.185966
0.481606
0.352859
0.412464
0.375509
0.402927
0.384450
0.400543
0.482798
0.367761
0.318885
0.450611
0.307560
0.484586
0.614524
0.555515
0.623465
0.634789
0.788569
1.158714
4.696846
15.319586
50.707459
94.870925
179.565549
263.170004
367.777944
419.684649
431.865454
395.552516
307.757854
226.605535
125.947595
71.319938
28.652549
14.059544
5.707741
3.834963
3.337860
3.060699
3.049970
2.931952
2.634525
2.631545
2.815723
3.496408
5.011559
7.256866
11.510849
##ZVALUE=375
0.256896
0.298619
0.125766
0.269413
0.094771
0.344515
0.201464
0.264645
0.218749
0.348687
0.191927
0.151992
0.086427
0.280738
0.179410
0.161529
0.281930
0.287890
0.323653
0.298619
0.429749
0.278950
0.260472
0.219941
0.235438
0.182986
0.229478
0.350475
0.410676
0.272989
0.349879
0.324845
0.377893
0.376701
0.423789
0.235438
0.358820
0.286698
0.423789
0.459552
0.487566
0.459552
0.275970
0.394583
0.539422
0.434518
0.310540
0.446439
0.365973
0.411868
0.390410
0.419617
0.418425
0.394583
0.346899
0.376701
0.378489
0.352859
0.415444
0.471473
0.531673
0.528693
0.547767
0.546575
0.579953
0.638962
0.666976
0.689626
0.760555
1.978874
10.637641
27.495623
72.250962
129.046440
227.184892
305.183530
388.351679
423.240662
404.518843
350.109935
249.709487
174.074769
96.775889
54.266453
22.029877
10.176897
4.408956
3.252625
3.145933
3.144741
2.859831
2.869964
2.578497
2.832413
2.723932
2.959967
##ZVALUE=380
0.270605
0.261664
0.221729
0.116825
0.224710
0.266433
0.151992
0.165701
0.273585
0.217557
0.177622
0.306964
0.212789
0.259876
0.118613
0.212789
0.149608
0.240803
0.252724
0.250936
0.183582
0.319481
0.287890
0.188947
0.300407
0.226498
0.193715
0.326633
0.273585
0.225902
0.262856
0.314713
0.408888
0.569820
0.387430
0.324845
0.642538
0.651479
0.380874
0.564456
0.449419
0.445843
0.410676
0.474453
0.420809
0.415444
0.445843
0.442863
0.349879
0.522733
0.348687
0.503659
0.394583
0.516772
0.377893
0.325441
0.385642
0.336766
0.413656
0.406504
0.376701
0.512600
0.441670
0.401735
0.465512
0.530481
0.438690
0.656843
0.712872
0.783801
0.859499
1.341701
4.483461
20.689964
47.770739
111.879706
180.760622
280.457735
352.063775
410.680771
415.078998
363.579988
296.753645
199.653506
133.513808
66.737533
35.153627
13.078451
6.255507
3.474951
2.978444
2.926588
2.745986
2.764463
2.581477
2.585649
##ZVALUE=385
0.186563
0.261664
0.069737
0.129938
0.036955
0.127554
0.103712
0.231862
0.137687
0.252724
0.322461
0.236630
0.318885
0.298619
0.068545
0.313520
0.226498
0.254512
0.312924
0.185966
0.253916
0.208616
0.170469
0.118613
0.357628
0.105500
0.332594
0.266433
0.370741
0.391603
0.459552
0.672936
0.710487
0.601411
0.556707
0.693798
0.565648
0.700951
0.689626
0.648499
0.562668
0.557899
0.745654
0.557899
0.525713
0.447631
0.506639
0.463724
0.473857
0.373721
0.468493
0.310540
0.400543
0.388622
0.401735
0.336766
0.274777
0.377893
0.343919
0.431538
0.441670
0.412464
0.622869
0.537634
0.499487
0.540614
0.535846
0.634789
0.403523
0.560880
0.567436
0.704527
0.755787
0.895858
2.534986
8.741617
31.735897
68.566799
146.153569
222.318769
321.165919
377.189517
405.204892
393.517613
329.074860
260.704756
164.058805
104.639530
48.350692
24.087429
8.762479
4.322529
2.875924
2.676845
2.687573
2.561808
##ZVALUE=390
0.199676
0.123978
0.292659
0.266433
0.344515
0.328422
0.097752
0.225902
0.118613
0.231862
0.036955
0.083447
0.173450
0.225902
0.240803
0.221729
0.267625
0.126958
0.243783
0.332594
0.183582
0.179410
0.379682
0.265837
0.391603
0.304580
0.319481
0.435710
0.739694
0.625849
0.779629
0.837445
0.894666
0.898838
0.967979
1.055598
0.821948
1.093745
1.028776
1.045465
0.905991
0.933409
0.738502
0.819564
0.802875
0.685453
0.606775
0.498891
0.466704
0.569820
0.581741
0.632405
0.589490
0.449419
0.640750
0.373721
0.476837
0.471473
0.489950
0.591874
0.364780
0.540614
0.592470
0.570416
0.544786
0.488758
0.448823
0.561476
0.535846
0.623465
0.647902
0.608563
0.650883
0.693798
0.624657
0.765920
1.331568
5.963445
17.705560
54.847598
103.524923
194.679499
267.185569
351.575613
392.080545
400.654674
370.408893
292.927623
224.372745
135.453939
79.351664
32.974482
15.846491
6.037951
3.374815
2.780557
##ZVALUE=395
0.255704
0.268817
0.235438
0.232458
0.244975
0.156760
0.170469
0.331998
0.349879
0.262856
0.198483
0.247955
0.290871
0.196695
0.261664
0.167489
0.252724
0.223517
0.164509
0.112653
0.246763
0.283718
0.260472
0.262856
0.227690
0.417829
0.392795
0.526905
0.652671
0.756979
0.705719
1.002550
0.970960
1.120567
1.285672
1.368523
1.129508
1.133680
1.176596
1.260638
1.133680
1.169443
0.997782
0.874996
0.912547
0.719428
0.696778
0.764728
0.726581
0.739694
0.562668
0.626445
0.564456
0.562668
0.829697
0.621676
0.456572
0.472665
0.478625
0.661612
0.586510
0.421405
0.584722
0.556707
0.478625
0.525713
0.627637
0.651479
0.604987
0.698566
0.748634
0.565648
0.621676
0.618696
0.648499
0.605583
0.669956
0.793934
1.009703
3.339648
11.575818
40.553808
77.872872
148.538947
218.927860
318.381786
376.553535
415.131450
403.060913
340.906978
269.227624
168.479681
105.527639
47.222972
23.107529
8.174777
##ZVALUE=400
0.317693
0.413656
0.199676
0.197887
0.256896
0.369549
0.186563
0.148416
0.173450
0.151992
0.222921
0.162721
0.308752
0.361800
0.353456
0.142455
0.093579
0.148416
0.135899
0.168681
0.199676
0.349879
0.386834
0.292659
0.319481
0.277758
0.323653
0.381470
0.537634
0.659823
0.899434
1.039505
0.891685
1.013875
0.933409
1.300573
1.243949
1.322627
1.004934
1.018643
1.057982
1.044869
1.061559
0.970960
1.149774
0.928640
0.836849
0.827909
0.806451
0.734925
0.774860
0.699759
0.650883
0.737906
0.495911
0.549555
0.529885
0.607967
0.588894
0.639558
0.565648
0.642538
0.655651
0.739694
0.557899
0.469685
0.669956
0.505447
0.638962
0.644922
0.609756
0.656843
0.740886
0.633597
0.604987
0.617504
0.584722
0.638962
0.665784
0.909567
0.783801
1.538992
6.769896
19.047856
55.118799
101.244450
188.760757
261.013508
349.996686
392.408967
396.031737
357.653499
276.028514
205.813646
123.219490
75.351000
##END
