##TITLE=DWF40
##FORMAT=SPECTACLE-ASCII V-1.2
##DATA TYPE=ULTRAVIOLET SPECTRUM
##SECOND TYPE=ULTRAVIOLET SPECTRUM
##DATE=12/21/17
##TIME=14:15:22
##SPECTROMETER/DATA SYSTEM=SPECTACLE
##XUNITS=NM EM
##YUNITS=ENERGY
##YFACTOR=1
##FIRSTX=220
##LASTX=410
##NPOINTS=96
##3DDATA=Equidistant
##ZUNITS=NM EX
##FIRSTZ=210
##LASTZ=400
##ZPOINTS=39
##XYDATA=(Y..Y)
##ZVALUE=210
13.576746
14.129877
11.851788
11.540651
10.810494
8.855462
8.809566
7.974505
6.197691
5.356669
3.995895
3.539920
2.816916
2.619624
3.286600
2.691746
2.770424
2.798438
3.119707
2.915859
2.858639
3.297925
4.313588
4.686713
8.114576
11.491776
17.549992
23.936629
33.141971
41.076541
48.134923
57.000518
63.640475
72.420835
74.487925
77.992678
77.102780
76.289773
78.880787
73.587894
70.674419
65.404773
62.218904
58.958530
57.065487
51.586628
46.199560
45.939684
44.298768
40.378571
37.089586
33.165812
31.453967
29.936433
27.348995
27.804971
25.420785
24.557710
23.872852
21.310449
20.766854
19.349456
18.526912
18.039942
17.987490
17.176867
16.778708
14.943480
15.394688
15.812516
16.318560
16.042590
17.014742
16.138554
18.403530
16.747713
17.243624
15.156865
15.071630
14.961958
15.446544
12.416840
10.765791
10.317564
8.945465
7.097721
8.274913
7.413626
7.717609
7.480979
9.510517
11.674762
14.261603
18.949509
20.482540
27.137995
##ZVALUE=215
37.246943
36.116838
32.567978
24.686456
17.951727
15.323758
17.027855
15.332699
13.900995
14.563799
11.555552
10.058880
6.455779
4.891753
4.566908
3.404617
3.073812
3.633499
4.046559
3.237724
3.065467
3.357530
4.493594
6.100535
7.588863
14.747977
19.128919
29.965639
37.953854
50.923824
60.151815
74.420571
81.022978
86.836815
88.140965
98.422766
91.098547
94.363689
88.508725
89.592934
84.259510
81.321597
78.554749
70.664883
66.336989
60.405731
58.429837
50.907731
52.858591
51.585436
45.875907
40.124655
39.868951
36.668777
33.786893
31.859875
31.502843
28.082728
28.185844
28.183460
24.040937
23.162961
21.213889
21.023750
21.454692
18.779635
17.137527
17.109513
17.853975
17.227530
18.348694
17.206669
18.688440
18.930435
17.865896
17.709732
17.150640
17.218590
15.723705
15.152693
13.847947
13.013482
11.678934
9.728670
8.714795
9.120703
8.072853
7.201433
6.997585
6.658435
7.040501
6.935596
7.221699
8.142591
8.943677
11.930466
##ZVALUE=220
80.449581
78.620911
79.972744
67.867637
59.273839
44.970512
36.581755
28.362870
25.265813
25.117993
23.786426
23.410916
23.153424
17.725825
13.911724
10.829568
7.844567
6.043911
3.699660
3.326535
3.683567
3.796816
5.094409
5.601645
9.941459
14.329553
23.813844
31.898618
47.282577
55.607557
67.575574
78.935623
87.094903
98.088980
103.146434
109.946728
111.476779
108.709931
108.141899
102.117658
98.009706
95.961690
91.614723
83.304644
80.548525
70.729852
67.742467
63.903928
59.214830
55.124760
52.257776
49.619675
45.827627
41.689873
39.774776
36.232471
34.219623
34.345984
31.969547
31.297803
27.503967
25.852919
26.450753
23.343563
22.740960
20.856857
19.376874
19.883513
19.225478
17.710924
18.292665
20.066500
20.105839
18.643737
19.624829
19.231439
17.930865
17.754436
16.109943
15.476942
15.340447
13.864636
11.942983
12.093782
11.056662
10.310411
10.010600
8.406639
8.736849
7.557869
8.286834
8.289814
6.916523
7.017851
5.882978
6.977916
##ZVALUE=225
101.590753
108.012557
123.975873
143.816471
137.627721
123.823881
109.950900
81.773996
62.301755
49.456954
40.025711
36.196709
39.985776
41.179657
38.179755
33.939481
26.598573
20.117760
13.839602
9.374619
6.898642
5.575418
5.456805
5.724430
8.481741
13.502836
18.810630
28.831959
37.133694
51.197410
61.524510
76.640844
82.204938
93.277693
94.679594
100.470781
101.140738
99.690557
101.845860
95.355511
93.805790
87.988973
84.040761
79.517961
75.235963
67.502856
64.342618
59.514642
54.855943
51.742792
50.944686
45.369864
43.042898
42.682886
36.777854
38.029552
34.677982
33.343434
33.228993
29.861927
31.927824
28.566718
26.411414
26.181936
24.638772
23.212433
22.759438
20.033717
21.597743
21.539927
19.585490
20.838976
20.779967
21.746755
19.599795
19.923449
19.712448
18.075705
17.061830
15.630722
14.871955
15.262961
12.743473
11.997819
13.280511
10.896921
10.428429
10.049939
10.301471
10.358691
8.681417
8.178949
8.217692
8.928776
8.669496
7.814765
##ZVALUE=230
73.212981
76.727867
114.449859
163.059831
203.033686
233.260989
243.772864
225.492716
195.339918
157.393813
106.776953
80.198646
58.321953
55.906773
55.934787
60.797930
60.791969
54.478645
49.355626
36.913753
30.084848
18.757582
13.306737
9.188652
8.889437
9.922981
14.603734
19.626617
26.424527
35.751462
40.580630
47.542453
52.107573
57.533979
62.020421
62.166452
63.460469
64.079762
67.561865
64.883828
62.033534
59.188604
58.205724
53.369999
51.817894
45.892000
43.845773
41.619539
39.312840
37.812591
38.656592
39.776564
35.439730
32.964945
33.648610
32.459497
32.492876
33.183694
31.020641
31.379461
28.324723
28.372407
27.658939
28.132796
25.031567
24.377704
23.924708
20.836592
23.550987
23.747683
22.252798
23.158789
23.084879
21.439791
22.554994
21.110773
20.624995
20.916462
19.359589
18.239617
17.273426
17.598867
14.988780
13.719797
14.054775
12.304783
13.518929
11.431575
11.314750
10.516644
10.496974
10.998845
9.886622
10.218620
9.392500
10.517836
##ZVALUE=235
20.698905
23.169518
45.555830
96.642971
154.866576
234.417915
290.213823
355.257988
380.134583
368.019938
314.140916
259.264708
173.622966
126.627684
97.862482
80.104470
80.257654
82.706809
88.490844
88.746548
82.698464
64.654946
51.568747
37.719607
26.798844
16.260743
16.063452
14.467835
15.058517
17.172694
21.651983
22.155643
26.363730
29.090643
32.338500
30.762553
33.707619
34.176707
35.280585
33.285618
32.430887
32.590628
32.780766
31.228662
32.624602
29.069781
28.736591
27.130842
26.928782
26.961565
26.841760
27.230978
27.528405
26.971698
26.798844
25.877953
26.488900
27.838945
25.983453
25.470853
25.531650
25.469661
24.523735
25.576949
24.246573
24.648905
23.400784
22.694468
22.519827
22.573471
23.594499
24.513602
23.998618
23.774505
22.763610
23.195744
22.422671
22.158623
21.983981
21.498799
19.666553
19.017458
17.066598
17.515421
18.113852
17.127991
17.061830
16.885996
14.725924
13.746619
14.147758
14.368892
14.212728
13.194680
13.578534
13.819933
##ZVALUE=240
2.242923
2.810955
7.572770
22.282600
53.718686
99.554658
188.611746
280.857682
401.628017
481.601954
519.001484
526.756644
477.674603
370.890498
286.098719
184.958577
138.810873
100.094676
92.002749
102.287531
110.665560
116.986632
107.830763
101.766586
78.758597
66.678524
46.822429
35.073757
24.126768
18.198490
17.920732
16.730428
18.645525
19.262433
21.981597
22.404790
22.989511
24.118423
24.214983
23.515821
23.779869
24.491549
22.645593
23.781657
22.624731
22.197962
21.992922
21.688938
22.234917
20.572543
21.972656
23.395419
21.705627
22.063851
21.226406
21.233559
21.591783
22.537708
22.789836
21.334887
20.089746
20.163655
20.397902
22.063851
21.461844
25.246739
26.473999
29.080510
29.697418
34.696460
36.004782
39.681792
39.605498
43.610930
44.543743
46.825409
46.317577
46.538711
45.720935
47.415495
43.728948
41.494966
42.281747
41.271448
40.827990
39.120913
39.460659
39.260983
39.909482
38.705468
37.922859
37.035942
36.131740
35.510659
34.532547
35.660863
##ZVALUE=245
2.049804
2.022982
1.764894
2.003908
4.534721
13.957620
42.658448
88.135004
186.849833
287.886858
397.920609
539.755821
603.465438
617.892742
589.064956
517.543554
387.758613
277.608633
177.391768
120.329857
101.161599
100.087523
114.811659
123.926997
127.753615
123.866796
112.240911
97.079873
79.273582
61.192513
47.502518
33.777952
27.834773
25.878549
25.814772
26.553869
26.427507
27.015805
26.466846
27.142763
27.026534
26.974678
25.510788
26.350617
25.556684
24.235845
22.706985
22.056699
24.427772
23.702979
21.542907
19.945502
20.824671
20.112991
19.960999
19.382834
19.803643
19.387603
20.761490
19.326806
20.985603
19.680858
19.974709
20.184517
21.749735
24.412870
26.838779
31.560659
35.332441
40.255785
42.418838
45.394897
50.235987
55.031776
56.732893
62.446594
63.458681
59.591532
58.995485
57.883859
56.330562
57.917833
54.964423
54.840446
54.325461
56.032538
53.799748
55.654645
54.331422
52.693486
52.692890
49.817562
49.008727
47.012568
47.833920
48.554540
##ZVALUE=250
1.640916
1.676679
1.716614
1.689792
1.846552
1.676679
2.864599
8.390546
33.164620
68.297982
163.986683
266.640782
388.245583
548.465848
643.116832
708.409548
697.311759
621.934533
519.353747
354.686975
240.155458
162.297487
103.757977
92.553496
102.462769
117.950439
138.250589
147.305727
141.385794
133.566856
120.797753
100.067854
80.717802
61.085820
53.347945
42.783618
41.250587
38.258433
38.638711
38.280487
36.737919
37.568808
35.484433
35.174489
33.050776
30.713677
30.650496
30.047894
28.936863
28.302670
26.474595
27.387738
26.019812
24.572611
23.188591
22.627711
23.774505
21.406412
22.535920
20.835996
20.807981
21.729469
22.592545
22.794604
25.820732
28.257966
29.660463
35.429597
39.326549
42.859912
46.057701
51.916838
57.138801
64.473748
67.908764
73.568821
71.209669
73.614717
70.462823
69.541931
66.216588
63.761473
63.392520
66.072941
66.607594
66.106915
69.139600
67.283511
67.257881
64.088702
62.700510
59.923530
59.581995
58.978796
57.426691
56.074858
##ZVALUE=255
1.805425
1.526475
1.438856
1.480579
1.466870
1.754761
1.674891
1.804829
2.135634
3.521442
18.590689
48.976541
126.220584
215.393901
366.962552
512.132645
684.924722
776.194930
803.975463
755.515695
650.563836
469.446778
331.817865
193.311572
126.021504
92.192888
93.809962
115.046501
138.374567
160.924792
169.909596
170.374513
167.111754
145.409703
127.097964
104.210973
88.426471
72.141886
62.840581
57.699680
56.435466
55.401921
52.516460
49.868822
47.383904
43.450594
43.482780
41.120648
37.719607
37.873983
37.283897
34.670830
32.292604
31.012893
30.514598
28.378963
26.844740
26.288629
25.757551
25.466681
24.434924
24.678707
26.198626
27.369857
29.809475
33.071637
37.347674
40.840507
44.966936
48.679709
52.843690
59.793591
64.119697
69.918633
76.702833
78.608990
82.563758
79.909563
79.902411
75.975657
71.778893
71.396828
73.040724
74.059963
75.739622
78.995824
80.209970
80.479980
78.453422
75.231791
72.530508
69.697499
69.303513
65.521002
65.089464
64.599514
##ZVALUE=260
1.420975
1.228452
1.348853
1.481771
1.492500
1.558661
1.598597
1.569986
1.781583
1.766682
2.131462
2.613664
8.275509
33.497810
76.288581
183.501840
300.689936
489.536524
646.103621
826.016665
904.673934
897.288918
780.003667
630.985498
416.649580
287.929773
178.552866
123.949647
102.425814
113.076568
139.109492
174.996853
198.264718
216.648579
214.146972
202.332735
185.744762
156.657696
131.698847
110.692978
98.881721
82.311630
75.449944
70.295930
68.091750
62.339902
57.351589
56.086779
51.591992
50.614476
47.668815
43.509603
41.943789
38.328767
37.927628
35.475492
33.072829
33.971667
31.718612
29.779673
28.983951
29.134750
29.066801
32.097697
35.760999
39.490461
42.927861
47.616959
50.258636
53.597689
58.425665
65.003633
71.645975
78.724623
83.907843
90.754628
92.319846
86.576939
85.399747
81.991553
78.726411
80.341697
80.502629
84.231496
85.910559
85.853934
89.134574
88.788867
88.148713
81.070662
81.167817
75.523853
73.298812
70.885420
70.653558
70.410967
##ZVALUE=265
1.122952
1.138449
1.324415
1.281500
1.313686
1.362562
1.491904
1.500845
1.636744
1.567602
1.763701
1.809597
2.093911
2.004504
5.589724
18.610954
67.040920
129.749775
205.277801
437.355638
619.734526
849.264860
960.674882
985.955000
911.890864
736.832619
586.614609
382.338762
264.558792
164.047480
133.629441
131.989717
151.917934
194.603801
213.629603
239.321589
245.264769
238.110423
230.125785
201.038718
175.158978
146.270990
124.603510
101.062655
89.640617
78.865886
73.135495
67.011714
64.060688
58.899522
55.474639
51.252842
48.653483
44.833422
42.379498
40.287971
37.851930
36.823750
33.484697
32.547712
30.605793
31.406879
31.824708
33.758879
35.036802
39.575696
41.844845
45.016408
46.747923
49.978495
53.019524
55.282712
61.680675
69.326758
73.710680
77.045560
75.516701
75.770617
72.830915
68.804622
67.453980
65.627694
67.309737
67.925453
71.416497
74.432492
73.475838
71.157813
69.614649
68.512559
62.464476
59.155822
57.708621
55.658817
55.238605
53.429604
##ZVALUE=270
1.324415
1.334548
1.129508
1.202822
1.179576
1.225471
1.265407
1.390576
1.407862
1.140833
1.655817
1.428723
1.558661
1.607537
1.765490
1.959801
2.419949
10.706782
32.903552
100.921988
201.015472
345.100760
597.117543
783.339739
981.310606
1015.906930
1013.776660
927.380919
728.835464
555.610657
403.376818
252.579451
181.126595
146.329999
150.904655
178.578496
202.718973
230.453610
244.240761
249.809623
245.340466
223.172903
200.017691
165.870786
138.902664
107.682943
93.690753
79.180598
69.031715
62.515736
57.594776
52.954555
51.657557
46.057701
44.197440
41.248798
38.412809
35.992861
34.315586
32.342672
32.204986
32.192469
32.724738
34.624934
37.525892
41.992664
45.838952
48.547983
49.875975
53.914785
55.334568
58.226585
65.946579
72.245002
79.429746
84.270835
84.517002
85.710883
82.644820
79.920888
77.689886
78.084469
79.463720
80.200434
82.521439
86.761713
87.089539
85.973740
85.557699
82.384944
79.745650
75.075626
75.711608
71.038604
70.702434
67.256689
##ZVALUE=275
1.048446
1.030564
1.364946
1.131892
1.331568
1.349449
1.310706
1.245737
1.391768
1.398921
1.454949
1.398921
1.323819
1.599789
1.598597
1.666546
1.830459
1.930594
2.373457
5.256534
21.169782
56.724548
158.136487
297.196507
545.735955
739.097595
971.185565
1015.993953
1015.993953
1015.993953
941.168666
704.703927
515.193939
301.216841
206.518769
137.483478
125.218630
136.031508
153.765678
180.859566
203.689933
218.239427
221.852660
213.375688
197.485685
163.796544
140.907764
109.312534
90.800524
69.706440
59.392452
49.850941
44.437647
41.654706
39.933920
36.410689
34.371614
33.423901
32.341480
30.825734
31.604767
32.213926
35.044551
39.334893
46.565533
54.615736
61.831474
67.976713
72.173476
76.908469
83.247423
92.823505
102.813840
115.983486
126.346946
136.334896
137.263536
135.774612
132.429004
127.854943
125.652552
124.101639
126.575828
130.247474
132.704973
138.582587
139.734745
140.648484
137.591958
131.528974
126.666427
118.269920
114.910603
112.072825
107.810497
105.520487
##ZVALUE=280
1.013875
1.165867
1.083612
1.375675
1.108646
0.880957
1.243949
1.169443
1.123548
1.409650
1.345873
1.419783
1.302958
1.454949
1.396537
1.514554
1.582503
1.500845
1.317859
1.670718
1.978874
3.355742
10.088682
49.377680
115.035772
262.893438
417.161584
673.592687
868.217945
1015.906930
1015.906930
1015.906930
1015.906930
799.139738
598.367453
353.911519
222.390890
118.981600
87.071657
81.767440
92.782974
116.943717
138.251781
161.968470
173.803568
181.722641
175.012946
156.270862
134.873986
109.732747
88.229775
64.328909
50.832629
37.348866
33.393502
28.666854
27.014613
25.797486
24.922490
25.347471
25.362968
27.164817
29.308796
36.021471
41.479468
50.268769
57.753921
65.087676
70.989728
76.362491
79.267621
88.554621
97.862482
110.778809
120.995641
129.731894
131.563544
133.505464
129.611492
125.457644
121.935606
119.345784
122.886896
126.470923
129.755735
134.630799
136.270523
135.574937
133.905411
127.063990
123.589635
115.367770
111.902952
105.776787
104.888678
102.260709
##ZVALUE=285
1.109838
1.121759
1.061559
0.939965
1.061559
0.965595
1.084805
1.123548
0.964999
1.047850
1.145601
1.301765
1.170635
1.322627
1.156926
1.246929
1.289845
1.323819
1.560450
1.329780
1.292825
1.795888
1.827478
2.040863
6.033778
20.156503
68.985820
148.721933
320.058465
496.311784
694.941878
961.207747
1015.909910
1015.909910
1015.909910
949.949026
740.050673
455.236435
284.784436
138.274431
77.355504
45.320988
47.620535
67.315698
84.280968
111.040473
131.468773
149.872899
155.818462
151.207447
141.216516
119.207501
100.047588
71.410537
53.437948
36.883950
28.975606
22.257566
20.645857
19.685626
20.135641
21.749735
23.702979
28.918982
32.538772
41.050911
46.450496
53.145885
58.136582
63.264966
67.190528
73.029995
81.290603
90.342760
99.482536
108.557940
109.872818
112.138987
108.642578
104.904771
102.839470
102.086663
103.358626
104.904771
109.410882
111.217499
114.744902
114.555955
112.458467
108.474493
103.429556
98.333955
92.687607
88.375807
86.614490
83.884001
##ZVALUE=290
1.026988
0.777841
0.929832
0.931621
1.054406
1.100898
0.933409
1.106858
0.968575
0.880957
1.141429
1.253486
1.051426
1.111627
1.152754
1.272559
1.015663
1.125932
1.201630
1.658797
1.341701
1.367927
1.499653
1.582503
1.740456
2.173781
2.661943
11.186600
34.042597
104.268789
199.147463
407.651663
610.821843
897.621512
1015.906930
1015.906930
1015.906930
1015.906930
857.599974
574.137568
378.401875
185.335875
97.140670
42.124987
30.984879
37.926435
51.963925
75.415969
96.641779
121.833682
135.969520
146.685839
144.545436
131.246448
113.716722
86.084604
67.057610
46.607852
35.166740
24.419427
19.971728
17.818809
18.222928
20.059943
21.973848
26.134849
30.446649
34.614801
37.751794
39.974451
41.753650
45.589805
47.627687
52.835941
57.074428
61.734915
64.333677
63.481927
64.553618
62.495470
60.563684
59.174895
58.605671
58.662891
58.816671
62.083602
62.125921
60.813427
62.207580
60.806870
57.296753
54.456592
52.463412
49.552917
47.658682
46.181679
##ZVALUE=295
0.977516
0.900626
1.040697
1.041889
0.989437
0.959635
0.967979
1.131892
1.107454
1.187921
1.107454
1.149774
0.887513
1.292825
1.306534
1.192689
1.263618
1.059771
1.135468
1.235604
1.335740
1.592636
1.328588
1.530647
1.645684
1.660585
1.872778
1.844764
2.761483
3.915429
19.537807
55.896640
125.327706
297.757983
485.313535
775.801539
968.117714
1016.034484
1016.034484
1016.034484
921.763778
662.450790
453.802943
236.266851
129.411817
51.342845
27.458668
23.273826
30.685663
48.040748
64.411759
92.824697
109.015703
129.979849
135.961771
134.385824
124.010444
103.330612
84.572434
60.470700
46.715736
30.125976
22.467971
17.754436
15.990734
16.357899
17.670989
19.883513
21.068454
22.493601
23.998618
24.701953
25.257468
27.766824
30.171871
32.408834
33.771992
34.851432
35.998821
35.295486
34.284592
32.578707
32.439828
32.278895
32.315850
34.232736
34.469962
34.656525
34.743547
34.133792
33.500791
32.839775
31.742454
29.906631
28.446913
28.276443
##ZVALUE=300
0.848770
0.737906
0.878572
0.826716
0.809431
0.931621
0.884533
0.764728
0.716448
0.819564
0.861883
0.893474
0.848770
0.877976
1.050830
0.967979
0.963807
0.936985
1.052618
1.127720
1.115799
0.807643
1.288652
1.317859
1.320839
1.236796
1.412630
1.580715
1.623631
1.742840
1.923442
2.411604
8.609891
29.471517
98.509789
194.793940
399.695039
610.336661
901.805758
1015.906930
1015.906930
1015.906930
1005.805731
831.638575
542.487502
350.022912
174.145699
94.484687
36.600828
19.305944
20.255446
27.052760
43.149590
58.229566
84.241629
100.550652
121.418834
128.363967
126.295686
120.506883
99.989772
83.056688
61.245561
45.904517
30.959845
24.632812
19.755960
19.439459
20.474792
21.418929
22.980571
23.145676
25.678873
26.610494
29.732585
31.623840
33.985972
35.395622
35.455823
34.614801
34.977794
32.817721
32.946467
32.565594
33.857822
33.869743
35.204887
35.052896
35.542846
34.675598
34.296513
33.054948
31.669736
30.484796
29.606819
28.941631
##ZVALUE=305
0.761747
0.838637
0.959635
0.846982
0.859499
0.838637
0.800490
0.832677
0.752807
0.867844
0.801682
0.778437
0.802875
0.696778
0.906587
0.958443
1.037717
0.923872
0.978708
0.943542
1.000762
0.932813
1.097918
1.206994
1.255870
1.196861
1.276731
1.269579
1.569986
1.361966
1.655817
1.990795
1.788735
2.122521
3.466606
19.952655
55.756569
156.859756
285.425782
525.717735
745.058656
998.549461
1015.906930
1015.906930
1015.906930
882.916451
676.797628
420.278907
256.765485
114.339590
57.088733
21.613836
14.894605
18.227696
25.582910
41.583776
57.868958
79.965591
95.588565
113.962889
120.773911
119.936466
112.337470
95.225573
79.408884
59.554577
46.458840
32.760501
27.494431
23.717880
21.960735
22.753477
23.384690
24.951696
26.743412
30.254722
31.322837
32.732487
32.693744
33.250451
32.595992
31.666756
31.562448
31.581521
31.742454
33.404827
33.648610
34.263730
34.310818
34.349561
32.978654
31.975508
31.262636
30.274987
29.577613
28.367639
##ZVALUE=310
0.752807
0.822544
0.850558
0.808835
0.975728
0.958443
0.831485
0.797510
0.763535
0.753999
0.921488
0.801682
0.912547
0.901818
1.006722
0.915527
1.028776
0.855923
0.898838
0.994802
0.882745
0.879765
0.822544
0.988841
1.053810
1.126528
1.141429
1.215935
1.244545
1.354814
1.330972
1.383424
1.556873
1.596808
1.933575
1.886487
2.349615
8.794665
28.822422
95.401406
189.038515
386.536717
596.277714
890.105963
1015.906930
1015.906930
1015.906930
1015.906930
858.992934
572.826862
378.364921
184.096694
96.578002
35.454631
17.235875
12.597442
16.026497
23.705959
33.363700
51.544905
67.167878
90.107918
102.800727
114.088655
115.664601
109.299421
99.129677
81.905723
65.303445
47.547817
38.871765
30.472875
27.113557
25.721788
26.758909
28.841496
30.283928
31.923652
32.585859
32.962561
32.272935
30.362606
30.435920
30.862689
31.107664
31.879544
32.209754
33.578873
34.441948
33.676624
33.479929
31.854510
30.893683
28.866529
28.676987
27.688742
##ZVALUE=315
0.694990
0.861883
0.725985
0.759959
0.725985
0.836849
0.696778
0.805855
0.706911
0.719428
0.771880
0.875592
0.958443
0.800490
0.800490
0.798702
0.900626
0.861883
0.786781
0.861883
0.871420
0.918508
0.914931
0.891685
0.983477
1.151562
1.054406
1.322627
1.199841
1.448989
1.384616
1.281500
1.414418
1.387596
1.322627
1.549721
1.761913
1.736879
2.022982
4.055500
14.904737
61.067939
132.998824
296.045542
479.254723
768.720508
955.292583
1015.904546
1015.904546
1015.904546
930.351019
667.928457
469.107628
247.011781
132.584572
48.451424
21.113753
11.302829
11.285543
14.811754
20.555854
32.250881
45.822859
65.920949
82.118511
99.342465
109.894872
113.226771
108.260512
93.980432
80.863833
61.875582
49.844980
36.798716
30.636787
27.729869
27.031898
26.729703
27.032495
26.294589
25.409460
24.720430
24.491549
23.675561
24.430752
24.384856
24.953485
25.751591
25.631785
25.448799
24.676919
23.597479
23.423433
21.806955
21.081567
20.641685
##ZVALUE=320
0.757575
0.644922
0.754595
0.792742
0.558496
0.716448
0.680685
0.678897
0.667572
0.693798
0.574589
0.733733
0.846982
0.777841
0.794530
0.859499
0.719428
0.904799
0.744462
0.697970
0.763535
0.773668
0.850558
0.903606
0.883937
0.774860
0.923872
1.052618
0.895858
0.913739
1.096725
1.142621
1.093745
1.035929
1.264811
1.340508
1.349449
1.556873
1.588464
1.668930
1.702905
2.259612
8.844733
28.764606
99.157691
196.025968
388.849974
566.819906
829.069018
992.324948
1015.906930
1015.906930
967.182517
790.292621
527.316928
343.564749
158.029795
82.168579
31.511784
14.721751
9.301901
9.947419
12.988448
17.775893
28.660893
40.609837
59.936643
75.398684
93.550682
102.031827
103.735924
98.367929
84.731579
71.143508
52.258968
40.688515
27.481914
21.423697
15.246868
12.958646
11.154413
10.988712
10.845661
10.555983
10.252595
10.049939
10.328889
10.137558
10.324717
10.253787
10.357499
9.947419
9.529591
9.671450
8.959770
9.057522
##ZVALUE=325
0.712872
0.586510
0.653863
0.756979
0.628829
0.726581
0.711679
0.643730
0.797510
0.758767
0.784993
0.688434
0.759959
0.827909
0.685453
0.788569
0.790954
0.735521
0.809431
0.617504
0.639558
0.822544
0.830889
0.897646
0.718832
0.908971
0.948906
0.939965
0.964999
0.875592
0.988841
0.922680
0.944734
1.075864
1.049638
1.338720
1.238585
1.293421
1.288652
1.293421
1.355410
1.637936
1.705885
1.996756
3.720522
22.839904
59.691668
153.887868
274.182558
504.627824
696.149468
929.189920
1015.906930
1015.906930
1005.426645
798.903704
606.819987
375.359654
226.366520
97.554922
47.049522
15.634894
9.069443
8.503795
8.770823
12.215972
16.886592
27.298927
39.236546
58.192611
70.876479
86.346865
93.128681
94.636679
89.185834
76.281428
62.505603
46.122670
34.319758
21.934509
15.769601
10.499954
9.034872
7.755756
7.566810
7.160902
7.268786
7.265806
7.418990
7.067919
7.123947
7.052422
6.903410
6.879568
6.826520
6.719828
##ZVALUE=330
0.621676
0.698566
0.639558
0.623465
0.633597
0.550747
0.688434
0.651479
0.761747
0.508428
0.659823
0.751615
0.621676
0.648499
0.616908
0.633597
0.727773
0.768900
0.804663
0.680685
0.906587
0.770688
0.696778
0.826716
0.852942
0.794530
0.647902
0.852942
0.943542
0.945926
0.965595
1.031756
0.988841
0.945926
1.017451
1.056790
0.977516
1.010895
1.192689
1.213551
1.311898
1.321435
1.387596
1.369715
1.657605
1.711845
2.484918
7.395744
38.052797
90.041757
216.986537
360.279679
607.223511
793.372989
983.894467
1015.906930
1010.844707
903.300643
681.535602
497.604609
276.310444
158.262849
65.689683
28.974414
10.131598
7.564425
7.568598
8.309484
11.678934
16.484857
26.641488
36.653876
52.106977
65.618753
80.606937
87.782741
87.608695
83.175898
70.223808
58.370829
42.348504
32.108426
20.956993
15.552640
10.778904
8.886456
7.745624
7.212758
6.920695
6.855726
6.488562
6.873608
6.389618
6.582737
6.586909
6.392598
##ZVALUE=335
0.497699
0.580549
0.591874
0.472665
0.513792
0.688434
0.656843
0.667572
0.848770
0.641942
0.527501
0.640750
0.753999
0.715852
0.590682
0.877976
0.668764
0.591874
0.654459
0.651479
0.655651
0.710487
0.753999
0.639558
0.739694
0.763535
0.799894
0.727773
0.772476
0.730753
0.906587
0.991821
0.867844
1.063943
0.869632
0.826716
0.844598
1.014471
1.044869
1.068711
1.066923
1.148582
1.278520
1.479983
1.319647
1.509786
1.490712
1.594424
1.668930
4.455447
15.976429
63.221455
133.099556
291.644931
466.229916
725.036860
892.173648
1015.906930
1015.906930
924.812555
771.374702
531.152487
359.537005
187.258720
98.911524
34.001470
14.634728
7.864833
7.299781
7.050633
8.035898
11.008978
15.072823
24.583936
34.196973
50.646663
63.054562
75.434446
81.221461
82.629919
77.162981
65.597892
54.874420
42.052865
32.499433
21.670461
15.903711
10.428429
8.560419
7.284880
6.663799
6.689429
6.180406
6.164908
5.871654
6.001592
##ZVALUE=340
0.661612
0.663996
0.746846
0.638962
0.702739
0.695586
0.710487
0.642538
0.642538
0.619888
0.463724
0.645518
0.607967
0.585914
0.697970
0.703931
0.660419
0.515580
0.623465
0.594854
0.778437
0.669956
0.851750
0.717640
0.851750
0.634789
0.719428
0.813603
0.635982
0.808835
0.526905
0.775456
0.792742
0.868440
0.895858
0.983477
0.958443
0.851750
0.924468
1.124740
0.877976
0.922680
0.957847
1.047850
1.185536
1.236796
1.267791
1.362562
1.426935
1.691580
1.593828
2.509952
7.844567
38.232803
94.526410
230.601430
383.763909
616.917610
798.577666
971.285701
1015.904546
957.098007
831.231475
610.022545
428.355932
222.916603
123.812556
50.340891
21.011829
8.014441
7.045865
6.772876
6.999969
7.867813
10.021925
15.358925
21.841526
34.283996
44.589639
60.752630
70.232749
77.041984
77.036619
72.382689
64.452887
51.683784
41.838884
29.446483
21.484494
14.694929
10.450482
8.016825
6.734729
6.301999
6.087422
5.764961
##ZVALUE=345
0.487566
0.553727
0.362992
0.637770
0.528693
0.621676
0.552535
0.512600
0.587702
0.569820
0.550747
0.565648
0.726581
0.653863
0.537634
0.478625
0.519753
0.595450
0.535846
0.593662
0.513792
0.753999
0.717640
0.597835
0.548959
0.788569
0.693798
0.623465
0.744462
0.771880
0.799894
0.668764
0.763535
0.696778
0.925660
0.854731
0.944734
0.770688
0.929832
0.836849
0.911951
0.870824
0.965595
0.878572
1.093745
1.119971
1.118779
1.271963
1.148582
1.092553
1.338720
1.471639
1.361966
1.698732
3.490448
21.572709
59.622526
156.402588
276.478529
498.530865
678.457618
883.221626
975.603461
978.778005
890.110731
678.090453
502.172709
297.358632
167.151690
65.516829
29.977560
10.698438
7.358789
6.901622
6.691813
6.510615
7.260442
9.285808
12.826920
21.302700
29.946566
43.229461
53.176880
62.776804
68.329573
70.668459
68.689585
59.946775
51.553845
39.652586
30.526519
20.403862
15.110970
10.548830
8.157492
6.606579
##ZVALUE=350
0.540614
0.627637
0.556707
0.532866
0.508428
0.606775
0.570416
0.514984
0.544786
0.565648
0.547767
0.560880
0.596642
0.578761
0.559688
0.625849
0.702739
0.793934
0.623465
0.638962
0.746846
0.798702
0.627637
0.627637
0.571609
0.515580
0.621676
0.637770
0.687838
0.637770
0.619888
0.674725
0.774860
0.765920
0.673532
0.887513
0.936985
0.932813
0.805855
0.883937
0.814795
0.895858
0.883937
0.829697
0.731945
1.044869
0.930429
0.993609
1.033545
0.914931
1.141429
1.095533
1.209974
1.529455
1.356602
1.563430
2.213717
10.434985
33.603907
106.631517
202.070475
394.636989
570.417643
786.815882
915.035605
979.029536
921.414495
755.510926
578.033924
342.085958
208.641887
94.807744
44.250488
13.763905
7.327795
6.432533
6.010532
5.946755
5.811453
6.445646
8.289814
13.194680
17.810464
26.736856
34.773946
46.724677
55.569410
63.361526
65.521598
63.305497
57.997704
47.798753
38.732886
27.481914
20.730495
13.933778
##ZVALUE=355
0.583529
0.533462
0.480413
0.623465
0.582933
0.517964
0.613928
0.674725
0.519753
0.640750
0.510812
0.580549
0.516772
0.521541
0.612736
0.676513
0.692606
0.553727
0.760555
0.669956
0.711679
0.562668
0.719428
0.637770
0.703931
0.733733
0.681877
0.650883
0.604987
0.761747
0.714660
0.958443
0.729561
0.814795
0.755787
0.713468
0.856519
0.702739
0.930429
0.782609
0.659823
0.991821
0.927448
0.868440
1.015663
0.958443
1.017451
0.924468
0.991821
1.007915
1.102686
1.073480
1.132488
1.188517
1.318455
1.339912
1.492500
1.714826
1.885891
5.162954
17.676950
69.296956
142.856836
295.952559
467.615724
713.781714
863.422751
963.590741
954.513550
807.615519
645.012856
413.620472
255.913734
113.584995
55.184960
19.375682
8.938909
6.154776
5.734563
5.502701
5.389452
5.472898
5.930662
7.697940
10.177493
15.682578
22.105575
31.805634
40.148497
49.831867
56.085587
58.992505
58.843493
52.280426
45.238733
35.828948
##ZVALUE=360
0.490546
0.488758
0.684857
0.673532
0.560880
0.610948
0.641942
0.602603
0.596642
0.544786
0.672936
0.575781
0.742674
0.678897
0.626445
0.540614
0.721812
0.681877
0.599623
0.636578
0.611544
0.628829
0.566840
0.676513
0.638962
0.592470
0.669956
0.711679
0.742674
0.723600
0.878572
0.869632
0.725985
0.657439
0.829697
0.653863
0.765920
0.722408
0.958443
0.922680
0.748634
0.672936
0.853539
0.769496
0.902414
0.778437
0.949502
0.822544
0.927448
0.932813
1.068711
0.947714
1.160502
1.107454
1.119971
1.166463
1.024604
1.351833
1.440644
1.353621
1.716614
2.707839
7.710457
35.597682
86.755753
217.286944
360.554457
579.663515
756.950974
923.131704
958.346725
885.742903
751.931667
517.589450
347.770452
171.086788
89.616776
32.769442
12.937784
6.146431
5.345941
5.209446
4.759431
4.682541
4.820824
5.112886
5.870461
8.506775
12.122989
18.336773
25.079846
35.097599
42.015910
49.447417
52.196980
53.165555
##ZVALUE=365
0.587702
0.544786
0.485778
0.545979
0.540614
0.713468
0.689626
0.592470
0.631809
0.708699
0.566840
0.785589
0.598431
0.495911
0.600815
0.691414
0.480413
0.782609
0.655651
0.645518
0.537634
0.642538
0.745654
0.752807
0.695586
0.743866
0.571609
0.706911
0.755787
0.581741
0.844598
0.777841
0.710487
0.713468
0.930429
0.718832
0.642538
0.735521
0.732541
0.902414
0.820756
0.760555
0.857711
0.921488
0.809431
0.894666
0.802875
0.920892
0.743866
0.967979
0.872612
0.944734
1.095533
0.974536
1.077652
0.979900
0.920892
1.159906
1.204610
1.232624
1.544952
1.407862
1.653433
1.983643
3.855824
20.086765
53.763986
142.719746
263.406634
487.007499
663.665533
850.719810
935.470462
916.833878
803.560019
593.918562
426.509976
243.209600
136.682987
51.637888
20.368695
6.326437
4.980564
4.812479
4.852414
4.494786
4.208684
4.305840
4.621744
5.409718
6.767511
10.863543
14.746785
22.801757
29.277802
37.382841
##ZVALUE=370
0.604987
0.744462
0.615716
0.627637
0.694990
0.411868
0.557899
0.587702
0.487566
0.536442
0.655651
0.694990
0.549555
0.731945
0.673532
0.698566
0.598431
0.705719
0.521541
0.623465
0.612736
0.574589
0.558496
0.565648
0.503659
0.641942
0.617504
0.530481
0.660419
0.677705
0.643730
0.680685
0.882745
0.668764
0.679493
0.696778
0.767708
0.619888
0.759959
0.795722
0.685453
0.877976
0.800490
0.794530
0.878572
0.846982
0.919700
0.878572
0.829697
0.890493
0.847578
0.925660
0.898838
0.946522
0.964999
0.906587
1.129508
0.986457
1.190901
1.106858
1.269579
1.382828
1.357794
1.407862
1.480579
1.758933
2.165437
10.197759
33.074617
107.945800
201.714635
381.323695
557.534695
785.836577
900.630951
929.804444
853.359699
668.051839
495.489836
280.257463
159.661770
63.561797
28.501749
9.133816
5.352497
4.561543
4.565716
4.219413
3.981590
3.870726
3.830791
3.964901
4.594922
6.056428
8.523464
12.942553
##ZVALUE=375
0.604987
0.606775
0.618696
0.662804
0.757575
0.624657
0.642538
0.702739
0.672936
0.779629
0.580549
0.613928
0.533462
0.653863
0.642538
0.690818
0.646710
0.671744
0.753999
0.804663
0.652671
0.644922
0.759959
0.607967
0.810623
0.730753
0.857711
0.825524
0.874996
0.889897
0.882745
0.959635
1.052618
0.969768
1.050830
0.982881
1.116991
1.078844
1.050830
0.941753
1.022816
1.093745
0.986457
1.018643
1.133680
1.158714
0.968575
1.100898
1.008511
1.018643
1.096725
0.970960
0.916719
1.068711
1.075864
1.004934
0.929832
1.066923
1.051426
1.131892
1.151562
1.256466
1.210570
1.275539
1.152754
1.379848
1.468658
1.871586
1.983643
5.320907
17.466545
62.686801
134.971738
298.582911
462.939739
697.277784
842.646956
949.193835
938.246846
790.029764
616.157651
376.566648
236.474872
113.506913
54.622889
17.129779
7.314682
4.774928
4.312992
4.053712
4.025698
3.785491
3.889799
3.638864
3.794432
4.203916
##ZVALUE=380
0.628829
0.587702
0.527501
0.629425
0.632405
0.743866
0.590682
0.671744
0.653863
0.632405
0.669956
0.598431
0.621676
0.611544
0.652671
0.593662
0.599623
0.744462
0.618696
0.780821
0.727773
0.724792
0.710487
0.729561
0.711679
0.811815
0.825524
0.972748
1.083612
1.232624
1.197457
1.187921
1.487732
1.462698
1.577735
1.573563
1.588464
1.539588
1.504421
1.552701
1.523495
1.401901
1.572967
1.434684
1.412630
1.320839
1.233816
1.205802
1.113415
1.135468
1.219511
1.172423
1.242757
1.226664
1.252890
1.145601
1.192689
1.072884
1.101494
1.115799
1.113415
1.327991
1.161695
1.314878
1.361966
1.328588
1.460910
1.448989
1.474619
1.820922
1.812577
3.113747
9.593964
44.073462
102.495551
240.168571
383.929610
599.007607
760.651827
904.268026
920.913815
811.840892
676.067472
475.460887
319.039822
156.061649
77.267885
25.956631
10.764599
5.010962
4.180670
3.958941
3.787875
3.752708
3.676414
3.512502
##ZVALUE=385
0.516772
0.444651
0.459552
0.312924
0.728965
0.607967
0.531673
0.526905
0.507832
0.551939
0.492930
0.477433
0.450611
0.482798
0.522733
0.568628
0.525713
0.563860
0.458956
0.625849
0.651479
0.542998
0.616908
0.572801
0.770688
0.820756
0.939965
1.322627
1.521707
1.660585
1.961589
2.337694
2.395511
2.694726
2.765656
2.693534
2.852678
2.683997
2.888441
2.581477
2.544522
2.429485
2.505779
2.244711
2.080798
1.905560
1.816750
1.744628
1.744628
1.639724
1.789927
1.666546
1.386404
1.384616
1.493692
1.462698
1.308918
1.138449
1.234412
1.350641
1.305938
1.263618
1.125932
1.161695
1.298785
1.231432
1.166463
1.194477
1.337528
1.289845
1.580715
1.648664
1.787543
2.079606
4.486442
25.136471
63.985586
162.027478
286.957622
505.721569
670.232773
843.190551
898.070931
868.519545
775.083899
582.396984
419.048667
228.567719
127.594471
51.600933
20.323992
5.852580
4.185438
3.898740
3.620982
3.566742
##ZVALUE=390
0.563860
0.713468
0.485778
0.526905
0.413656
0.528693
0.474453
0.507832
0.620484
0.568628
0.426769
0.613928
0.340939
0.520945
0.556707
0.652671
0.486970
0.570416
0.609756
0.623465
0.481606
0.571609
0.658631
0.643730
0.953674
1.118779
1.341701
1.801848
2.117753
2.648830
3.078580
3.713965
3.853440
4.304647
4.362464
4.692674
4.468560
4.443526
4.369617
4.231930
4.163980
3.823638
3.781915
3.693700
3.428459
3.230572
2.862811
2.700686
2.738833
2.319813
2.400875
2.253652
2.051592
1.785755
1.955628
1.751781
1.815557
1.822710
1.746416
1.554489
1.463890
1.456738
1.399517
1.371503
1.459718
1.324415
1.129508
1.292825
1.537800
1.574755
1.652837
1.656413
1.614690
1.647472
1.617670
1.869798
2.741814
13.260841
40.442944
121.207833
226.182938
424.558520
584.927797
766.685009
861.981511
889.146924
829.546452
686.423779
531.258583
313.438773
181.819797
73.644519
33.028722
10.330677
4.735589
3.824830
##ZVALUE=395
0.473857
0.638962
0.658631
0.542998
0.644922
0.598431
0.534654
0.534654
0.560880
0.478625
0.457764
0.473857
0.572801
0.550747
0.445843
0.490546
0.631809
0.525713
0.465512
0.435710
0.559688
0.680685
0.677705
0.676513
0.918508
1.107454
1.640916
2.126694
2.792478
3.476739
4.171729
4.753470
5.255938
5.964637
6.115437
6.116629
6.189942
6.243587
6.098747
5.728602
5.555749
5.347729
5.223751
4.751682
4.516840
4.173517
3.974438
3.582835
3.381968
2.937913
2.805591
2.611876
2.692938
2.467632
2.276897
2.047420
2.081990
1.928806
1.838803
1.659989
1.605749
1.598597
1.622438
1.408458
1.404881
1.266599
1.369715
1.381636
1.450777
1.471639
1.382828
1.400709
1.464486
1.601577
1.314878
1.635551
1.571774
1.843572
1.976490
7.551908
26.355982
90.039968
171.231627
320.726633
473.044515
685.261488
812.300444
902.922750
881.949663
760.372877
608.962774
387.341976
244.364738
108.537674
51.229596
15.871525
##ZVALUE=400
0.674725
0.691414
0.466704
0.454783
0.484586
0.656843
0.468493
0.422597
0.432730
0.478625
0.452995
0.573993
0.491738
0.525713
0.441670
0.454783
0.453591
0.519753
0.483990
0.494719
0.645518
0.290871
0.596642
0.710487
0.918508
1.208782
1.740456
2.332926
3.037453
3.948808
4.712939
5.316734
6.097555
6.486773
6.753802
6.891489
7.035732
7.019639
6.742477
6.798506
6.510615
6.037951
5.729795
5.384684
5.148649
4.705787
4.354715
4.146695
3.791451
3.416538
3.245473
2.876520
2.560616
2.743602
2.329946
2.278686
2.253652
1.845956
1.922846
1.967549
1.627803
1.600981
1.678467
1.481771
1.460910
1.692772
1.460910
1.716614
1.399517
1.523495
1.410842
1.613498
1.571774
1.410842
1.376867
1.344681
1.361966
1.457930
1.482964
1.467466
1.611710
3.252625
15.521646
44.532418
128.201842
233.178735
432.578921
594.288707
787.611008
876.607895
881.613493
807.850957
630.592704
471.944809
278.663635
170.639753
##END
