##TITLE=FDDW01
##FORMAT=SPECTACLE-ASCII V-1.2
##DATA TYPE=ULTRAVIOLET SPECTRUM
##SECOND TYPE=ULTRAVIOLET SPECTRUM
##DATE=03/05/18
##TIME=12:21:17
##SPECTROMETER/DATA SYSTEM=SPECTACLE
##XUNITS=NM EM
##YUNITS=ENERGY
##YFACTOR=1
##FIRSTX=220
##LASTX=410
##NPOINTS=96
##3DDATA=Equidistant
##ZUNITS=NM EX
##FIRSTZ=210
##LASTZ=400
##ZPOINTS=39
##XYDATA=(Y..Y)
##ZVALUE=210
17.147660
16.130805
14.076829
11.282563
11.929870
10.751486
8.813739
7.916689
6.309748
4.813671
3.240705
2.936721
2.883673
2.147555
1.868606
2.084970
2.328753
2.554655
2.253652
2.371669
2.189875
2.902746
3.294945
3.210902
3.603697
4.093647
4.986525
5.348921
6.944537
6.709695
8.917451
10.591745
10.680556
12.178421
11.932850
11.795759
12.211800
12.901425
12.746453
11.686683
10.883808
11.792779
11.370778
11.217594
10.586977
10.234714
9.397864
9.306669
8.501410
8.903742
8.821487
7.830858
7.401705
7.610917
8.140802
7.383823
7.566810
6.592870
6.800890
6.840825
6.807446
6.328821
7.160902
6.144643
6.964803
6.454587
6.474853
7.217526
7.645488
8.747578
9.854436
10.808706
12.709498
14.273524
15.115738
15.954971
18.819571
17.198920
16.064644
15.089512
13.969541
11.790991
10.968447
9.430647
7.057786
6.006956
5.895495
5.971789
6.911755
8.590817
10.169744
14.071465
19.695759
23.439527
30.430555
32.642484
##ZVALUE=215
46.786666
43.581724
36.061406
25.854707
21.410584
20.928979
18.513799
16.016960
14.934540
14.941692
12.200475
7.709861
6.205440
4.729629
3.828406
3.082752
2.498627
2.271533
3.437996
2.797842
3.057718
2.820492
3.317595
3.452897
4.509687
4.754663
5.738735
7.032752
7.645488
9.165406
9.608865
10.261536
11.746883
13.472438
14.603734
15.496612
15.120506
13.962984
14.402866
15.127659
12.732744
13.205409
13.398528
13.570786
11.586547
12.097955
10.662675
10.889769
10.447502
10.380745
8.102655
9.066463
8.229613
7.926822
8.658767
6.643534
7.078648
7.517934
7.329583
8.150935
7.113814
6.722808
6.494522
7.022619
7.333755
6.005764
6.340742
7.079840
6.977916
7.796884
10.032654
9.131432
10.063648
11.096597
9.732842
10.714531
10.734797
10.451674
10.127425
10.658503
8.509755
9.801984
7.922649
6.678700
6.770492
6.882548
6.309748
4.925728
5.491972
5.199909
4.765987
5.165935
5.099773
6.340742
7.745624
12.631416
##ZVALUE=220
96.429586
91.652870
86.274743
75.695515
63.232780
45.504570
35.527945
28.693676
27.026534
26.164651
24.954677
23.779869
21.133423
19.098520
14.258623
10.260940
6.425977
4.842877
4.219413
3.593564
2.699494
3.094673
3.465414
3.820658
4.621744
3.854632
4.923940
6.978512
7.217526
9.249449
10.226965
12.631416
14.026761
15.516877
17.833710
17.288923
16.556978
16.737580
16.606450
17.774701
16.913414
14.443994
16.127825
15.313625
13.202429
13.340712
13.309717
12.930632
12.196898
11.816621
11.604428
11.331439
11.047721
10.004640
9.793639
9.890795
9.561777
9.460449
10.179877
7.434487
8.386970
7.805824
7.939935
8.472800
8.570552
7.859468
8.248687
8.409619
8.082986
7.714629
8.835793
10.570884
11.066794
11.073947
12.290478
11.789799
11.453629
10.838509
9.921789
11.649728
8.629560
8.530617
7.982850
6.481409
6.607771
5.631447
6.344914
5.915761
5.845428
4.554987
5.186796
5.281568
4.672408
4.843473
5.146861
4.519820
##ZVALUE=225
113.254786
121.048689
137.174726
156.908631
155.139565
141.470432
113.876462
83.267689
65.868497
50.044656
39.910674
42.134523
40.562749
41.814446
37.609935
31.270981
26.208758
21.925569
13.511777
8.629560
5.755424
4.180670
4.154444
3.860593
3.960729
4.865527
5.599856
6.847978
8.999705
9.810925
11.556745
13.329983
14.427900
15.067458
16.627908
15.901923
17.531514
17.233491
17.172694
17.296672
17.016530
15.602708
14.041662
15.433431
14.273524
14.274716
13.323426
13.241768
12.008548
11.495948
12.021661
11.707544
10.183454
11.618733
10.674000
10.350943
10.035634
10.230541
9.273887
9.921789
9.522438
8.575916
9.279847
8.835793
8.868575
8.296967
7.683635
9.871721
9.835958
9.387732
9.345412
10.507703
10.791421
9.046793
10.218620
10.042787
9.940863
9.936690
9.831786
7.771850
8.265972
7.091761
6.817579
6.479621
6.765723
6.290674
6.038547
4.897714
4.934669
5.337000
4.664660
5.000830
4.454851
4.714727
5.035996
4.402995
##ZVALUE=230
80.894828
87.017417
124.504566
181.438923
211.125612
230.548978
233.576894
210.399628
180.482864
149.036646
98.414421
74.076653
62.465668
58.091879
62.914491
62.348843
64.418912
59.364438
53.689480
38.408637
30.499697
18.614531
11.204481
6.156564
6.181598
4.176497
5.435944
6.371737
6.977916
8.659959
8.892417
9.222627
10.713935
11.640787
12.559891
12.200475
14.171600
13.353825
13.206601
13.772845
12.217760
14.726520
13.368726
13.647676
12.817979
12.986660
12.360811
10.947585
12.298822
11.547804
9.965897
11.935830
10.906458
10.016561
10.416508
9.575486
10.276437
10.822415
9.175539
8.740425
9.645820
9.739995
8.985996
8.903742
8.597970
9.685755
7.794499
7.875562
9.464622
8.424520
10.420680
10.230541
11.324883
10.073781
10.961890
9.359717
9.463429
10.852814
9.679794
9.481907
8.863807
8.578897
8.386970
7.723570
6.356835
5.829930
6.922483
6.031990
5.450845
5.696416
4.817843
5.503893
4.927516
4.795790
5.998611
5.037785
##ZVALUE=235
26.577711
30.148625
59.330463
115.604997
171.019435
244.332552
295.889974
351.024866
362.941623
352.380872
294.246674
237.956643
162.370801
120.819807
95.345974
85.187554
83.811879
90.468526
95.578432
93.776584
87.085962
70.290565
57.118535
38.053989
24.643540
14.897585
9.505749
7.193685
5.739927
5.695820
6.911755
7.351637
7.671714
7.865429
8.536577
8.749962
10.035634
9.989738
10.229945
10.686517
10.915995
9.750724
11.102557
10.619760
10.619760
9.175539
9.960532
10.407567
10.017753
9.603500
9.697676
9.276867
9.484887
10.431409
8.941889
8.488894
8.892417
10.259748
8.833408
8.135438
10.195971
10.671616
9.486675
8.643866
9.122491
9.153485
8.378625
9.062886
8.827448
9.318590
10.333657
10.524988
10.845661
11.437535
11.640787
12.292862
11.409521
11.528730
10.761619
10.990500
10.254979
9.046793
8.109808
8.122921
8.124709
6.845593
6.721616
6.978512
6.359816
6.224513
7.062554
7.387996
5.739927
5.706549
6.068945
6.094575
##ZVALUE=240
2.219677
2.148747
9.091496
22.930503
59.632659
104.214549
199.287534
274.931788
379.564762
442.867875
475.869775
453.723669
413.279533
324.788690
254.144669
169.195533
124.544501
99.036694
96.112490
101.273656
107.387900
116.374493
113.488436
98.247528
76.133609
62.202811
42.165518
28.894544
16.878843
11.187792
8.087754
6.696582
7.233620
7.174611
6.484985
7.320642
6.782413
7.489920
7.581711
7.562637
7.383823
7.341504
8.562803
8.616447
8.363724
7.849932
8.588433
8.585453
8.148551
8.780956
8.271933
8.183718
8.328557
7.783771
7.946491
7.781982
8.334517
8.040667
7.338524
9.007454
8.869767
8.224845
8.556843
7.792711
6.965995
8.505583
7.989407
9.333491
8.616447
9.956956
9.471774
9.970665
10.589957
10.167956
9.868741
11.079907
10.224581
11.312962
10.058880
10.080934
8.870959
8.400679
7.687807
8.037686
7.404685
7.582903
6.527901
6.834865
6.398559
6.053448
6.035566
5.718470
5.599856
6.713867
5.962849
6.775856
##ZVALUE=245
1.132488
1.159906
1.331568
1.418591
4.571676
13.338923
45.899749
92.222691
193.184614
276.687741
391.891003
479.106903
517.560840
529.892445
495.476723
410.544872
329.942703
224.675536
160.988569
107.722878
93.976855
94.704628
108.549595
115.881562
122.528672
120.731592
104.224682
88.362694
62.600970
47.255754
33.876896
20.229816
12.938976
7.457733
7.691979
6.980896
6.342530
6.224513
7.019639
7.894635
7.431507
7.760525
8.091927
8.077621
7.801652
8.505583
7.692575
8.133650
8.015633
7.412434
7.307529
7.290840
7.715821
7.120967
7.067919
7.411838
8.092523
7.547736
6.652474
6.812811
7.036924
6.865859
6.555915
7.252693
6.782413
6.921887
6.739497
7.108450
6.287694
8.095503
7.953644
8.258820
9.474754
9.765625
9.754896
9.131432
9.749532
8.526444
7.947683
7.854700
6.993413
6.860495
6.964803
6.475449
6.248951
6.219745
5.805492
5.673766
5.645752
6.159544
5.506873
5.847812
5.461574
5.501509
5.067587
4.702806
##ZVALUE=250
1.061559
1.269579
1.062751
1.332760
1.459718
1.578927
2.228618
9.888411
30.901432
80.430508
154.497623
264.111757
431.407690
553.407669
682.965517
737.956762
711.342692
648.213625
506.760478
372.864008
228.322744
151.665807
100.558996
88.908672
101.346970
115.271807
125.666857
131.068826
128.050447
112.474561
94.526410
69.967508
52.225590
32.551885
21.915436
12.850761
10.044575
8.992553
9.044409
9.022951
8.999705
8.754730
8.647442
9.289980
8.808970
9.280443
7.810593
8.558631
9.173751
8.194447
8.722544
8.196831
7.827878
9.010434
8.099675
7.796884
7.912517
7.119775
7.889867
7.754564
7.674694
7.434487
6.906986
7.439852
7.422566
7.301569
6.755590
7.441640
7.436872
8.333921
7.967949
7.923841
8.582473
9.060502
8.637905
7.687807
9.037852
7.696748
7.166862
7.000566
6.960630
6.095767
6.933808
6.138682
6.308556
6.179810
6.149411
4.788637
5.663633
6.058812
5.498528
4.866719
5.080700
5.189776
5.237460
4.877448
##ZVALUE=255
1.263618
1.294613
0.993609
1.268983
1.252890
1.249909
1.547933
1.826882
1.691580
4.249811
22.590756
53.712726
112.289786
246.180892
388.893485
589.062572
728.676915
857.667923
881.826878
797.829032
670.288801
521.845818
311.986804
197.728872
111.702681
87.332726
85.936785
98.413825
118.435621
131.938457
139.998794
135.897994
123.021603
100.546479
81.009865
56.837797
37.848949
23.048520
17.601848
12.804866
11.468530
11.634827
11.807680
10.881424
10.794997
11.022687
10.619760
9.391904
10.483861
9.931922
10.851622
9.093881
9.421706
8.745790
8.771420
8.444786
8.024573
9.397864
7.956624
7.218719
7.841587
6.978512
7.850528
7.537603
7.005930
7.468462
7.205606
7.024407
7.084608
7.402897
7.203817
7.610917
8.036494
9.217858
8.361936
8.561611
7.704496
7.594824
7.264614
7.150769
6.608963
6.641746
6.184578
5.719662
5.175471
5.371571
5.439520
5.323887
5.563498
4.979968
4.809499
5.183816
5.048513
4.741549
4.804730
4.815459
##ZVALUE=260
0.928640
1.098514
1.211762
1.040697
0.976920
1.134872
0.919700
1.130700
1.490712
1.664758
1.512766
2.519488
7.896423
34.444928
74.472427
174.956918
284.845829
458.703637
587.814450
748.256445
804.948807
802.055001
691.978931
564.785004
371.724963
254.334807
144.717693
96.781850
73.553920
80.286860
96.424818
123.392940
137.158632
147.069693
143.425465
124.037862
108.401775
82.628727
61.290860
41.987896
30.212998
19.938946
15.399456
14.877915
13.194680
12.639761
12.336969
11.762977
11.926889
11.823773
11.747479
11.233687
9.854436
9.922981
9.780526
9.186864
9.413958
8.813739
9.419918
8.865595
8.406639
8.743405
7.649660
7.181764
7.969737
7.322431
7.559657
7.075667
7.512569
7.192492
7.773638
7.550716
7.931590
8.105636
7.462502
7.474422
7.621646
6.632805
6.185770
6.128550
5.762577
5.739927
5.675554
5.091429
5.739927
4.796982
4.820824
5.112886
4.305840
4.452467
4.591942
4.546642
4.205704
4.110932
4.333854
4.427433
##ZVALUE=265
0.758767
0.593662
0.850558
0.808835
0.943542
0.908971
1.150966
1.102686
1.179576
1.327991
1.144409
1.104474
1.328588
1.522899
4.554987
21.412969
53.083897
127.488971
252.237916
379.401445
582.198501
644.655824
746.591687
746.683478
611.959696
539.359450
352.418423
290.708542
135.455728
111.590624
68.729520
66.161752
96.949935
106.780529
146.986842
146.071911
146.330595
148.750544
130.984783
111.281872
69.176555
62.772632
33.451915
28.884411
16.577840
16.251802
14.039874
13.501644
12.497902
12.557507
12.181997
11.342764
11.682510
10.735989
10.653734
10.134578
8.896589
9.282827
8.929968
8.628964
9.024739
8.297563
8.122921
7.427931
7.907748
7.720590
7.998943
7.788539
7.799864
7.875562
7.126927
7.786751
7.416606
7.703900
7.376671
7.059574
6.510615
6.643534
6.359816
6.447434
6.039739
5.234480
5.052686
5.141497
4.765987
4.624724
4.535913
4.632473
4.429817
4.193783
3.929734
4.059672
4.024506
4.365444
3.976822
4.141927
##ZVALUE=270
0.751615
0.780821
0.800490
0.752807
0.708699
0.979900
0.902414
0.905991
1.097918
0.830889
0.964999
1.061559
1.316667
1.249909
1.408458
1.295805
2.301931
10.445714
31.556487
92.213750
171.008706
320.366621
463.264585
607.959628
739.367008
774.064660
743.790865
667.681694
515.079498
389.611721
240.910649
153.808594
84.855556
61.722994
66.709518
84.177852
111.468434
130.526423
150.223970
153.746605
149.702430
135.712624
109.785795
88.825822
61.712861
44.312477
29.445887
22.094846
16.688704
14.167428
12.030602
12.211800
12.262464
11.355877
11.299849
10.963678
10.431409
10.614991
10.165572
9.274483
9.015799
8.964539
8.592606
8.455515
8.112788
8.057952
7.873774
7.895827
7.713437
7.958412
7.863641
7.386804
7.489920
7.915497
7.695556
7.431507
7.201433
6.675720
6.688833
6.583929
5.778670
5.831718
5.285740
5.399585
5.343556
4.533529
4.696846
4.573464
4.336834
4.415512
4.371405
4.206896
3.989935
4.564524
3.946424
4.029870
##ZVALUE=275
1.057982
0.914931
1.029968
1.124740
1.232624
0.933409
1.007915
0.947714
1.045465
0.950694
1.125932
1.260638
1.386404
1.622438
1.454949
1.383424
1.296997
1.758933
1.765490
4.886985
17.683506
49.155951
133.229494
237.008929
412.947536
541.191697
684.802532
758.130550
782.930851
730.546713
640.317798
471.915007
339.246988
186.654925
111.882687
60.241818
51.634908
63.595772
83.578825
109.107494
129.318833
146.780610
151.388645
146.411657
131.642818
103.596449
85.172653
59.847832
44.632554
28.552413
21.226406
15.276670
12.471676
11.448860
11.130571
10.764599
9.719729
10.143518
9.838939
9.513497
9.583831
9.460449
9.441972
8.876920
8.339882
8.603930
8.602738
8.068681
8.300543
8.104444
8.123517
8.070469
8.282661
8.024573
7.628798
7.585883
7.524490
6.532669
6.451607
6.314516
6.269813
5.827546
5.119443
4.890561
5.799532
5.470514
5.376935
4.446507
5.193949
4.560947
4.368424
4.374981
3.928542
4.170537
4.534721
4.186630
##ZVALUE=280
0.787973
0.635982
0.862479
0.787973
0.649691
0.630617
0.634789
0.795722
0.769496
0.804663
0.989437
0.843406
0.939965
0.938773
1.079440
0.975728
0.969768
1.137853
1.163483
1.292825
1.535416
1.956820
10.875463
34.434795
103.337765
181.220770
323.683619
453.263521
625.268817
725.656748
779.054761
767.835975
695.074797
527.247787
391.653776
228.046775
140.622854
69.205761
45.778751
43.519735
55.806637
80.254674
100.692511
126.612782
138.691664
144.633651
138.270855
122.770667
105.791688
77.775717
58.539510
37.757754
26.801825
17.540455
13.554692
9.949803
9.602904
8.463860
8.566976
8.869767
8.873940
8.473992
8.343458
8.107424
7.978678
8.148551
7.744431
7.610917
7.760525
7.686615
7.268786
7.510781
7.388592
7.513762
7.034540
6.451607
6.456971
6.152987
6.480813
5.902648
5.575418
5.414486
5.121827
4.911423
4.685521
4.735589
5.015731
3.979802
4.671812
4.148483
4.181862
4.131794
3.970861
3.968477
3.924966
3.806949
##ZVALUE=285
0.698566
0.717640
0.585914
0.678897
0.651479
0.736713
0.707507
0.688434
0.615716
0.603795
0.828505
0.860691
0.814795
0.887513
0.826716
0.870824
1.031756
1.036525
1.063943
1.115799
1.214743
1.353621
1.368523
1.461506
5.553961
17.496943
56.523681
113.164783
232.204795
355.689526
490.337610
656.111836
747.879744
789.815784
743.978024
605.954528
472.558737
297.469497
188.148618
93.546510
52.239895
31.346679
33.755898
52.014589
70.151687
99.095702
114.227533
130.566955
136.593580
132.776499
122.844577
99.678636
80.956817
56.326985
39.889812
24.128556
16.241670
11.138916
8.998513
8.082986
7.741451
7.682443
7.251501
7.141829
7.967949
7.362962
7.021427
6.998777
6.849766
7.002950
6.985664
6.924868
7.049441
6.709695
6.693602
6.195903
6.050467
5.819798
5.746484
5.513430
5.534887
5.126595
5.013943
5.000830
4.613996
4.398823
4.194975
4.241467
4.449487
4.114509
4.149675
4.140735
3.766418
3.906488
3.852844
3.717542
##ZVALUE=290
0.451803
0.573993
0.620484
0.553727
0.538826
0.621676
0.712872
0.588894
0.507832
0.680685
0.656843
0.722408
0.581741
0.551939
0.769496
0.613928
0.681877
0.752807
0.857711
0.808835
0.872612
1.172423
1.029968
1.134872
1.107454
1.459718
1.910925
7.615685
31.095743
70.574880
161.780715
264.455676
444.978476
584.398508
727.939010
786.128640
761.483908
680.875778
518.608689
386.230946
225.739479
135.006905
61.024427
33.089519
23.454428
29.572845
46.755672
62.987804
87.611675
107.755661
125.175714
131.016970
129.752755
118.008852
95.975995
77.752471
51.470995
37.523508
23.251772
15.734434
9.839535
7.781982
6.655455
6.135702
6.134510
5.987883
5.806684
6.225705
5.670786
5.839467
6.439686
6.110668
6.150603
5.831718
5.826950
5.697608
5.304813
5.226731
4.874468
5.128980
4.630685
4.421473
4.358888
4.402995
4.053712
4.108548
4.163980
3.967881
3.941655
3.820658
3.780723
3.795624
3.470778
3.352761
3.452897
3.243685
##ZVALUE=295
0.642538
0.593662
0.717640
0.650883
0.657439
0.686646
0.541806
0.585914
0.716448
0.674725
0.518560
0.712872
0.454783
0.697970
0.633597
0.727773
0.872612
0.589490
0.765920
0.777841
0.830889
0.858903
0.857711
0.958443
1.206994
1.188517
1.435876
1.353621
1.563430
3.292561
10.424852
42.154789
92.674494
213.961601
336.907506
522.393584
646.444559
754.331946
777.871609
712.404847
608.030558
433.040857
301.298499
161.143541
88.107586
35.340786
20.880699
19.037724
26.032925
43.576956
58.719516
82.162619
101.436973
116.891861
123.729706
120.545626
110.328794
90.436935
72.906613
50.454736
35.926700
21.714568
14.252663
8.945465
6.552935
5.556941
5.348921
5.160570
5.020499
4.887581
5.012751
4.774928
5.015731
5.052686
4.974604
4.789829
4.717708
4.584789
4.263520
4.159808
4.102588
3.948808
3.943443
3.846884
3.763437
3.812909
3.645420
4.033446
3.630519
3.516674
3.529787
3.381968
3.355742
3.370643
3.235936
3.261566
##ZVALUE=300
0.498891
0.586510
0.488758
0.551939
0.720620
0.631809
0.707507
0.659823
0.365973
0.581741
0.518560
0.537634
0.647902
0.621676
0.694990
0.624657
0.752807
0.774860
0.727773
0.806451
0.886917
0.843406
0.741482
0.839829
1.025796
1.109838
0.970960
0.887513
0.988841
1.284480
1.348853
1.938939
6.725788
21.222830
70.461631
134.958625
271.699429
404.970646
581.282973
685.039759
757.604837
746.495724
641.631484
526.827574
351.751447
228.456855
116.297603
63.850880
25.504827
14.596581
16.233921
23.080707
37.407875
52.048564
75.523853
93.570948
110.060573
117.623806
115.358829
108.454823
88.606477
72.295666
49.857497
35.856962
21.224618
14.161468
8.385777
5.927682
4.627705
4.341602
4.457831
4.254580
4.297495
4.305840
4.251599
4.076958
4.074574
3.712773
3.873706
3.922582
4.003644
3.759861
3.622770
3.718734
3.730655
3.600717
3.496408
3.069639
3.306866
3.334880
3.119707
3.159642
3.200769
3.088713
3.001690
3.034472
##ZVALUE=305
0.635982
0.567436
0.536442
0.706911
0.561476
0.402927
0.631809
0.668764
0.573993
0.667572
0.712872
0.499487
0.525713
0.547767
0.627637
0.594854
0.659823
0.691414
0.734925
0.715852
0.650883
0.583529
0.649691
0.851750
0.888705
0.625849
0.887513
0.806451
0.841618
1.086593
1.209974
1.109838
1.209974
1.479983
2.678633
13.810992
37.902594
108.046532
192.966461
349.762440
485.567451
639.516711
725.809932
745.979548
691.551566
553.377867
428.308845
266.702771
168.232918
78.568459
39.315820
15.731454
11.292696
14.607906
21.637678
36.590695
52.258968
74.741840
88.864565
105.215907
110.859871
108.712912
101.945996
84.402561
68.562627
47.399998
32.991767
20.465851
13.204813
7.433891
5.885959
4.715919
4.144907
3.943443
3.824830
3.867745
3.575683
3.556609
3.311634
3.144741
3.485680
3.459454
3.729463
3.482699
3.412962
3.459454
3.443956
3.317595
3.145933
3.103614
3.124475
3.129840
2.977848
2.869964
2.950430
3.088713
##ZVALUE=310
0.574589
0.491738
0.546575
0.488758
0.661612
0.546575
0.576973
0.502467
0.495911
0.545979
0.490546
0.587702
0.556707
0.614524
0.654459
0.625849
0.578761
0.820756
0.687838
0.795722
0.872612
0.643730
0.797510
0.579953
0.593662
0.504851
0.599623
0.745654
0.943542
0.813603
1.053810
1.046658
1.114607
1.102686
1.276731
1.493692
1.528859
6.010532
19.107461
65.084696
128.602982
260.381699
390.367508
562.622547
672.577024
745.507479
727.411509
633.173585
517.924428
347.546935
230.338573
116.093755
62.744617
23.963451
11.735559
9.654760
12.489557
19.860864
29.401779
46.476722
61.742663
81.714988
93.643665
103.052855
103.578568
94.797611
83.661675
65.061450
49.239993
30.714869
21.356940
12.846589
8.005500
5.427599
4.161596
3.627539
3.427863
3.371835
3.305674
3.088713
3.378987
3.123879
2.810955
3.255606
3.233552
3.135800
3.266931
3.060699
3.152490
2.936721
3.108978
3.141761
2.837777
3.106594
2.913475
3.010631
##ZVALUE=315
0.494719
0.454783
0.425577
0.638962
0.423789
0.470877
0.522733
0.558496
0.563860
0.653863
0.449419
0.590682
0.446439
0.494719
0.684857
0.422597
0.547767
0.638962
0.531673
0.528693
0.550747
0.721812
0.630617
0.764728
0.519753
0.750422
0.685453
0.760555
0.803471
0.811815
0.735521
0.866652
0.742674
0.833869
1.035929
0.943542
1.048446
1.298785
1.441836
3.000498
10.010600
41.319728
89.652538
199.573636
317.399502
502.931476
615.974665
712.336898
733.265877
672.661662
575.962663
410.305858
287.790895
153.000951
83.634853
31.585693
14.517903
7.992983
8.269548
11.880994
17.065406
28.684735
39.967895
59.225559
72.788596
88.352561
96.432567
97.540617
91.597438
75.480938
62.517524
44.506788
32.168627
18.512607
11.941791
7.049441
4.746914
3.695488
3.265738
3.125668
3.067851
3.085732
3.070831
3.169775
2.892613
2.946854
3.060699
2.897978
2.854466
3.110766
2.838969
2.899766
2.903938
2.914667
2.865791
2.840757
##ZVALUE=320
0.565648
0.536442
0.525713
0.506639
0.479817
0.549555
0.465512
0.418425
0.524521
0.536442
0.475645
0.500679
0.682473
0.546575
0.595450
0.478625
0.655651
0.623465
0.630617
0.765920
0.598431
0.568628
0.744462
0.665784
0.668764
0.530481
0.541806
0.668764
0.680685
0.751615
0.633597
0.843406
0.731945
0.735521
0.986457
0.833869
1.058578
0.922680
1.054406
1.192689
1.348853
1.804829
4.432797
21.884441
57.085752
147.835612
243.839622
396.612883
521.763563
659.402013
713.236928
696.585774
626.675487
477.302670
348.127484
194.662809
112.299919
48.604608
22.937655
9.029508
6.649494
7.809997
9.716749
15.327930
23.011565
37.853718
51.868558
68.148971
80.636740
89.987516
92.758536
85.292459
75.599551
57.443976
44.239759
28.630495
19.380450
11.541843
7.274747
4.548430
3.756881
3.126860
2.955794
2.895594
2.853870
2.913475
2.952814
2.912879
2.898574
2.670884
2.667904
2.747774
2.778769
2.652407
2.875924
2.758503
##ZVALUE=325
0.388622
0.258684
0.406504
0.397563
0.268817
0.342727
0.523925
0.337958
0.298619
0.340939
0.429749
0.526905
0.460744
0.488758
0.377893
0.350475
0.489950
0.527501
0.378489
0.570416
0.438690
0.385642
0.595450
0.574589
0.496507
0.552535
0.383854
0.452995
0.497699
0.367761
0.581741
0.604987
0.504851
0.572801
0.382662
0.739694
0.579953
0.782609
0.854731
0.839829
0.948906
0.981688
0.941753
1.200438
2.486706
14.101863
37.340522
100.567937
180.805922
330.327749
454.604626
601.876974
677.154660
701.393485
647.316575
512.430668
388.793945
236.387849
143.488646
64.927936
31.826496
11.454821
6.869435
6.046891
6.716847
9.033680
13.716817
22.979975
33.815503
51.463842
63.438416
76.517463
84.223747
85.940957
79.836845
66.735744
55.000782
38.948655
27.729869
16.861558
10.995865
6.295443
4.610419
3.307462
2.931952
2.785921
2.473593
2.613664
2.579689
2.397895
2.565980
2.553463
2.579689
2.513528
2.427697
2.370477
##ZVALUE=330
0.434518
0.376701
0.288486
0.261664
0.197887
0.334978
0.365973
0.353456
0.315905
0.338554
0.360608
0.275970
0.224710
0.312924
0.318885
0.302792
0.381470
0.373721
0.514984
0.431538
0.421405
0.462532
0.449419
0.359416
0.461936
0.524521
0.436902
0.628829
0.590682
0.574589
0.471473
0.526905
0.393987
0.479817
0.591874
0.569820
0.495911
0.654459
0.666976
0.641942
0.471473
0.807643
0.859499
0.761747
1.081824
1.165867
1.459718
6.458759
20.145774
67.009926
129.320621
257.076025
376.015902
536.735654
631.988645
684.322715
657.507777
549.874902
441.296697
288.011432
184.198618
85.925460
44.067502
16.395450
7.721782
5.283952
5.090833
6.020665
8.224845
13.755560
20.913482
34.128428
46.153665
61.990619
71.680546
78.568459
79.548955
73.189735
63.967705
48.123002
37.081838
23.637414
16.680956
10.044575
6.794930
4.047751
3.261566
2.696514
2.610683
2.637506
2.392530
2.371669
2.441406
2.338886
2.459884
2.239943
##ZVALUE=335
0.479817
0.400543
0.459552
0.467896
0.453591
0.546575
0.515580
0.486970
0.405908
0.605583
0.416636
0.470877
0.476837
0.455976
0.397563
0.427961
0.531673
0.446439
0.531673
0.477433
0.572801
0.462532
0.580549
0.549555
0.653863
0.600815
0.601411
0.747442
0.512600
0.586510
0.570416
0.551939
0.529885
0.579953
0.620484
0.516772
0.687838
0.480413
0.783801
0.752807
0.795722
0.698566
0.849962
0.754595
0.919700
0.888705
1.060963
1.179576
1.160502
2.520680
12.986660
34.973621
99.045634
176.770687
320.514441
444.977880
587.970018
649.451613
655.886531
604.713559
476.777554
360.618830
217.416883
131.188631
57.189465
27.323961
9.752512
5.996823
4.957914
4.927516
5.703568
7.746816
12.796521
19.270778
30.620694
41.537881
56.401491
66.491961
73.789954
74.187517
67.845583
60.524940
47.723651
37.120581
25.521517
17.802715
10.560751
7.281899
4.436970
3.331900
2.829432
2.653599
2.586842
2.601743
2.420545
2.272725
##ZVALUE=340
0.439882
0.638962
0.181794
0.356436
0.482798
0.403523
0.326633
0.413656
0.547767
0.587702
0.499487
0.470877
0.573993
0.591874
0.482798
0.514984
0.469685
0.421405
0.495911
0.517964
0.584722
0.333786
0.480413
0.534654
0.552535
0.630617
0.563860
0.681877
0.498891
0.594854
0.473857
0.497699
0.615716
0.636578
0.701547
0.560880
0.661612
0.530481
0.593662
0.684857
0.755787
0.743866
0.656843
0.740886
0.918508
0.875592
0.879765
0.978708
0.956655
0.993609
1.197457
1.672506
5.287528
24.657845
61.304569
151.122808
250.726938
399.897695
509.267449
617.275834
645.045638
602.884889
523.283482
383.882523
273.665786
148.244500
81.036687
31.051636
13.398528
5.968809
4.833937
4.636645
4.755855
5.436540
7.524490
12.401938
18.646717
29.487610
39.128661
53.574443
62.134862
68.374872
68.851709
64.899921
58.238506
46.607852
35.950541
24.405718
17.235875
10.394454
6.951690
4.473925
3.461838
2.812743
2.605915
2.390742
##ZVALUE=345
0.301600
0.456572
0.424981
0.376701
0.397563
0.519753
0.587702
0.498891
0.383854
0.389814
0.434518
0.495911
0.428557
0.508428
0.465512
0.483990
0.252724
0.379682
0.431538
0.457764
0.470877
0.534654
0.510812
0.476837
0.578761
0.521541
0.471473
0.637770
0.695586
0.655651
0.539422
0.620484
0.587702
0.574589
0.674725
0.763535
0.662804
0.463724
0.618696
0.848770
0.661612
0.558496
0.830889
0.767708
0.659823
0.619888
0.719428
0.839829
0.844598
0.784993
0.838637
0.995994
0.931621
1.076460
2.361536
13.767481
37.319660
101.048946
181.366801
321.342945
433.432460
561.780930
615.592003
616.478920
558.314919
427.680016
316.138864
186.070800
106.279850
42.364001
20.330548
7.962584
5.056858
4.824996
4.334450
4.256964
4.814863
6.654859
10.193586
17.863512
25.662780
38.307905
47.193766
56.866407
61.272979
64.343810
61.134696
53.955913
45.533776
34.273863
25.713444
16.263723
11.232495
6.927848
4.560947
3.325939
##ZVALUE=350
0.534654
0.519753
0.531673
0.435710
0.470877
0.525713
0.414848
0.557899
0.657439
0.359416
0.484586
0.606775
0.597835
0.487566
0.710487
0.680685
0.700951
0.494719
0.690818
0.501871
0.556707
0.573993
0.626445
0.631809
0.612736
0.715852
0.577569
0.703931
0.621676
0.751615
0.466704
0.442863
0.691414
0.690818
0.701547
0.653863
0.584722
0.563860
0.588894
0.737906
0.740886
0.835657
0.630617
0.743866
0.700951
0.677705
0.712872
0.817776
0.889897
0.899434
1.039505
0.924468
1.180768
1.101494
1.031756
1.242757
1.745820
7.082820
21.642447
67.538619
129.330754
253.578424
361.503959
495.861769
574.746728
609.419942
574.643016
469.766855
360.742807
215.068460
132.299662
61.485767
28.592944
9.517670
5.474687
4.610419
4.140735
4.035830
3.992915
4.639626
6.179810
10.240674
14.927983
22.889972
30.804873
42.162538
49.722791
56.520700
58.747530
56.939721
51.753521
42.153001
33.759475
23.021698
16.630888
10.591745
##ZVALUE=355
0.483990
0.435710
0.409484
0.405908
0.363588
0.403523
0.461936
0.487566
0.522733
0.540614
0.513792
0.537634
0.533462
0.559688
0.487566
0.447631
0.449419
0.417829
0.457764
0.382662
0.491738
0.574589
0.510812
0.447631
0.385642
0.495911
0.611544
0.403523
0.620484
0.612736
0.576973
0.511408
0.578761
0.556707
0.570416
0.691414
0.693798
0.747442
0.574589
0.510812
0.508428
0.609756
0.622869
0.655651
0.566840
0.568628
0.737906
0.798702
0.703931
0.647902
0.725985
0.612736
0.778437
0.704527
0.855923
0.854731
1.031756
1.167655
1.247525
3.631711
11.786819
44.294000
91.284513
190.431476
294.471979
441.083908
527.009964
584.262609
574.741960
485.872626
393.786430
261.282921
164.840817
73.878765
35.857558
12.401938
6.106496
4.424453
4.006624
3.614426
3.656745
3.480911
3.977418
5.364418
7.765889
13.075471
18.619895
27.957559
35.480857
44.735670
49.685836
52.793622
51.774979
46.187639
40.628910
30.869842
##ZVALUE=360
0.456572
0.440478
0.522733
0.386834
0.486970
0.513792
0.536442
0.445843
0.364780
0.465512
0.325441
0.455976
0.343919
0.505447
0.479817
0.457764
0.457764
0.505447
0.494719
0.483990
0.635982
0.452995
0.336766
0.540614
0.608563
0.420809
0.449419
0.640750
0.403523
0.408888
0.510812
0.502467
0.490546
0.539422
0.551939
0.549555
0.578761
0.595450
0.498891
0.537634
0.500679
0.569820
0.810623
0.499487
0.417829
0.640750
0.601411
0.572801
0.551939
0.633597
0.684857
0.719428
0.642538
0.720620
0.853539
0.737906
0.783801
0.765920
0.943542
1.044869
1.357794
1.608729
6.450415
19.362569
62.522888
121.596456
236.395597
340.728760
479.727983
545.336604
564.488769
524.258018
421.005487
319.432616
190.839767
114.190578
50.279498
22.369623
7.578731
4.627705
3.773570
3.596544
3.433824
3.152490
3.175735
3.506541
4.502535
6.160736
10.494590
15.277863
23.003817
30.158758
39.333701
44.596791
48.700571
48.359632
##ZVALUE=365
0.448823
0.557899
0.530481
0.524521
0.385642
0.416636
0.466704
0.312924
0.398755
0.322461
0.369549
0.437498
0.341535
0.476837
0.529885
0.565648
0.449419
0.422597
0.284910
0.489950
0.432730
0.455976
0.493526
0.453591
0.499487
0.469685
0.537634
0.504851
0.490546
0.414848
0.449419
0.500679
0.539422
0.391603
0.480413
0.529885
0.628829
0.567436
0.450611
0.532866
0.464916
0.631809
0.577569
0.501871
0.472665
0.657439
0.578761
0.632405
0.443459
0.608563
0.689626
0.614524
0.659823
0.732541
0.690818
0.671744
0.638962
0.825524
0.894666
0.938773
1.014471
1.087785
1.332760
1.422763
2.643466
12.407899
34.766793
96.075535
173.166990
299.790502
401.653647
506.292582
545.685887
526.185632
459.389687
333.877802
235.957503
130.340457
71.577430
27.692914
12.087822
4.850626
3.925562
3.590584
3.295541
3.065467
3.099442
2.812743
3.032684
3.880858
5.384684
8.641481
12.893677
19.315481
25.537610
33.402443
##ZVALUE=370
0.494719
0.404716
0.451803
0.491738
0.564456
0.269413
0.393987
0.444651
0.520945
0.406504
0.453591
0.538826
0.448823
0.420809
0.276566
0.458956
0.504851
0.473857
0.518560
0.500679
0.399947
0.411868
0.520945
0.659823
0.549555
0.405908
0.404716
0.524521
0.399947
0.486970
0.533462
0.351667
0.408888
0.502467
0.584722
0.731945
0.581741
0.483990
0.568628
0.526905
0.515580
0.500679
0.435710
0.501871
0.455976
0.421405
0.558496
0.506639
0.776649
0.841618
0.542998
0.682473
0.659823
0.673532
0.708699
0.607967
0.817776
0.742674
0.768900
0.658631
0.764728
0.804663
0.854731
0.940561
0.899434
1.088977
1.567602
6.887913
21.446943
68.177581
127.451420
235.903859
339.952707
467.736721
525.561571
534.434915
487.579703
379.446745
279.069543
155.683756
88.670850
35.846829
16.730428
6.592870
4.053712
3.530979
3.325939
3.182888
2.759695
2.598763
2.749562
2.708435
3.317595
5.062819
7.121563
11.233687
##ZVALUE=375
0.424981
0.488758
0.457764
0.355840
0.299811
0.388622
0.451803
0.484586
0.440478
0.526905
0.443459
0.415444
0.278950
0.572801
0.397563
0.403523
0.323653
0.506639
0.409484
0.442863
0.537634
0.509620
0.501871
0.414848
0.366569
0.316501
0.605583
0.435710
0.420809
0.507832
0.422597
0.403523
0.528693
0.538826
0.578761
0.398755
0.558496
0.611544
0.524521
0.419617
0.491738
0.450611
0.454783
0.628829
0.560880
0.555515
0.473857
0.429749
0.575781
0.581741
0.609756
0.498891
0.663996
0.608563
0.420809
0.504851
0.500679
0.549555
0.521541
0.556707
0.590682
0.683665
0.722408
0.754595
0.962615
0.856519
1.003742
1.203418
1.151562
3.874898
11.587739
40.026903
87.734461
191.910863
290.775895
421.539545
499.441624
535.812974
511.914492
418.682694
322.721004
198.058486
125.386715
61.996579
31.290650
10.809898
4.902482
3.562570
3.137589
2.924800
2.692938
2.628565
2.405643
2.418756
2.500415
2.963543
##ZVALUE=380
0.384450
0.388622
0.504851
0.422597
0.301600
0.409484
0.408888
0.593662
0.496507
0.495911
0.507832
0.375509
0.521541
0.448823
0.266433
0.359416
0.428557
0.302792
0.461936
0.421405
0.370741
0.444651
0.377893
0.409484
0.375509
0.314713
0.411868
0.396967
0.647902
0.645518
0.262856
0.541806
0.744462
0.675917
0.601411
0.517964
0.408888
0.629425
0.618696
0.662804
0.735521
0.638962
0.661612
0.520945
0.666976
0.710487
0.605583
0.608563
0.702739
0.619888
0.625849
0.707507
0.528693
0.641942
0.613928
0.474453
0.595450
0.579953
0.580549
0.665784
0.608563
0.532866
0.704527
0.706911
0.649691
0.726581
0.794530
0.863671
0.834465
1.002550
1.098514
2.048612
6.464720
29.157996
67.247748
154.839754
242.182612
369.890928
458.056927
522.889495
518.137813
444.968939
363.981724
252.631903
169.647932
83.821416
43.577552
16.005635
6.954670
3.481507
3.060699
2.955794
2.741814
2.638698
2.724528
2.290606
##ZVALUE=385
0.353456
0.439882
0.407696
0.316501
0.400543
0.347495
0.353456
0.314713
0.353456
0.407696
0.370741
0.412464
0.555515
0.300407
0.353456
0.361800
0.357628
0.318885
0.269413
0.264645
0.404716
0.302792
0.274777
0.421405
0.538826
0.483990
0.515580
0.569820
0.574589
0.617504
0.576973
0.737906
0.699759
0.646710
0.706911
0.745654
0.645518
0.646710
0.790954
0.765920
0.743866
0.752807
0.719428
0.831485
0.789762
0.697970
0.707507
0.764728
0.650883
0.751615
0.645518
0.669956
0.706911
0.448823
0.644922
0.685453
0.451803
0.694990
0.534654
0.699759
0.620484
0.510812
0.570416
0.662804
0.702739
0.561476
0.722408
0.693798
0.756979
0.981688
1.017451
0.937581
1.016855
1.256466
3.375411
16.783476
41.830540
106.591582
186.471939
317.978859
411.619544
497.357845
515.312552
482.759476
421.977639
304.974914
216.745734
118.099451
67.468882
27.994514
11.942983
4.134774
3.094673
2.857447
2.559423
2.663732
##ZVALUE=390
0.369549
0.375509
0.328422
0.473857
0.367761
0.358820
0.361800
0.436902
0.322461
0.320673
0.402927
0.294447
0.368953
0.465512
0.420809
0.267625
0.382662
0.451803
0.421405
0.290871
0.506639
0.255704
0.378489
0.495911
0.431538
0.595450
0.726581
0.681877
0.677705
0.700951
0.737906
0.738502
1.058578
0.881553
0.977516
1.050830
0.853539
0.967979
0.966787
0.909567
0.897646
0.825524
1.007915
0.894666
0.707507
0.755787
0.734925
0.771880
0.775456
0.776649
0.686646
0.724792
0.741482
0.616908
0.607967
0.668764
0.549555
0.522733
0.594854
0.729561
0.629425
0.773668
0.677705
0.718832
0.883937
0.659823
0.711679
0.758767
0.771880
0.934601
0.923872
0.845790
0.890493
0.962615
0.831485
1.015663
2.141595
7.591844
31.283498
71.143508
162.519813
249.821544
367.596745
447.932482
512.125492
517.037511
455.517769
379.524827
257.369876
173.459649
88.759661
46.035647
16.709566
6.977916
3.428459
2.939701
##ZVALUE=395
0.486970
0.499487
0.369549
0.495911
0.475645
0.476837
0.467896
0.430942
0.470877
0.310540
0.398755
0.447631
0.458956
0.239611
0.426769
0.494719
0.416636
0.489950
0.402927
0.462532
0.347495
0.323653
0.425577
0.310540
0.588894
0.472665
0.533462
0.628829
0.722408
0.714660
0.829697
0.955462
0.789762
1.072884
1.210570
1.195669
1.159906
1.176596
1.173615
1.126528
1.035929
0.898838
0.983477
0.989437
0.943542
0.901818
0.898838
0.934601
0.767708
0.827909
0.797510
0.813603
0.706911
0.701547
0.579953
0.601411
0.552535
0.595450
0.715852
0.617504
0.634789
0.554919
0.632405
0.531673
0.530481
0.686646
0.659823
0.669956
0.648499
0.875592
0.965595
0.930429
1.004934
0.861883
0.887513
0.832677
0.880957
0.904799
1.368523
5.218983
17.373562
57.779551
108.831525
204.526782
297.718644
422.691703
494.646430
528.959632
507.607460
423.852801
330.290794
204.702616
127.332807
56.107640
27.699471
9.559989
##ZVALUE=400
0.566840
0.459552
0.571609
0.276566
0.332594
0.118613
0.323653
0.363588
0.492930
0.496507
0.370741
0.451803
0.357628
0.456572
0.413656
0.411868
0.649691
0.514984
0.424981
0.501871
0.484586
0.446439
0.459552
0.396967
0.587702
0.507832
0.625849
0.740886
0.751615
0.789762
0.877976
0.871420
1.069903
1.174808
1.179576
1.147985
1.039505
1.209974
1.058578
1.177788
0.995994
1.075864
1.068711
1.012683
0.939965
0.944734
0.898838
0.857711
0.947714
0.840425
0.934601
0.748634
0.699759
0.742674
0.595450
0.714660
0.693798
0.689626
0.649691
0.669956
0.555515
0.705719
0.522733
0.645518
0.677705
0.762939
0.584722
0.693798
0.752807
0.865459
0.659823
0.912547
0.866652
0.844598
0.821948
0.747442
0.759959
0.819564
0.989437
1.010895
1.137853
2.138615
10.184646
27.918816
78.194737
141.851902
259.253979
353.946686
462.292433
509.001613
506.729484
459.257960
348.886847
256.210566
146.310925
88.145733
##END
