##TITLE=AAI0851
##FORMAT=SPECTACLE-ASCII V-1.2
##DATA TYPE=ULTRAVIOLET SPECTRUM
##SECOND TYPE=ULTRAVIOLET SPECTRUM
##DATE=11/28/17
##TIME=13:35:20
##SPECTROMETER/DATA SYSTEM=SPECTACLE
##XUNITS=NM EM
##YUNITS=ENERGY
##YFACTOR=1
##FIRSTX=220
##LASTX=410
##NPOINTS=96
##3DDATA=Equidistant
##ZUNITS=NM EX
##FIRSTZ=210
##LASTZ=400
##ZPOINTS=39
##XYDATA=(Y..Y)
##ZVALUE=210
5.826950
6.005764
5.977750
4.995465
5.709529
5.977750
6.737709
5.421638
5.741715
4.750490
4.469752
3.683567
3.901720
3.123879
3.526807
4.074574
3.297925
4.821420
4.889965
4.808903
4.161596
5.519986
4.715919
5.258918
5.732775
5.308986
4.810691
6.658435
7.048845
6.781816
7.294416
8.509755
7.504821
9.005666
9.971857
10.898709
10.967851
11.147857
10.806918
11.068583
12.287498
11.753440
14.694929
12.574792
13.764501
14.358759
14.341474
13.643503
13.823509
13.375878
14.778972
16.540885
15.797615
16.288757
15.262961
15.972853
16.527772
18.345714
14.680624
17.389655
17.620921
16.417503
18.727779
17.274618
19.157529
18.574595
21.463633
20.648837
24.994612
27.169585
30.747652
33.086538
39.480925
42.764544
45.266747
47.621727
49.987435
47.563910
46.359897
45.363903
42.159557
37.315488
33.442974
29.623508
25.582910
23.339987
20.067692
17.014742
17.818809
16.195774
16.777515
15.026927
17.407537
18.080473
17.120838
17.776489
##ZVALUE=215
18.326640
18.943548
16.208887
14.572740
13.836622
11.050701
10.645986
9.663701
10.904670
8.790493
8.391738
8.057952
7.367730
5.696416
4.433990
4.177690
4.245639
3.871918
4.268885
4.442930
5.165935
5.126595
5.050898
5.554557
5.753636
6.646514
6.350875
7.017851
7.883906
7.956624
9.492636
10.383725
11.522770
12.247562
14.447570
15.274882
14.806986
15.411973
16.654730
17.475486
17.410517
18.300414
17.909408
18.342733
18.189549
18.207431
17.996430
17.689466
16.536713
18.978715
16.295910
17.468929
18.053651
19.497871
18.141866
17.659664
18.713474
17.448664
17.402768
19.465685
19.671917
18.904805
19.404888
19.130707
19.142628
20.404458
22.199750
22.604465
24.567842
27.147532
31.459928
32.762885
36.591887
39.712787
42.438507
49.151778
47.479868
46.188831
45.114756
44.165850
39.933920
38.096905
32.819510
28.620958
25.721788
22.382736
20.633936
19.746423
18.166900
17.944574
18.035769
15.494823
16.569495
16.390681
16.429424
16.636848
##ZVALUE=220
43.707490
46.467781
48.484802
46.964884
45.005679
36.522746
28.871894
21.545887
17.579794
15.297532
17.607808
18.498898
17.621517
14.489889
11.619925
10.635853
8.092523
6.676912
4.533529
4.678965
4.507899
5.377531
6.391406
6.695986
6.359816
7.036924
7.286668
8.185506
9.857416
10.791421
12.250543
14.758706
17.546415
22.059679
22.977591
24.907589
29.085875
31.254888
31.801462
31.419992
33.549666
33.764839
32.540560
30.971766
32.283664
31.959414
31.082630
31.637549
28.241873
30.155778
27.697682
28.610826
27.910471
26.133657
25.958419
25.823712
24.965405
26.025772
25.016665
25.890470
25.480986
25.525689
25.049448
24.992824
24.528503
25.150776
25.646687
26.928782
28.961897
32.388568
35.077929
36.966801
40.502548
45.845509
47.638416
47.837496
50.585866
47.755837
50.093532
45.771599
43.298602
40.532947
37.696958
33.154488
30.263662
26.199818
24.273992
19.912720
21.014810
20.545721
18.528700
21.826625
18.052459
17.790794
17.346740
16.864538
##ZVALUE=225
63.522458
65.400600
87.808967
110.751987
116.384625
118.634701
108.628869
85.614920
67.137480
49.858689
33.833981
30.731559
32.934546
31.573772
32.625794
28.839707
23.239851
20.702481
14.048815
10.211468
8.083582
6.108880
6.363988
6.422997
7.176995
7.262826
8.035898
10.929704
11.509657
14.294982
20.212531
24.763942
30.476451
35.522580
41.952729
45.238733
50.709844
55.155754
54.494739
60.096979
59.869885
63.822865
61.232448
57.772994
60.608983
58.203936
57.711601
56.205988
53.057671
50.990582
47.107935
45.197606
43.763518
45.546889
42.668581
40.808916
40.612817
38.144588
39.574504
39.525628
37.939548
36.529899
38.217902
36.853552
35.549998
37.431717
36.760569
36.505461
38.954616
38.906932
41.626692
43.199658
46.716928
47.689676
51.507950
51.065683
54.709911
50.408840
47.380924
47.432780
44.307709
42.541623
39.124489
35.834908
29.429793
30.125976
26.284456
26.070476
23.705959
23.910999
24.038553
20.772815
20.353794
21.187663
20.497441
20.225644
##ZVALUE=230
47.490597
52.639842
89.678764
135.539770
175.439715
235.663652
253.691673
259.806514
237.690806
184.245706
140.923858
90.020895
66.785812
53.371787
50.501823
50.961971
53.848624
50.347447
45.927763
35.786629
27.225614
20.630956
13.758540
10.453463
9.094477
8.810759
10.042787
11.539459
15.414953
20.584464
26.234984
34.251809
43.559670
52.729845
66.603422
73.052645
85.200667
86.770654
95.125437
95.239878
99.234581
97.270608
97.368956
97.813606
94.141960
93.480945
90.565681
88.155866
83.333850
81.034899
78.259706
78.024864
68.713427
69.988966
65.988898
61.609745
62.994957
60.871840
60.509443
60.597658
60.975552
57.017803
59.269667
58.208704
59.583783
57.257414
57.678819
59.897900
55.518746
60.061812
62.647462
65.651536
65.031648
64.161420
66.764951
67.028999
66.048503
65.321922
58.898926
59.974790
53.679943
53.402781
47.868490
46.508908
41.574836
40.440559
37.626624
34.962893
33.187866
32.656789
30.890703
30.443668
28.774738
29.527545
25.718808
26.273727
##ZVALUE=235
16.230941
19.113421
39.996505
95.870495
152.858496
251.265764
339.475870
438.726544
496.705770
498.220921
451.105833
346.529484
259.779692
166.704655
118.384957
88.360906
70.555806
71.357489
82.069635
81.430674
72.808862
67.191720
49.156547
38.174987
25.379658
19.374490
15.126467
13.648868
17.343760
23.415685
29.336810
40.767789
49.923658
63.392520
73.536634
85.340738
93.792677
106.785893
110.819936
113.080740
119.834542
117.437840
117.010474
115.488768
119.839907
110.623837
115.242600
107.712746
105.135441
98.516941
99.503994
94.929934
90.334415
86.737871
84.323883
83.673596
83.003640
83.186626
82.813501
83.319545
81.126690
86.269975
86.605549
82.627535
82.462430
84.113479
83.833933
82.181692
81.880689
83.575845
84.565878
87.996721
87.527633
86.794496
91.159940
89.322925
86.489916
83.000660
79.969764
72.906613
68.789721
65.235496
62.958002
58.268905
57.431459
52.606463
48.849583
48.129559
44.294000
45.582652
42.560697
39.816499
38.691759
36.148429
36.329627
35.281777
##ZVALUE=240
3.197789
3.357530
8.081794
22.731423
46.675801
119.515657
210.133791
378.623009
524.974465
697.006583
785.709023
798.727870
743.786693
573.613644
442.074537
281.641483
192.187428
122.002959
96.162558
97.159743
101.975799
104.753971
105.596781
94.345808
77.392459
63.921809
50.974488
36.653876
27.850866
25.346875
28.734803
35.390854
41.754842
51.676631
59.177876
68.819523
76.305866
84.212422
90.155602
91.201663
95.787644
98.420978
98.441839
100.801587
93.484521
100.344419
96.755624
93.627572
94.581842
91.200471
91.089606
92.866421
93.322992
95.745921
93.868971
97.035766
97.513795
100.482702
99.545717
102.380514
98.899603
103.661418
105.446577
105.635524
108.008981
110.231638
112.539530
110.234618
107.693672
109.136701
109.163523
112.470984
112.304688
112.022758
109.331608
110.095739
106.654763
103.866458
95.621943
89.965463
89.910626
82.465410
79.683661
71.108937
71.049929
64.612627
61.658621
60.487986
57.897568
55.584908
49.038529
50.630569
46.082735
45.355558
46.474934
42.835474
##ZVALUE=245
2.521873
2.652407
2.376437
3.175735
6.333590
17.096996
56.261420
115.307570
261.140466
410.524607
665.064454
848.144889
978.449583
1015.789509
976.076722
795.761943
640.031695
426.256657
286.686420
160.312653
111.094713
94.671845
105.397701
114.457607
119.538903
116.421580
105.499625
92.547536
70.818663
56.614876
45.112967
35.124421
32.034516
31.823516
33.004880
36.825538
41.320920
45.431852
46.843886
50.200820
49.207807
52.767992
53.634644
53.338408
56.494474
60.449839
59.337616
59.774518
62.226653
69.602728
68.976879
73.461533
79.057813
80.815554
87.811947
89.242458
97.761750
101.267695
107.209682
109.348893
117.942691
116.970539
122.489929
125.308633
129.560828
129.671693
128.992796
127.985477
129.636526
127.834678
128.671527
129.134655
132.391453
129.502416
124.984980
120.798945
119.326711
114.046931
105.336905
100.986958
99.475980
91.263652
85.136890
80.909729
75.248480
72.532892
65.931678
63.633919
59.842467
59.483647
55.281520
52.864552
49.798489
47.312975
47.392845
44.228435
##ZVALUE=250
2.352595
2.614856
2.938509
2.898574
2.632737
3.006458
3.853440
12.082458
35.588741
84.733963
221.292973
396.024585
683.169961
915.678740
1015.788913
1015.788913
1015.788913
1015.788913
978.453755
664.900541
437.276959
230.503678
146.912932
99.544525
96.743703
108.866692
120.920539
129.623413
126.627684
113.986731
102.550983
77.415705
63.536763
45.890808
35.693645
28.722882
26.878715
26.321411
26.529431
28.212667
30.181408
32.746792
32.487512
34.305453
35.760999
40.663481
43.557882
47.328472
51.455498
56.650639
62.127709
71.898699
76.232553
83.613992
91.475844
100.412965
106.672645
116.118789
120.683908
129.008889
130.916834
140.076876
148.731470
149.934888
153.946877
155.130625
154.366493
157.838464
157.960653
155.508518
156.909823
157.431960
155.798793
153.021812
150.967836
142.606497
140.264630
132.778883
127.241611
119.194984
112.857819
104.721785
99.554658
90.506673
85.417628
82.338452
76.758862
71.688890
68.934560
64.988732
59.378743
56.649446
54.588914
50.393939
46.737790
45.470595
##ZVALUE=255
2.405643
2.389550
2.328753
2.528429
2.469420
2.629757
2.841949
2.973676
3.603697
5.835891
27.715564
72.996616
159.791708
370.810628
606.646538
975.589752
1015.784740
1015.784740
1015.784740
1015.784740
1015.784740
974.268913
597.494841
361.137986
177.379847
112.663507
88.544488
95.826983
117.062926
130.249858
138.007998
135.061741
127.935410
108.967423
90.282559
65.759420
51.487684
38.504601
32.238960
29.306412
27.446747
29.745698
29.813647
32.734871
34.779906
37.891865
41.561723
46.815872
49.474835
56.245923
61.560869
68.261623
75.589418
85.516572
94.608665
106.182694
114.347935
125.683546
132.880807
139.724612
150.106549
159.708858
164.963603
169.467926
174.298882
178.405643
180.881619
181.035995
183.045864
179.565549
181.134939
177.496672
172.750950
170.774460
167.928934
162.193775
156.257749
148.012638
140.408874
129.112601
123.478770
116.140842
110.846758
103.044510
96.171498
89.152455
85.293651
76.990724
74.065924
69.328547
64.806938
59.331656
57.091713
53.020716
50.607920
46.836734
##ZVALUE=260
2.114773
2.087951
2.048612
2.120733
2.122521
2.228618
2.436638
2.280474
2.368689
2.559423
2.950430
3.878474
14.459491
40.974617
127.468705
261.952877
550.002456
820.116997
1015.788913
1015.788913
1015.788913
1015.788913
1015.788913
1015.788913
828.474760
480.707884
298.686624
149.803758
94.551444
83.362460
98.557472
122.898817
141.777992
150.434971
150.393844
135.596991
122.097731
97.162724
77.697635
58.757663
45.976639
38.994551
37.190914
37.422776
38.052797
41.768551
43.348670
45.829415
48.587918
55.425763
61.681867
65.583587
72.470903
79.693794
86.152554
99.027753
104.312897
117.179751
122.604966
135.751963
142.482519
149.026513
156.670809
160.494447
167.956948
168.119669
169.922709
170.512795
173.493624
172.467828
171.601772
168.492794
166.561604
161.878467
158.194900
153.818727
145.356655
136.779547
132.583976
125.383735
116.678476
109.097958
102.480650
94.727874
89.904666
85.754991
80.840588
75.912476
70.534945
66.162944
62.006712
57.969689
53.514838
50.330758
47.903657
44.274926
##ZVALUE=265
2.048612
1.666546
1.991987
1.772642
2.228618
2.209544
2.075434
2.269745
2.301931
2.476573
2.567768
2.743602
2.757907
3.328919
6.325841
32.160878
83.172917
230.419636
423.072577
823.330879
1015.805006
1015.805006
1015.805006
1015.805006
1015.805006
1015.805006
1015.805006
768.261552
426.041484
258.798003
195.171833
86.440444
87.005496
114.941597
133.367777
156.619549
166.549683
161.433816
151.586533
129.492879
108.529925
82.747936
68.040490
52.715540
47.801733
43.438673
44.453740
46.352744
46.507716
50.502419
54.169893
58.221817
62.297583
68.438649
70.436597
79.848766
87.528825
94.024539
97.206831
105.334520
110.701919
116.586685
119.862556
125.279427
130.854845
132.247806
133.386850
135.567784
134.541988
134.924650
133.967996
133.115649
129.412413
128.763914
123.197436
118.853450
117.002726
108.466744
103.826523
97.856522
92.248917
85.549951
82.003474
76.334476
74.000955
68.408847
64.650774
59.880614
57.448745
52.744746
49.038529
46.346784
44.506788
40.826797
39.332509
37.088990
##ZVALUE=270
1.825690
1.823902
2.024770
1.800656
1.862645
1.764894
2.230406
1.837611
1.833439
2.453923
2.270937
2.160668
2.383590
2.471805
2.497435
2.936721
3.890395
14.440417
45.262575
162.447691
329.964757
577.604771
1001.011729
1015.788913
1015.788913
1015.788913
1015.788913
1015.788913
1015.788913
976.044536
593.792796
361.769795
204.710960
96.187592
79.814792
95.962882
116.955638
146.330595
163.210630
173.309445
169.531703
156.991482
137.020946
111.181736
92.370510
71.220994
61.094761
52.313805
49.227476
48.121810
49.261451
50.322413
52.831769
56.908727
58.724880
61.868429
65.026879
69.000721
70.370436
77.311993
79.158545
83.181858
85.020661
88.499784
88.884830
90.133548
91.049671
92.679858
92.290640
92.858672
92.739463
90.297461
90.785623
89.143515
85.440874
82.109571
80.665946
77.560544
71.991682
66.718459
63.013434
59.451461
57.805777
53.001642
52.378774
48.402548
46.362877
44.532418
40.926933
38.708448
37.342906
35.297871
33.122897
30.693412
30.783415
28.322935
##ZVALUE=275
1.797676
1.917481
1.814961
1.859665
2.088547
1.843572
1.977682
1.798868
2.051592
1.712441
2.193451
2.140999
2.091527
2.377629
2.372861
2.517700
2.813935
2.748966
3.254414
7.534623
27.190447
81.338882
258.085728
502.346754
956.525803
1015.890837
1015.890837
1015.890837
1015.890837
1015.890837
1015.890837
1015.890837
905.492902
478.410721
272.070765
120.248795
79.975724
78.591704
96.300840
124.878883
145.805478
163.232684
171.492696
170.758963
157.794952
132.328868
116.085410
93.039870
78.065991
61.410666
54.402947
50.533414
49.952865
51.325560
51.655769
54.052472
55.649877
58.479905
61.221719
62.866807
64.171553
66.637993
68.000555
68.871975
68.245530
69.808960
69.608688
69.387555
69.810748
70.006847
70.405602
69.284439
70.602894
69.520473
68.641901
66.155791
63.482523
61.593652
58.802962
54.595470
51.474571
47.509670
47.145486
44.281483
42.573810
39.369464
36.675930
35.601854
32.997727
32.110810
31.232834
29.691458
28.665662
26.901960
25.924444
24.576783
##ZVALUE=280
1.748800
1.907945
1.657605
1.545548
1.691580
1.824498
1.552701
2.013445
1.898408
1.808405
1.864433
1.925826
1.891851
2.075434
1.979470
2.472997
2.443790
2.218485
2.530813
2.783537
3.055930
3.672838
18.431544
62.278509
212.032795
401.593447
769.602656
1015.790701
1015.790701
1015.790701
1015.790701
1015.790701
1015.790701
1015.790701
1015.790701
617.171526
368.685722
165.815949
90.364814
64.826608
73.580742
97.023845
120.804906
144.585967
159.476995
168.528557
164.555907
152.788758
136.434436
109.925866
93.001723
74.357986
63.905716
56.041479
52.770972
52.686930
54.043531
56.579709
56.900978
60.021877
61.430931
64.176917
64.566731
65.416694
66.577792
65.284967
67.439675
66.864491
66.769719
66.622496
67.449808
66.412687
66.962838
66.263676
64.395666
63.574910
61.390996
58.538914
56.960583
53.019524
52.076578
47.767758
45.932531
44.129491
41.973591
39.531589
38.623810
36.797523
35.021901
33.395886
31.747818
29.642582
28.779507
26.872754
25.762916
24.977922
##ZVALUE=285
1.433492
1.663566
1.582503
1.573563
1.565814
1.652837
1.399517
1.546741
1.680851
1.799464
1.728535
1.805425
1.882911
1.800656
2.181530
2.005696
2.059937
2.130866
2.151728
2.282858
2.543926
2.737641
3.071427
3.386736
7.140636
42.428970
107.283592
287.106037
514.346957
955.717564
1015.788913
1015.788913
1015.788913
1015.788913
1015.788913
1015.788913
1015.788913
923.936367
566.996932
260.732770
131.744742
60.699582
51.460862
67.515969
85.263848
110.642910
130.105615
151.964426
158.052444
156.368613
151.549578
133.523941
116.271973
92.650652
77.538490
65.009594
60.235858
56.401491
56.883693
58.263540
61.564445
62.949657
63.505769
66.002607
66.178441
67.075491
66.574812
68.502426
69.546700
68.247914
69.752932
69.407821
70.071816
67.947507
68.252683
65.656900
63.125491
60.489774
59.003830
56.044459
54.344535
51.165819
48.514605
47.043562
44.201612
42.485595
40.967464
39.198995
39.148927
35.061836
33.817887
32.155514
30.682683
28.959513
28.033853
26.355982
##ZVALUE=290
1.508594
1.438856
1.456738
1.424551
1.547933
1.525879
1.562834
1.634955
1.508594
1.590848
1.749992
1.772642
1.796484
1.954436
1.758933
1.920462
1.976490
1.937747
2.238750
2.491474
2.205968
2.707839
2.480745
2.819896
3.210902
3.448725
4.567504
14.275908
66.101551
165.366530
343.023539
743.968487
1015.791893
1015.791893
1015.791893
1015.791893
1015.791893
1015.791893
1015.791893
1015.791893
813.220739
400.492549
202.646852
76.048970
43.066740
46.551824
58.425665
80.689788
99.999905
125.639439
142.450929
153.086782
154.123902
145.264864
132.991672
112.732649
95.091462
79.165697
69.820881
64.724684
61.769485
62.283874
62.788725
65.348744
65.597892
67.654848
67.827702
69.145560
70.119500
70.362687
71.093440
70.759654
69.960952
67.884922
67.104697
65.777898
65.411925
62.006712
59.907436
57.122707
55.918694
52.190423
51.125884
49.158931
46.734810
46.184659
43.331981
41.762590
38.948655
37.908554
36.821961
33.533573
32.756925
31.057596
30.441880
28.323531
##ZVALUE=295
1.374483
1.422763
1.365542
1.449585
1.632571
1.393557
1.373887
1.481771
1.498461
1.728535
1.636744
1.557469
1.700521
1.646876
1.874566
1.711845
1.772642
1.997948
1.971722
2.065897
2.010465
2.256632
2.202988
2.440810
2.616644
2.790689
2.795458
3.373623
3.741980
8.587837
30.078888
127.490759
277.704000
635.907650
987.166762
1015.788913
1015.788913
1015.788913
1015.788913
1015.788913
1015.788913
1015.788913
1015.788913
598.163009
327.601433
119.036436
53.532720
33.328533
40.846467
56.907535
71.658492
98.705888
118.619800
139.074922
148.416758
150.878429
143.910646
130.541921
117.211938
98.582506
85.700750
73.901415
69.330931
65.093637
65.062642
67.135692
66.753626
67.315698
69.266558
67.941546
68.367720
69.432855
68.158507
68.136454
66.084862
64.336658
62.596798
61.173439
58.751702
56.012869
54.650903
51.903725
51.440597
47.760606
47.405958
44.517517
43.508410
41.052699
39.400458
37.534833
35.843849
34.556985
33.111572
31.479597
30.411482
28.958917
##ZVALUE=300
1.361966
1.583695
1.442432
1.524687
1.424551
1.409650
1.486540
1.291633
1.470447
1.578927
1.428723
1.409650
1.543760
1.472831
1.509786
1.728535
1.701713
1.735687
1.872778
1.735687
1.794696
1.946688
2.037883
2.084970
2.116561
2.391934
2.422929
2.689958
2.857447
3.144741
3.679991
4.214644
17.109513
60.530901
210.541487
422.677398
889.943838
1015.788913
1015.788913
1015.788913
1015.788913
1015.788913
1015.788913
1015.788913
1015.788913
928.687453
465.388894
239.589810
77.762604
37.104487
30.665994
38.178563
53.485632
69.601536
95.666647
115.657449
137.676597
148.111582
150.204897
146.506429
133.464932
119.535923
101.879835
89.778900
77.158809
72.007775
67.654848
66.373944
65.916777
66.193938
68.152547
66.208839
65.884590
65.872669
63.368678
62.053800
61.171651
59.137940
56.764483
55.905581
53.777695
51.404834
49.247742
47.680736
46.655536
44.648647
41.527748
39.821863
38.565993
36.745667
35.067797
34.089684
31.459928
30.108690
28.998852
27.635694
##ZVALUE=305
1.440644
1.286864
1.336932
1.421571
1.446605
1.528859
1.550913
1.458526
1.485944
1.461506
1.342893
1.443624
1.749992
1.507998
1.523495
1.629591
1.607537
1.628995
1.785755
1.713634
1.826882
1.753569
2.066493
2.029538
2.286434
2.122521
2.351999
2.432466
2.540946
2.885461
3.094673
3.089905
3.715754
3.932714
7.229447
45.704842
130.533576
378.632545
704.504848
1015.788913
1015.788913
1015.788913
1015.788913
1015.788913
1015.788913
1015.788913
1015.788913
1015.788913
712.285638
309.873819
147.518516
48.514605
29.998422
32.217503
39.761662
57.045817
72.996616
96.756816
114.523768
135.265589
146.571994
149.941444
145.389438
133.194923
119.104981
100.801587
88.829994
76.637864
70.003867
65.046549
62.376857
61.617494
61.834455
60.867667
59.670806
57.732463
57.290792
55.812001
54.183602
51.837564
49.660802
47.449470
46.312809
44.572949
43.577552
41.543841
39.792657
37.323833
36.253929
34.326911
32.936931
31.081438
30.692816
28.371811
28.042793
26.208758
##ZVALUE=310
1.447797
1.347661
1.367927
1.210570
1.304746
1.394749
1.460910
1.595616
1.539588
1.407862
1.484752
1.410842
1.375675
1.508594
1.577735
1.503825
1.469851
1.682639
1.746416
1.865625
1.655817
1.566410
1.872778
1.891851
1.880527
2.022982
2.123713
1.973510
2.363920
2.358556
2.433658
2.702475
2.929568
3.200769
3.646612
3.776550
4.611611
19.703507
70.099831
245.226026
501.468778
996.910930
1015.788913
1015.788913
1015.788913
1015.788913
1015.788913
1015.788913
1015.788913
1015.788913
997.133851
508.325696
261.718631
89.057684
39.228797
29.023886
33.210516
43.094754
54.216981
73.679686
90.424418
113.371611
126.600862
137.878656
142.444968
138.962865
130.230784
112.852454
97.671747
81.622601
71.383715
64.589977
59.325695
54.814816
52.954555
51.010847
49.727559
47.710538
46.925545
44.820905
44.328570
42.319894
40.991902
38.694739
37.779808
36.222935
34.977794
33.581853
32.596588
30.969977
29.933453
27.948618
26.851892
25.347471
24.356842
23.541451
##ZVALUE=315
1.306534
1.157522
1.474619
1.306534
1.323819
1.474619
1.445413
1.587868
1.411438
1.444817
1.376867
1.531839
1.413822
1.350641
1.467466
1.578927
1.470447
1.694560
1.589656
1.632571
1.686811
1.673698
1.811981
1.862645
1.858473
1.804829
1.947880
2.076626
2.275705
2.276897
2.263784
2.385974
2.469420
2.863407
3.147721
3.319979
3.429651
3.872514
4.048944
10.326505
41.134953
171.485543
387.275815
893.741846
1015.788913
1015.788913
1015.788913
1015.788913
1015.788913
1015.788913
1015.788913
1015.788913
1015.788913
781.700015
418.735743
144.060850
58.079958
29.464960
30.003786
34.524798
40.822625
54.045916
66.708922
84.955692
100.329518
118.019581
127.361417
129.817724
126.355886
113.873482
100.604892
84.054470
71.829557
58.566928
52.226782
44.694543
41.907430
38.827658
37.433505
36.411881
35.045743
34.071803
33.616424
31.659603
30.966997
30.588508
28.774738
27.491450
27.364492
26.271939
24.726987
23.399591
22.504926
21.790862
21.385550
20.029545
##ZVALUE=320
1.269579
1.186728
1.215935
1.251698
1.487732
1.369715
1.294613
1.375675
1.414418
1.342893
1.318455
1.464486
1.403689
1.271963
1.426935
1.470447
1.458526
1.617670
1.535416
1.574755
1.515746
1.506805
1.660585
1.720786
1.836419
1.978874
1.944900
1.956820
1.966953
2.142787
2.075434
2.138615
2.183914
2.406836
2.557635
2.605915
2.745986
3.130436
3.321767
3.686547
3.892779
5.728602
19.669533
107.038021
273.245573
705.409646
1015.788913
1015.788913
1015.788913
1015.788913
1015.788913
1015.788913
1015.788913
1015.788913
1015.788913
982.767940
589.410663
245.249867
102.303624
32.962561
24.856925
25.665760
29.140711
34.112930
42.266846
57.274699
70.578456
87.910891
99.886656
110.942721
113.880634
110.710859
101.827979
84.639788
70.472956
53.979754
45.484900
36.149621
31.713843
27.990937
27.016997
25.337934
24.861693
24.158955
23.433566
22.384524
21.789670
20.466447
20.427704
19.750595
18.890500
18.061996
17.747879
17.190576
16.811490
15.996695
##ZVALUE=325
1.152754
1.276731
1.284480
1.264811
1.305938
1.245737
1.208782
1.373887
1.347661
1.274943
1.381636
1.288652
1.607537
1.379848
1.291633
1.440644
1.316667
1.444817
1.365542
1.411438
1.390576
1.533628
1.671910
1.580715
1.587868
1.606941
1.547933
1.705885
1.751781
1.802444
1.962781
1.922846
1.999736
2.002716
2.219677
2.450943
2.591610
2.582669
2.783537
3.044605
3.011823
3.653765
3.844500
4.884601
10.774732
71.027875
185.214877
487.461686
875.280499
1015.788913
1015.788913
1015.788913
1015.788913
1015.788913
1015.788913
1015.788913
1015.788913
1015.788913
698.517561
317.752957
147.097707
41.109920
21.371841
18.841624
19.359589
22.153854
26.993752
35.254955
45.707822
62.215924
75.083971
89.664459
97.058415
99.284649
94.316602
82.163811
70.668459
55.284500
43.950677
32.489896
26.656985
21.449924
19.303560
17.985702
17.270446
16.453862
16.746521
15.817881
15.479922
14.830828
14.775991
14.570951
14.343858
13.662577
13.529658
13.138652
##ZVALUE=330
1.090765
1.110435
1.151562
1.097918
1.112819
1.167655
1.295805
1.196861
1.137853
1.336932
1.276731
1.441836
1.418591
1.342893
1.312494
1.359582
1.545548
1.351833
1.490712
1.487732
1.569986
1.412630
1.555681
1.368523
1.404881
1.557469
1.455545
1.661777
1.605749
1.486540
1.637936
1.957417
1.910925
2.037883
2.065897
2.074838
2.022982
2.108812
2.357960
2.417564
2.631545
3.028512
3.031492
3.439784
3.807545
4.539490
5.923510
30.612946
101.746917
335.118771
637.443662
1015.788913
1015.788913
1015.788913
1015.788913
1015.788913
1015.788913
1015.788913
1015.788913
1015.788913
864.552855
391.782522
189.514756
61.827898
24.128556
14.505982
13.975501
15.018582
17.460585
22.714734
29.509664
41.490793
52.703619
68.923831
78.495741
86.530447
86.917877
81.580877
73.335767
58.550835
46.978593
34.713745
27.186871
21.016598
17.409921
14.922619
13.730526
12.622476
12.545586
12.423992
12.089610
11.631846
11.512637
11.555552
10.937452
10.574460
##ZVALUE=335
1.134872
1.159906
1.234412
1.160502
1.250505
1.319647
1.250505
1.119971
1.368523
1.172423
1.034737
1.171827
1.129508
1.229644
1.210570
1.108646
1.242757
1.334548
1.230836
1.154542
1.410842
1.441836
1.584888
1.384616
1.300573
1.465678
1.419783
1.544952
1.667738
1.663566
1.576543
1.581907
1.682639
1.895428
1.920462
1.849532
1.951456
1.967549
2.176762
2.326965
2.261996
2.310872
2.622604
3.049970
3.116727
3.252625
3.964901
4.191995
4.861951
14.545918
56.994557
229.941607
475.275517
980.989933
1015.778780
1015.778780
1015.778780
1015.778780
1015.778780
1015.778780
1015.778780
1015.778780
1015.778780
601.544976
306.170583
94.429851
34.966469
14.494658
12.901425
12.847781
13.839602
16.221404
19.876957
27.760863
36.237836
48.845410
59.746504
70.355535
76.501966
78.080893
74.506998
63.930750
55.472851
43.583512
34.630895
24.539828
19.548535
14.641881
12.635589
11.264682
10.819435
10.152459
9.803772
9.750724
10.108948
9.789467
##ZVALUE=340
1.223683
1.263618
0.978708
1.202822
1.146793
1.122952
1.276731
1.116991
1.217723
1.111627
1.184940
1.084805
1.277924
1.134872
1.116991
1.266599
1.282692
1.131892
1.407862
1.352429
1.223683
1.345873
1.530647
1.508594
1.378655
1.334548
1.343489
1.433492
1.426935
1.463890
1.623631
1.511574
1.780987
1.610518
1.813769
1.835823
1.862645
2.029538
1.948476
2.071857
2.172589
2.308488
2.227426
2.563000
2.702475
2.667904
2.960563
3.324747
3.562570
3.930926
4.687905
7.568598
25.425553
127.369761
318.492055
803.363919
1015.787721
1015.787721
1015.787721
1015.787721
1015.787721
1015.787721
1015.787721
1015.787721
1015.787721
751.321912
400.347710
148.598552
53.456426
16.178489
12.754798
12.506843
12.439489
12.911558
14.281869
18.115640
23.837686
33.646822
43.243766
56.200624
64.923763
71.071982
72.492957
68.085790
62.740445
51.300526
41.884780
31.125546
24.375916
17.385483
13.654828
10.857582
9.908676
9.249449
8.943677
8.892417
##ZVALUE=345
1.243949
1.050830
1.239777
1.230836
1.226664
1.140833
0.974536
1.033545
1.091957
1.344681
1.300573
1.337528
1.432896
1.318455
1.307726
1.414418
1.233816
1.285672
1.329780
1.203418
1.350641
1.201630
1.314878
1.403689
1.346469
1.295805
1.545548
1.521707
1.459718
1.560450
1.723766
1.453757
1.393557
1.491904
1.756549
1.611710
1.680851
1.933575
1.641512
1.806617
2.074838
1.842976
2.127886
2.209544
2.396703
2.574921
2.656579
2.801418
3.215671
3.239512
3.513694
3.724694
4.278421
5.173683
12.045503
72.190762
194.708705
516.852736
942.718983
1015.790701
1015.790701
1015.790701
1015.790701
1015.790701
1015.790701
1015.790701
1015.790701
1014.547944
606.650710
230.545402
89.512467
24.826527
14.627576
12.680888
12.222528
11.295676
11.214614
12.683868
15.484691
21.559596
27.881861
39.618611
48.697591
59.063435
63.912868
65.582991
63.840747
57.389736
49.810410
39.339662
31.506419
22.011995
17.769933
12.695789
10.657907
9.126663
##ZVALUE=350
1.222491
1.159906
1.326799
1.322627
1.315475
1.186728
1.203418
1.303554
1.329780
1.297593
1.192689
1.367927
1.390576
1.223683
1.368523
1.444817
1.375675
1.378655
1.281500
1.355410
1.372695
1.431704
1.448989
1.364946
1.384616
1.429915
1.409650
1.443624
1.544952
1.395941
1.460910
1.392961
1.548529
1.860857
1.849532
1.712441
1.595616
1.708865
1.888871
1.964569
1.933575
2.007484
2.031922
2.188683
2.244711
2.424717
2.496839
2.785921
2.652407
2.848506
3.170967
3.538728
3.746748
3.731847
4.344583
4.976988
7.445812
38.321018
120.218992
380.995870
745.373964
1015.793681
1015.793681
1015.793681
1015.793681
1015.793681
1015.793681
1015.793681
1015.793681
1015.793681
826.010704
346.528888
149.774551
35.677552
16.111732
11.924505
11.020899
9.913445
9.680986
10.196567
11.218786
14.575720
18.974543
26.554465
33.272505
44.263601
51.271915
58.345795
60.690641
59.582591
54.795742
45.928955
37.614703
27.848482
21.934509
16.206503
##ZVALUE=355
1.126528
1.369715
1.218915
1.220703
1.279712
1.252890
1.291633
1.361966
1.263618
1.287460
1.178980
1.208782
1.209974
1.414418
1.311898
1.346469
1.340508
1.323819
1.493692
1.336932
1.283884
1.422763
1.351833
1.485944
1.405478
1.577735
1.380444
1.589656
1.589656
1.453757
1.516938
1.612902
1.596808
1.619458
1.844764
1.805425
1.709461
1.930594
1.854897
1.815557
2.063513
2.120733
1.930594
2.065897
2.333522
2.317429
2.484918
2.619624
2.546906
2.686977
2.801418
2.859831
3.047585
3.318787
3.705621
3.916621
4.150867
4.825592
5.545616
19.020438
67.509413
251.552463
520.955920
1015.777588
1015.777588
1015.777588
1015.777588
1015.777588
1015.777588
1015.777588
1015.777588
1015.777588
1015.777588
473.392606
209.121704
59.170723
20.377636
11.338592
10.201931
9.498000
9.188652
9.060502
9.140968
10.512471
12.425780
16.916990
22.227764
30.681491
37.701726
45.923591
51.112771
55.007935
54.049492
48.896670
43.368936
35.785437
##ZVALUE=360
1.299977
1.226664
1.279712
1.342893
1.299977
1.280904
1.429915
1.319647
1.293421
1.378655
1.404881
1.461506
1.446605
1.440644
1.419783
1.472831
1.404881
1.290441
1.570582
1.527667
1.362562
1.366735
1.516938
1.630783
1.538992
1.503825
1.430511
1.515746
1.584888
1.544952
1.670718
1.759529
1.693964
1.627803
1.712441
1.874566
1.754761
1.888871
2.054572
2.089739
1.986623
2.147555
2.247691
2.173781
2.203584
2.375841
2.281666
2.570748
2.587438
2.794862
2.914667
3.089905
3.220439
2.897978
3.320575
3.561974
3.926754
4.047751
4.614592
5.058646
5.589724
9.341836
29.562712
132.921934
320.408940
831.070542
1015.774012
1015.774012
1015.774012
1015.774012
1015.774012
1015.774012
1015.774012
1015.774012
1015.774012
737.097859
362.528563
114.634633
36.489964
12.296438
10.700822
9.650588
9.198785
8.830428
8.663535
8.610487
9.069443
11.192560
13.790727
18.811822
24.735928
33.443570
39.391518
45.554638
49.202442
49.785972
##ZVALUE=365
1.329780
1.256466
1.474619
1.430511
1.229644
1.303554
1.269579
1.393557
1.432896
1.459718
1.187921
1.441836
1.298785
1.463890
1.613498
1.515746
1.534820
1.409650
1.493692
1.429915
1.541972
1.557469
1.682639
1.569986
1.496673
1.540780
1.436472
1.683831
1.457930
1.644492
1.595616
1.712441
1.822710
1.767874
1.721978
1.808405
1.865625
1.830459
1.920462
1.781583
1.850724
2.168417
2.011657
2.209544
2.178550
2.298951
2.274513
2.394915
2.382994
2.441406
2.605915
2.659559
2.799630
2.874732
3.088713
3.178716
3.219843
3.549457
3.673434
4.084706
4.649758
5.105734
5.480647
6.476641
12.551546
70.340037
199.797750
561.251640
984.796882
1015.788913
1015.788913
1015.788913
1015.788913
1015.788913
1015.788913
1015.788913
1015.788913
999.927521
585.716963
198.894739
66.011548
14.678836
10.382533
9.285808
8.792877
7.976890
7.761717
7.277727
7.512569
7.920861
9.400845
12.355447
15.611649
21.497607
27.477741
34.665465
##ZVALUE=370
1.223683
1.345873
1.249909
1.297593
1.396537
1.191497
1.112819
1.210570
1.225471
1.155734
1.226664
1.273751
1.405478
1.313686
1.421571
1.306534
1.347661
1.329780
1.325607
1.335740
1.363754
1.476407
1.363754
1.335740
1.434684
1.482964
1.474619
1.317859
1.361966
1.573563
1.396537
1.434684
1.692772
1.603961
1.661777
1.641512
1.505613
1.431704
1.669526
1.795888
1.772642
1.740456
1.944900
2.043843
1.820922
1.982450
2.001524
1.911521
2.022982
2.010465
2.034903
2.184510
2.169609
2.424717
2.400875
2.563000
2.505779
2.710819
2.893806
3.056526
3.206730
3.547668
3.970861
4.280806
4.691482
5.049706
26.931763
34.005642
336.529613
363.950729
803.197026
1015.788913
1015.788913
1015.788913
1015.788913
1015.788913
1015.788913
1015.788913
1015.788913
1015.788317
737.376809
281.051993
88.214874
25.116801
10.533929
8.295774
7.688999
7.282495
6.820560
6.318688
6.392598
6.475449
6.804466
7.689595
10.393858
13.256669
##ZVALUE=375
1.236796
1.066923
1.195669
1.346469
1.202822
1.035929
1.225471
1.245737
1.132488
1.105666
1.183748
1.269579
1.189709
1.207590
1.185536
1.065731
1.098514
1.221895
1.308918
1.254678
1.329780
1.253486
1.318455
1.284480
1.309514
1.184940
1.241565
1.209974
1.304746
1.212955
1.344681
1.256466
1.398921
1.439452
1.414418
1.492500
1.337528
1.400709
1.556873
1.532435
1.442432
1.570582
1.533628
1.701713
1.676679
1.743436
1.588464
1.754761
1.803637
1.686811
1.883507
1.681447
1.667738
1.823902
2.092719
2.189875
2.034903
2.247691
2.343655
2.365708
2.651811
2.650619
2.846718
2.998710
3.128648
3.577471
3.632903
4.240870
14.445782
17.879605
90.192556
223.310590
580.021739
1015.788913
1015.788913
1015.788913
1015.788913
1015.788913
1015.788913
1015.788913
1015.788913
1015.788913
919.001102
440.270901
221.117735
61.604977
18.519759
8.469820
7.277727
6.892681
6.563663
6.162524
5.965829
5.632639
5.617738
6.006956
##ZVALUE=380
0.957847
1.082420
0.991821
0.986457
1.108646
1.019835
1.028776
0.992417
1.008511
1.157522
1.074672
1.126528
1.278520
1.054406
0.963807
1.083612
1.160502
1.026988
1.096725
0.979900
1.066923
0.995994
1.144409
1.066923
1.122952
1.217723
1.101494
1.091957
1.113415
1.104474
1.318455
1.210570
1.185536
1.217723
1.365542
1.321435
1.358986
1.398921
1.470447
1.478791
1.332760
1.416802
1.291633
1.531839
1.432896
1.544952
1.579523
1.577735
1.590848
1.579523
1.566410
1.719594
1.701713
1.779795
1.851916
1.840591
1.951456
2.053976
2.061725
2.009869
2.146959
2.288818
2.220869
2.455711
2.481937
2.813935
3.119707
3.598928
3.958941
4.601479
5.179644
9.803772
39.011836
181.448460
410.500765
944.696665
1015.788913
1015.788913
1015.788913
1015.788913
1015.788913
1015.788913
1015.788913
1015.788913
1010.172367
532.738566
268.757939
84.254742
29.441714
9.631515
7.322431
6.492734
6.222725
5.753636
5.662441
5.341768
##ZVALUE=385
1.011491
1.113415
1.129508
1.050830
0.953674
1.073480
1.048446
1.056790
0.882745
0.986457
0.991821
1.028776
1.012683
1.092553
1.005530
1.099706
1.073480
1.069903
1.125932
0.985861
1.050830
0.911951
1.121759
0.978708
1.176000
1.056790
1.181960
1.053810
1.192689
1.207590
1.224875
1.219511
1.284480
1.284480
1.369715
1.389980
1.316667
1.528859
1.395941
1.443624
1.549721
1.470447
1.488924
1.602769
1.371503
1.557469
1.560450
1.615882
1.655817
1.705885
1.622438
1.586676
1.668930
1.746416
1.667738
1.901984
1.833439
1.930594
1.879930
2.041459
1.956820
2.181530
2.189875
2.233982
2.455711
2.569556
2.769828
3.078580
3.358722
3.836751
4.454851
4.702806
4.986525
5.757809
23.054481
82.390904
297.601819
628.351569
1015.788913
1015.788913
1015.788913
1015.788913
1015.788913
1015.788913
1015.788913
1015.788913
1015.788913
903.008580
399.408937
188.694596
54.223537
16.662478
7.452965
6.878972
6.209612
5.980730
##ZVALUE=390
1.114607
1.019835
0.948906
1.053810
1.105666
1.121759
0.896454
0.962615
1.038909
1.074672
0.893474
1.063943
0.978708
1.075864
1.129508
1.090765
0.973940
0.982881
0.905991
1.213551
1.092553
1.196861
1.027584
1.117587
1.136661
0.978708
1.040697
1.196861
1.102686
1.226664
1.392961
1.207590
1.296997
1.358986
1.309514
1.525879
1.487732
1.753569
1.506805
1.589656
1.784563
1.445413
1.574755
1.620650
1.725554
1.610518
1.522899
1.690984
1.634955
1.885891
1.864433
1.766682
1.821518
1.750588
1.714826
1.714826
1.822710
2.063513
2.012849
2.032518
2.070665
2.158880
2.142787
2.343655
2.398491
2.634525
2.809763
2.959967
3.184676
3.666878
3.840923
4.183650
4.326701
4.457831
4.805923
5.202889
9.334683
56.750774
172.563791
511.451960
948.030949
1015.788913
1015.788913
1015.788913
1015.788913
1015.788913
1015.788913
1015.788913
1015.788913
1015.788913
740.195513
303.866863
134.225488
34.925938
11.351705
7.197857
##ZVALUE=395
1.073480
1.091957
0.933409
0.984669
1.027584
1.041889
0.948906
0.963807
1.090765
1.111627
1.201630
1.048446
1.040697
0.934601
0.993609
0.966787
1.029968
0.913739
0.978708
0.974536
1.047850
1.023412
0.926852
1.165867
1.045465
1.088977
1.039505
1.225471
1.246929
1.238585
1.282692
1.250505
1.338720
1.312494
1.455545
1.493692
1.574755
1.466870
1.612902
1.626611
1.693964
1.759529
1.754761
1.795888
1.791716
1.731515
1.867414
1.689792
1.822710
1.894832
1.866817
1.885891
1.886487
1.750588
1.910925
1.917481
2.065897
1.977682
2.037883
2.236962
2.032518
2.322793
2.258420
2.294779
2.404451
2.373457
2.650619
3.031492
3.119707
3.640652
3.646612
4.037619
4.105568
4.003644
4.162788
4.130602
4.331470
4.990697
6.325841
32.143593
124.231577
423.966646
822.350979
1015.788913
1015.788913
1015.788913
1015.788913
1015.788913
1015.788913
1015.788913
1015.788913
1015.788913
942.229629
448.065996
214.961767
67.832470
##ZVALUE=400
1.033545
1.049638
1.164675
1.002550
1.006722
0.964999
1.151562
1.142621
0.982881
1.131892
1.094937
1.250505
1.206994
1.368523
1.154542
1.098514
1.125932
1.163483
1.045465
0.930429
1.053810
1.297593
1.217723
0.989437
1.172423
1.182556
1.197457
1.313686
1.226664
1.361966
1.288652
1.217723
1.199841
1.512766
1.446605
1.544952
1.466870
1.583695
1.635551
1.579523
1.708865
1.638532
1.931787
1.848936
1.917481
1.768470
1.821518
2.105832
1.763701
1.769662
1.939535
1.700521
2.018809
1.986623
1.895428
1.986623
2.185702
1.995564
2.131462
2.289414
2.192855
2.328753
2.379417
2.295971
2.365708
2.685785
2.826452
2.983809
3.202558
3.500581
3.777742
3.938675
3.839731
3.955960
3.936887
3.966689
4.099607
4.058480
4.578829
5.111694
5.918741
21.518469
83.116889
291.747451
597.772002
1015.829444
1015.829444
1015.829444
1015.829444
1015.829444
1015.829444
1015.829444
1015.829444
1015.829444
1015.829444
653.808713
##END
