##TITLE=AAI0501
##FORMAT=SPECTACLE-ASCII V-1.2
##DATA TYPE=ULTRAVIOLET SPECTRUM
##SECOND TYPE=ULTRAVIOLET SPECTRUM
##DATE=11/28/17
##TIME=16:59:01
##SPECTROMETER/DATA SYSTEM=SPECTACLE
##XUNITS=NM EM
##YUNITS=ENERGY
##YFACTOR=1
##FIRSTX=220
##LASTX=410
##NPOINTS=96
##3DDATA=Equidistant
##ZUNITS=NM EX
##FIRSTZ=210
##LASTZ=400
##ZPOINTS=39
##XYDATA=(Y..Y)
##ZVALUE=210
5.333424
5.797744
5.838871
5.359650
5.373955
5.799532
5.250573
5.552769
5.711913
5.202889
4.328489
4.016757
3.470778
3.674626
3.518462
3.192425
3.376603
4.259944
4.065633
3.863573
4.798770
4.433990
4.685521
4.996657
4.898906
4.926920
5.345941
5.269647
5.784631
7.000566
5.822778
7.329583
5.937815
6.508827
6.498694
6.517768
6.943941
7.534623
7.605553
7.929802
8.634925
8.586645
9.789467
8.361936
7.472634
8.901954
8.586645
8.435845
8.817911
9.324551
9.266734
8.783937
9.933710
9.784698
9.841919
9.383559
9.235740
10.326505
10.231733
9.909868
9.543896
11.096597
10.056496
9.886622
10.305643
11.444688
12.098551
12.797713
14.595985
16.104579
19.785762
23.487806
25.673509
29.175878
32.502413
31.880736
32.644868
34.318566
32.704473
30.293465
27.086735
24.409890
22.913814
18.071532
16.033649
14.996529
11.907816
10.784864
10.668635
11.050701
9.289980
10.565519
11.022687
10.818839
10.522604
12.438893
##ZVALUE=215
15.582442
15.485883
14.138818
12.422800
11.194944
10.012984
10.837913
9.580851
9.282827
9.678602
8.311868
8.071661
7.284880
5.461574
5.227923
4.212856
4.365444
3.739595
3.899932
4.701614
4.484653
4.763603
5.145669
5.404949
6.356835
5.629659
5.515814
5.801916
6.703734
6.166697
6.813407
6.814599
7.030964
7.311702
7.282495
8.035898
8.499622
8.329749
8.601546
8.246899
8.006692
8.307695
9.257793
8.715987
8.334517
9.371638
8.998513
9.398460
10.079741
9.553432
9.796619
9.479523
9.699464
10.404587
10.661483
11.181831
10.395646
10.357499
10.974407
10.122657
10.690689
11.548996
9.881854
11.119843
11.212826
12.005568
11.619925
13.538599
12.737513
16.674995
18.846989
23.132563
25.935769
27.884841
30.288696
30.834675
31.185746
31.195879
28.660893
27.744770
25.726557
23.518801
20.832419
17.394423
16.317964
13.941526
13.711452
11.801720
11.681914
11.193752
10.210872
9.360909
9.439588
9.620786
9.826422
9.863973
##ZVALUE=220
41.504502
44.740438
44.153929
44.992566
38.173795
33.404827
28.089881
20.151734
19.331574
18.144846
17.157793
19.252896
17.365813
15.729666
12.591481
10.907650
7.945895
6.304979
5.741715
4.529953
4.997849
5.422831
5.177855
4.538894
6.010532
7.083416
5.638599
6.363988
7.081628
6.611943
6.947517
7.096529
7.158518
7.236600
8.496642
9.173751
8.392930
8.708835
8.270741
8.557439
9.476542
9.508729
8.884668
8.911490
11.149645
10.188818
8.858442
10.349751
9.051561
10.601878
11.230707
10.488629
12.241602
10.384917
10.072589
11.330843
12.583733
10.890961
11.182427
11.177659
11.467934
11.635423
12.327433
11.180639
11.778474
11.598468
12.706518
14.027953
16.036630
17.068982
19.008517
24.322867
25.570989
27.506948
29.433966
30.980706
32.668710
29.632449
30.204654
29.129982
27.234554
24.868846
21.527410
17.671585
16.880631
13.606548
13.196468
12.510419
10.922551
11.348724
11.565685
10.807514
11.578798
10.499954
10.435581
9.868741
##ZVALUE=225
61.462522
63.979626
89.599490
104.386806
119.408965
110.727549
99.282861
78.339577
58.852434
43.507814
34.640431
31.101704
32.798648
31.003952
31.758547
30.014515
23.400784
18.603802
16.593933
10.527968
8.509755
6.456971
6.076694
5.903840
5.710721
7.207990
6.529689
6.369948
7.118583
7.028580
7.391572
7.542968
7.886887
8.267760
8.443594
8.218884
8.286834
9.019971
10.164976
9.848475
8.598566
9.903908
10.056496
10.982752
11.106730
9.642839
10.844469
10.637641
11.696815
11.413693
10.668635
11.262894
12.175441
11.237860
11.948943
11.829734
11.735559
12.932420
12.327433
11.777878
12.094975
12.145638
12.914538
12.360811
13.569593
13.178587
13.374686
13.903975
16.554594
19.181967
20.195842
21.693707
24.604797
28.059483
28.192997
28.621554
29.664636
28.922558
27.423501
27.120709
24.748445
22.435784
19.168854
16.734600
17.452836
15.289783
14.009476
14.096498
12.561679
12.820959
11.460781
11.759996
11.744499
11.960864
11.756420
12.568831
##ZVALUE=230
46.515465
52.014589
83.430409
137.631893
179.070830
223.919749
246.557593
247.083902
220.740438
184.352994
125.569701
87.552667
61.395764
51.304698
49.438477
52.686930
56.635737
51.698685
49.600601
38.621426
30.556917
19.648671
14.115572
9.994507
7.914901
7.579923
7.354617
8.094907
7.693768
7.396936
7.731915
7.787943
9.035468
8.883476
9.011626
10.563731
9.447932
11.230707
10.173917
10.649562
11.625886
10.672808
10.340810
11.158586
10.870695
10.687709
10.750890
11.355877
11.189580
11.606812
11.023879
12.157559
12.686849
12.860894
13.397932
13.494492
13.518929
14.071465
13.002753
14.532804
15.109777
15.536547
13.594627
14.183521
15.325546
16.497970
16.867518
16.204715
18.055439
20.123720
21.474957
24.114847
26.212931
27.784705
30.123591
30.254722
30.681491
29.736757
28.916597
26.495457
23.980737
23.184419
22.626519
18.204451
18.475652
16.679764
16.081929
15.164614
15.329719
13.886690
14.155507
14.054775
12.693405
13.322830
12.999773
13.807416
##ZVALUE=235
14.950633
17.177463
36.235452
89.162588
152.309537
246.493816
316.128731
414.303541
458.630919
455.868840
399.677753
324.284434
219.232440
155.769587
105.712414
83.132982
75.306892
78.536868
82.562566
82.588792
75.914860
65.266490
54.807663
37.947893
25.677681
17.106533
13.334751
9.626746
10.303855
9.645820
8.175969
9.727478
8.750558
9.633899
9.034872
9.529591
10.453463
10.693669
10.070801
9.553432
9.889603
10.796785
10.492802
11.457801
11.205673
11.801720
12.674928
12.053847
12.224913
12.033582
12.725592
13.157725
14.670491
13.455749
14.279485
13.235807
14.494658
13.405681
14.837980
14.060736
15.624762
15.252829
15.876889
15.206933
16.098619
15.617609
17.637610
17.115474
20.405650
21.496415
25.758743
27.964711
28.017759
30.175447
31.912923
35.927892
34.488440
29.722452
30.718446
27.370453
26.238561
25.087595
23.660660
21.319985
20.369887
18.498898
18.604994
19.789934
17.459989
16.512871
14.749765
17.437935
15.918612
16.037822
15.961528
16.109943
##ZVALUE=240
2.890825
3.616810
6.660819
20.334721
54.549575
102.469921
214.901567
329.099894
506.100655
620.251894
693.435669
696.161985
636.387467
498.808622
389.923453
240.251422
171.575546
113.229752
97.745657
94.147921
107.426643
110.656619
108.527541
99.102855
80.914497
66.102743
46.023726
35.486817
21.755695
16.305447
13.042688
10.190606
9.658933
10.285974
11.374950
9.989738
11.088848
10.227561
10.365844
10.894537
11.038780
11.099577
11.028647
11.383891
11.436939
11.442900
12.103915
12.437701
11.390448
12.784600
12.410879
13.781786
13.079643
12.781620
12.167692
14.973879
13.089776
13.630986
13.984442
15.195608
15.299916
15.024543
15.750527
15.989542
15.630722
16.327500
16.844869
18.538833
19.795895
20.482540
22.897720
26.671886
30.837655
30.878782
32.475591
33.432841
33.537745
33.004880
29.456615
30.483603
28.193593
25.809407
23.300648
22.871494
21.886826
20.489693
20.435452
20.026565
18.689632
18.129945
17.517805
16.515851
18.701553
19.404888
18.466711
18.136501
##ZVALUE=245
2.947450
2.414584
2.621412
2.843738
5.670786
15.344620
45.264959
104.118586
230.574608
358.590484
570.946932
720.027685
816.946030
883.158445
842.388868
693.567991
562.289953
378.056765
258.540511
146.993995
109.328628
98.479986
106.493831
117.466450
123.004913
122.744441
108.509660
91.400743
70.714951
53.536892
39.479733
24.668574
18.321872
12.316704
11.286736
10.219812
9.655952
10.609627
10.382533
9.929538
10.675788
10.769963
10.626912
9.966493
9.813905
10.408759
10.635853
10.768771
11.210442
11.150837
11.111498
11.395812
10.952950
12.009740
11.364818
12.305975
12.160540
12.413859
12.211800
12.302995
11.520982
12.995601
12.439489
13.408661
14.768839
14.539957
14.587641
15.141964
16.873479
18.550754
21.588802
22.921562
24.172664
27.515888
27.705431
27.061701
27.555823
27.230978
26.307702
23.988485
22.505522
21.770000
21.086931
19.174814
17.739534
17.388463
16.328692
16.347766
16.444921
16.405582
15.729666
15.821457
17.256737
16.951561
14.350414
14.989972
##ZVALUE=250
2.616644
2.389550
2.330542
2.201796
2.408624
2.591610
3.256798
9.072423
37.518740
87.524652
213.785768
356.215835
527.895689
766.828656
926.105976
1015.788913
1012.759805
919.866562
766.429901
527.634621
360.024571
237.670541
130.042434
98.541975
99.647641
112.827420
127.756596
131.111741
128.019452
116.799474
100.495815
77.326894
58.524609
36.107898
24.096966
14.646649
12.054443
10.197759
9.250641
9.371638
9.195805
9.635687
10.423660
9.106994
9.536743
9.274483
9.670854
9.531975
10.169744
9.864569
9.541512
9.792447
10.340810
10.473728
9.878874
10.423660
10.365844
10.091662
10.134578
10.968447
11.253953
11.328459
10.776520
10.830760
10.724664
12.194514
12.893677
12.660623
14.520884
15.624762
17.485619
19.740462
19.290447
22.766590
24.131536
23.621917
23.170710
21.498799
21.606684
20.660758
19.378662
18.427968
18.206835
18.186569
16.943812
14.604926
15.891790
14.501810
14.365911
14.426708
14.088750
13.605952
14.850497
13.870597
13.553500
13.793707
##ZVALUE=255
1.838803
2.299547
1.912713
2.320409
2.068877
2.070665
2.380610
2.520680
2.939701
5.487800
27.896762
69.623590
145.640969
322.711468
503.297448
789.850950
979.697704
1015.788913
1015.788913
1015.788913
984.474421
772.576928
478.023887
304.786563
156.228542
105.715990
87.747574
96.147656
120.777488
131.096840
137.970448
136.807561
123.371482
100.878477
80.377460
54.083467
38.750768
23.515821
16.154647
11.678934
9.403825
9.132624
9.240508
8.440614
8.602738
9.016991
8.809566
9.257793
8.783937
9.281635
9.226799
8.941889
9.467602
9.990931
9.591579
9.399652
9.234548
9.692907
8.928776
8.939505
8.779764
9.680986
9.671450
9.512901
10.002851
10.686517
12.112856
11.130571
11.897683
14.094710
15.220642
16.717911
17.570853
18.767715
18.852949
19.319654
20.108819
18.263459
18.417835
17.389655
17.235875
16.253591
15.307665
13.742447
13.068914
13.318658
13.650656
13.586879
13.843775
12.747645
12.945533
12.584925
12.225509
12.939572
12.597442
13.122559
##ZVALUE=260
1.706481
2.127886
1.977682
1.858473
2.163649
2.008677
1.973510
2.287626
2.140999
2.311468
2.404451
4.113913
13.531446
56.169629
119.913816
228.072405
468.302965
700.346828
1002.264619
1015.788913
1015.788913
1015.788913
1015.788913
958.979726
638.122559
417.685509
264.954567
131.163597
89.553595
80.369711
92.523694
121.748447
134.871602
144.936442
142.430663
126.771927
107.914805
80.547929
58.495402
37.511587
24.086833
14.997721
11.421442
8.485913
8.366704
7.491708
8.001924
8.318424
8.769631
8.119941
8.046627
8.284450
7.878542
8.265972
8.407831
8.111596
8.171797
7.921457
7.793903
9.046793
8.847713
8.253455
8.324981
8.922815
8.528829
9.204745
8.761883
9.915829
10.786653
11.644959
13.303757
13.795495
14.803410
16.390681
15.618801
16.685724
16.093850
14.741421
14.809966
14.384985
13.563633
13.125539
12.419820
11.945963
11.349916
11.215806
11.194944
11.445880
11.002421
10.746717
11.063814
10.590553
10.920763
11.245608
11.390448
11.558533
##ZVALUE=265
1.856685
1.695752
1.706481
1.679659
1.697540
1.656413
1.907945
1.841784
1.893640
2.071857
2.317429
2.284646
2.427697
2.853870
6.473660
35.056472
88.010430
227.789879
398.271680
738.708973
995.013714
1015.788913
1015.788913
1015.788913
1015.788913
1015.788913
900.406837
633.876920
356.549621
211.320519
123.631954
75.913668
77.745914
103.208423
121.685863
141.374469
145.727992
139.328837
127.636790
103.146434
82.396865
55.909753
38.845539
22.355914
14.895797
9.915829
8.127689
7.891655
8.104444
7.981658
7.841587
7.423759
8.395910
7.723570
8.424520
8.125901
7.941723
7.895827
8.003712
8.502603
7.675886
7.924438
8.815527
8.319616
8.120537
8.096695
8.811951
9.129643
10.401607
10.538697
11.500716
13.010502
13.733506
14.180541
14.131665
14.042854
14.492869
14.290810
13.005733
12.697577
12.209415
10.508895
11.095405
11.484623
10.403991
10.451674
10.205507
10.122657
10.607839
9.996891
10.608435
9.560585
10.128617
10.738969
9.928942
10.275841
##ZVALUE=270
1.691580
1.850724
1.723766
1.418591
1.909733
1.837611
1.780987
1.679659
2.016425
1.780987
2.054572
2.158880
2.078414
2.533793
2.585649
2.515912
3.655553
16.140938
51.369667
171.865821
337.118506
583.610535
982.791781
1015.802622
1015.802622
1015.802622
1015.802622
1015.802622
1015.802622
838.589072
560.512543
295.802951
160.280466
75.421929
62.558651
80.645680
101.240873
126.120448
141.524673
148.285627
145.581961
125.710964
107.669830
78.455806
57.522655
34.575462
24.320483
15.141964
10.885596
9.118915
8.166432
7.852912
8.058548
7.836819
7.474422
8.065701
8.109808
7.928610
7.964969
7.339716
7.888675
7.689595
7.764697
7.723570
8.324981
8.263588
8.466840
8.944869
9.311438
9.668469
10.415912
12.126565
12.966990
12.936592
13.079643
12.696981
12.772679
12.599826
12.283921
10.615587
10.738969
10.921955
10.065436
10.214448
9.993911
9.292960
9.333491
10.072589
9.748936
9.492636
9.229779
9.303689
9.239912
9.742975
9.833574
9.911656
##ZVALUE=275
1.678467
1.495481
1.560450
1.500845
1.797676
1.616478
1.682639
1.746416
1.627803
1.845956
1.673698
1.938939
1.614690
2.073646
2.383590
2.171993
2.292991
2.615452
2.654791
6.604791
26.539564
115.233660
248.380899
542.945862
855.367780
1015.788913
1015.788913
1015.788913
1015.788913
1015.788913
1015.788913
997.026563
717.692971
382.055640
216.387510
94.549656
58.091879
56.511760
74.206591
100.307465
121.953487
137.240887
144.319534
140.305758
127.889514
101.366639
82.113743
55.624843
40.263534
24.727583
16.269684
10.642409
8.644462
7.599592
7.815957
7.350445
7.718801
7.399917
7.780790
7.669926
7.530451
7.310510
7.729530
7.738471
7.719994
7.610917
8.205771
8.574724
8.695722
9.470582
10.446906
11.062622
12.171865
12.577772
13.133883
12.508631
12.142658
11.827946
11.618733
10.339618
10.046959
10.011792
10.099411
9.254813
8.832812
8.776784
8.874536
9.112954
8.753538
8.871555
8.668900
9.022951
8.970499
8.378625
9.019971
8.809566
##ZVALUE=280
1.284480
1.576543
1.578927
1.734495
1.531839
1.541972
1.603961
1.681447
1.627803
1.807809
1.785755
1.899600
1.966953
2.084970
2.113581
2.221465
2.270937
2.398491
2.501607
2.675653
2.920628
3.709793
19.977689
70.754886
224.414468
415.570736
767.465830
1015.870571
1015.870571
1015.870571
1015.870571
1015.870571
1015.870571
1015.870571
961.225629
532.981753
310.193896
129.777789
65.382719
43.765903
51.645637
75.734854
96.711516
122.156739
134.702921
143.091679
136.016607
121.047497
104.515553
78.843832
59.151649
38.692951
26.337504
15.581846
11.451840
8.564591
7.743835
7.248521
7.370710
7.460713
7.284880
7.578731
7.230639
7.107854
7.354617
7.763505
8.369684
8.302927
8.557439
9.744763
9.965897
10.703802
11.282563
11.442900
11.191964
11.783838
11.210442
11.061430
10.998845
10.124445
10.283589
9.379983
9.306669
9.413958
9.329915
8.940697
8.792877
8.615851
8.643866
8.884668
8.745790
8.932948
8.819699
8.576512
8.578897
8.557439
##ZVALUE=285
1.691580
1.631975
1.791716
1.851916
1.635551
1.565814
1.735687
1.702905
1.762509
1.680851
1.931787
1.730919
1.922846
1.803637
1.953840
1.990795
2.177954
2.258420
2.333522
2.491474
2.589822
2.870560
3.105998
3.390908
10.220408
36.920905
130.939484
279.326439
605.997443
929.734707
1016.016006
1016.016006
1016.016006
1016.016006
1016.016006
1016.016006
1016.016006
753.719807
458.552837
209.484696
103.401542
41.631460
35.681725
51.526427
68.952441
97.360611
112.913847
129.463673
135.757923
134.533644
122.218728
101.803541
83.479881
57.958961
41.696429
24.184585
17.436743
11.264682
8.788705
7.933974
7.723570
7.501841
7.531643
8.039474
7.605553
8.163452
8.040667
8.524656
9.675622
9.461641
9.950995
11.077523
10.642409
10.975599
11.473894
11.200905
11.154413
10.544658
10.204911
10.279417
9.936690
9.672642
9.214878
9.264946
8.839965
8.476973
8.848906
8.696914
8.757710
8.433461
8.587837
8.887649
8.479953
8.490682
8.541942
8.627772
##ZVALUE=290
1.588464
1.478791
1.384616
1.318455
1.626611
1.717806
1.487732
1.483560
1.639724
1.549721
1.838803
1.541972
1.808405
1.741648
1.686811
1.790524
1.643896
1.974702
1.968741
2.009869
2.278686
2.318621
2.338886
2.615452
2.976656
2.928972
4.900694
15.228987
77.502728
182.927847
439.651608
757.404566
1015.916467
1015.916467
1015.916467
1015.916467
1015.916467
1015.916467
1015.916467
962.010622
630.515814
309.611559
156.739950
53.347945
29.658675
33.704638
44.806600
67.166686
85.988641
109.487772
123.065710
133.509636
131.980777
121.318698
103.241801
77.358484
57.243705
37.877560
26.409626
17.236471
12.283921
8.770823
7.797480
7.404685
7.564425
7.657409
8.127689
8.480549
8.400679
9.353757
9.416938
10.296702
10.540485
10.579824
10.782480
10.910630
10.397434
10.300875
9.582639
9.335876
9.001493
9.246469
8.614659
8.999705
8.425713
8.886456
8.392930
8.659959
8.708835
8.559823
8.514524
9.100437
7.896423
8.711815
8.505583
8.791685
##ZVALUE=295
1.370907
1.280904
1.435876
1.347661
1.188517
1.091957
1.278520
1.273751
1.341701
1.638532
1.507998
1.400709
1.450777
1.587868
1.591444
1.450777
1.430511
1.699924
1.635551
1.790524
1.673698
1.914501
2.099872
2.226830
2.402663
2.550483
2.534986
3.095865
3.505945
6.708503
37.886500
113.158822
264.279842
630.159974
976.528525
1015.788913
1015.788913
1015.788913
1015.788913
1015.788913
1015.788913
1015.788913
798.564553
489.496589
98.076463
88.267922
22.665858
22.261739
40.541887
43.245554
62.491894
99.630952
102.608800
124.235749
126.291513
124.862790
98.904967
87.919831
58.993697
54.168701
31.598806
25.779605
13.123751
11.603832
9.075999
7.941723
7.304549
7.905960
8.912683
8.694530
9.110570
9.839535
9.810925
10.480881
10.578632
10.179877
9.732842
9.516478
9.036660
8.735657
9.108782
8.894801
8.785725
8.268952
8.936524
8.545518
8.777976
8.447766
8.884668
8.488894
8.172989
8.417964
8.281469
8.256435
7.952452
8.060932
##ZVALUE=300
1.103878
1.419783
1.356602
1.239777
1.176596
1.270771
1.411438
1.238585
1.465678
1.269579
1.461506
1.452565
1.373887
1.554489
1.359582
1.387596
1.526475
1.625419
1.772642
1.687407
1.600981
2.082586
1.794696
2.033710
1.977682
2.157688
2.297759
2.486706
2.788901
2.648830
3.204942
3.993511
14.984608
56.925416
203.808546
408.968925
831.857920
1015.788913
1015.788913
1015.788913
1015.788913
1015.788913
1015.788913
1015.788913
1005.011797
689.812899
345.152617
177.987814
58.028698
25.458932
19.596815
25.453568
38.243532
52.548647
75.298548
92.738867
112.819672
119.685531
119.440556
112.095475
93.689561
76.641440
54.056644
40.181875
24.948716
17.584562
11.784434
9.759665
8.047819
8.457899
8.829832
9.491444
9.702444
9.205937
9.764433
9.771585
9.254813
9.322762
8.731484
8.723736
8.696914
8.602738
8.413792
8.843541
8.635521
8.471608
8.192658
8.178949
8.006692
8.553863
8.147955
7.934570
8.080602
7.967949
7.871985
8.157492
##ZVALUE=305
1.334548
1.300573
1.105666
1.321435
1.369715
1.412630
1.201630
1.340508
1.564622
1.277924
1.405478
1.287460
1.343489
1.414418
1.474619
1.459718
1.408458
1.471639
1.523495
1.800656
1.489520
1.732707
1.765490
1.614690
2.011657
1.913905
2.154708
2.226830
2.382994
2.378821
2.664924
2.690554
3.120899
3.717542
9.006858
33.716559
140.716434
310.426950
697.780848
1015.788913
1015.788913
1015.788913
1015.788913
1015.788913
1015.788913
1015.788913
1015.788913
929.161906
479.545593
263.976455
99.921823
38.627982
16.275644
17.354488
24.979711
34.591556
53.939819
70.027709
90.249777
102.260709
112.764835
112.674832
104.405880
91.537833
69.990754
54.489970
36.920905
26.646852
16.198754
12.465715
9.998679
9.508729
9.060502
9.409785
9.302497
9.332895
8.953810
8.867979
8.593798
8.364916
8.442998
8.526444
8.307695
8.302927
8.548498
8.197427
8.239746
8.395910
8.080602
8.232594
8.267760
8.064508
8.076429
8.147955
7.836819
8.133650
##ZVALUE=310
1.025796
1.127720
1.162887
1.161695
1.211762
1.129508
1.133680
1.312494
1.241565
1.296997
1.364946
1.313686
1.321435
1.413822
1.260638
1.389980
1.497865
1.478791
1.186728
1.358986
1.578927
1.752973
1.761913
1.509786
1.591444
1.585484
1.771450
1.817942
1.769662
1.999736
1.982450
2.258420
2.481937
2.588630
3.124475
3.430843
4.180670
19.520521
66.250563
222.001672
435.514450
884.487033
1015.788913
1015.788913
1015.788913
1015.788913
1015.788913
1015.788913
1015.788913
1015.788913
767.005086
381.741524
201.643705
66.141486
24.478436
13.428926
15.600920
22.374988
31.300783
47.103763
62.103868
82.420707
95.193982
106.059909
106.513500
99.405646
88.666677
68.703890
53.867698
37.108660
27.021766
18.084645
13.858676
10.927916
9.851456
9.320974
8.912683
8.452535
7.786751
8.225441
8.283854
7.716417
8.261800
8.584857
8.320808
8.263588
8.667707
8.370876
8.486509
8.179545
8.366704
8.213520
7.739663
7.945895
7.897615
7.782578
##ZVALUE=315
1.168847
1.222491
0.963807
1.157522
1.223683
1.208782
1.151562
1.303554
1.192689
1.084805
1.306534
1.197457
1.362562
1.235604
1.318455
1.272559
1.357794
1.184940
1.377463
1.387596
1.479983
1.424551
1.408458
1.394749
1.582503
1.660585
1.654625
1.929998
1.975894
1.984835
1.907945
2.187490
2.249479
2.267957
2.443790
2.630949
2.880692
3.039837
3.775954
7.013679
42.091608
119.045973
340.465903
618.185997
1015.788913
1015.788913
1015.788913
1015.788913
1015.788913
1015.788913
1015.788913
1015.788913
936.551690
584.674478
266.979933
124.557614
31.430721
14.138818
12.208819
14.146566
20.283461
28.375983
42.094588
56.687593
77.268481
88.835955
97.756982
99.393725
93.754530
82.502961
65.370798
52.472949
37.388802
26.798844
17.726421
13.381839
10.532737
9.260774
8.438826
8.147955
8.446574
7.966757
8.052588
8.365512
8.232594
8.084774
8.035898
8.256435
8.152723
8.156896
8.199811
7.992983
8.018613
8.462667
8.201599
7.896423
##ZVALUE=320
1.160502
1.151562
1.187921
1.262426
1.095533
1.159906
1.372695
1.210570
1.115799
1.208782
1.121759
1.121759
1.239777
1.216531
1.329780
1.154542
1.384616
1.312494
1.229644
1.273751
1.248717
1.304746
1.505613
1.267791
1.618862
1.434684
1.357794
1.519918
1.688600
1.783967
1.781583
1.739860
1.908541
2.233982
2.294779
2.282858
2.532601
2.591610
2.872944
3.171563
3.487468
4.882812
15.989542
83.317757
207.372904
532.748699
871.703029
1015.788913
1015.788913
1015.788913
1015.788913
1015.788913
1015.788913
1015.788913
1015.788913
708.077550
400.989056
168.476701
72.204471
18.893480
11.414886
10.937452
12.946725
18.505454
25.462508
40.030479
52.755475
70.270896
82.195997
93.548894
96.391439
89.236498
80.952644
63.634515
50.572753
35.007000
25.000572
16.721487
12.594461
9.528995
8.614659
8.609891
8.143783
7.982850
8.105636
7.881522
7.917881
8.124709
8.389950
8.021593
8.222461
8.023977
7.964969
7.969737
7.843971
8.065701
##ZVALUE=325
1.063943
1.070499
1.212955
1.131892
1.100898
1.149774
1.292825
1.135468
1.193881
1.170635
1.320839
1.274943
1.068711
1.166463
1.330972
1.255870
1.367927
1.293421
1.192689
1.279712
1.465678
1.415610
1.332760
1.303554
1.454949
1.409650
1.535416
1.444817
1.658797
1.488924
1.482964
1.599789
1.914501
1.958609
1.951456
2.053976
1.987815
2.265573
2.502799
2.495646
2.602935
3.045797
3.019571
3.596544
9.033680
54.368973
140.542984
366.726518
650.969744
1015.788913
1015.788913
1015.788913
1015.788913
1015.788913
1015.788913
1015.788913
1015.788913
857.994556
522.612929
232.923627
105.345845
27.895570
12.394786
10.020733
10.492802
12.393594
17.026663
25.485754
36.243796
53.219795
65.475702
80.983639
88.183880
89.312792
85.040927
72.980523
61.336756
44.497848
33.481717
21.897554
16.227961
11.726618
9.629726
8.773804
8.696914
8.071661
8.021593
8.222461
8.340478
8.056760
8.221865
8.143783
7.745624
7.839799
7.852912
7.779598
##ZVALUE=330
1.217723
1.088977
1.256466
1.104474
1.058578
1.018643
0.988841
0.995994
1.166463
1.134872
1.044869
1.132488
1.076460
1.119971
1.216531
1.131892
1.298785
1.164675
1.156926
1.298785
1.264811
1.320839
1.305938
1.264811
1.144409
1.444817
1.512766
1.396537
1.460910
1.533628
1.533628
1.730919
1.761913
1.622438
1.827478
1.783967
1.842976
2.080798
2.076626
2.153516
2.527833
2.589822
2.624989
2.962947
3.203750
3.596544
4.861951
26.832819
84.681511
266.076922
504.958034
968.886018
1015.788913
1015.788913
1015.788913
1015.788913
1015.788913
1015.788913
1015.788913
1015.788913
721.568465
332.085490
162.267685
52.078962
18.888712
9.780526
9.617805
10.199547
12.040734
17.822981
24.580956
35.635829
47.045946
63.575506
73.376894
81.767440
83.176494
78.005791
69.887638
54.540634
43.229461
29.542446
23.055673
15.965700
12.652874
10.123849
8.840561
8.301735
7.890463
7.926822
7.897615
7.825494
7.648468
7.706881
7.634759
7.550716
##ZVALUE=335
1.063943
1.048446
1.030564
0.996590
0.988841
1.169443
0.998974
1.056790
1.044869
1.144409
1.179576
1.034737
1.207590
1.129508
1.045465
1.100898
1.165867
1.349449
1.222491
1.247525
1.254678
1.129508
1.375675
1.290441
1.298785
1.246929
1.263618
1.448989
1.319647
1.238585
1.427531
1.426935
1.597404
1.481771
1.603961
1.574755
1.750588
1.804829
1.874566
1.995564
2.017617
2.094507
2.239943
2.509952
2.569556
2.793670
3.045797
3.391504
4.021525
11.876822
45.197606
169.585943
344.922543
755.167603
1015.788913
1015.788913
1015.788913
1015.788913
1015.788913
1015.788913
1015.788913
1015.788913
996.332765
542.107821
292.270780
96.742511
31.905770
11.013746
9.918809
10.131001
10.516644
12.724996
16.417503
24.572611
33.588409
47.821999
57.800412
70.343614
76.060891
77.737570
73.706508
63.747764
54.073930
40.808916
31.615496
22.147894
16.497970
11.846423
9.839535
8.562803
8.095503
7.670522
7.811785
7.626414
7.336736
7.317662
##ZVALUE=340
1.013875
0.903606
0.947714
0.840425
0.892878
0.917912
0.853539
1.037717
1.039505
0.933409
1.051426
1.014471
1.010895
1.168847
1.185536
0.949502
1.156926
1.145601
1.091957
1.112819
1.158714
1.123548
1.221895
1.053810
1.241565
1.244545
1.094937
1.271963
1.399517
1.296997
1.251698
1.333952
1.360774
1.492500
1.337528
1.425743
1.596808
1.620650
1.448989
1.820922
1.795888
1.871586
1.807809
2.163649
2.163649
2.120733
2.313852
2.630949
2.799630
3.086925
3.349781
5.885959
21.474957
104.673505
243.038535
581.540465
954.793692
1015.720963
1015.720963
1015.720963
1015.720963
1015.720963
1015.720963
1015.720963
1015.720963
606.084466
333.873630
130.373836
47.929883
13.145804
9.985566
9.586811
9.727478
10.551810
11.844635
16.331673
21.592975
32.293797
41.668415
55.943727
64.328909
71.184635
72.390437
68.485737
61.756968
50.947666
41.785836
29.445887
23.179650
16.149879
12.145638
9.437799
8.515716
7.781982
7.370710
7.389784
##ZVALUE=345
1.016855
1.066923
0.981688
1.111627
1.148582
0.986457
1.095533
1.130700
1.114607
1.213551
1.187921
1.032948
0.904799
1.114607
0.944734
1.226664
1.096725
1.096725
1.176000
1.070499
1.138449
1.085997
1.079440
1.256466
1.208782
1.176000
1.240969
1.390576
1.253486
1.199841
1.380444
1.472831
1.317859
1.402497
1.471639
1.540780
1.496673
1.637936
1.546741
1.708865
1.614690
1.724958
1.794696
2.023578
1.835823
2.000928
2.058744
2.254844
2.392530
2.469420
2.703667
3.081560
3.175735
4.069805
10.027885
66.894889
174.899697
427.338481
727.916956
1015.788913
1015.788913
1015.788913
1015.788913
1015.788913
1015.788913
1015.788913
1015.788913
835.219026
475.374460
184.962749
78.151822
22.028685
11.405945
9.601712
9.498596
8.962750
9.312630
11.100769
13.587475
20.280480
27.974844
39.172769
48.679709
59.650540
64.230561
67.516565
64.858794
57.936907
50.499439
39.279461
30.795932
21.355748
16.354918
11.530519
9.441972
8.151531
##ZVALUE=350
1.028776
1.110435
1.063943
1.171827
1.137853
1.211762
1.138449
1.056790
1.044869
1.038909
1.037717
1.215935
1.006722
1.119971
1.096725
1.104474
1.253486
1.019835
1.058578
1.160502
1.054406
1.202822
1.240969
1.153946
1.192689
1.199841
1.212955
1.336932
1.223683
1.259446
1.295805
1.259446
1.386404
1.321435
1.297593
1.448989
1.315475
1.455545
1.563430
1.660585
1.668930
1.725554
1.769662
1.838803
1.570582
1.757741
1.917481
2.207756
1.944900
2.251863
2.293587
2.370477
2.593994
2.834797
3.182888
3.540516
5.785823
34.870505
104.940534
297.462940
543.306470
991.596580
1015.788913
1015.788913
1015.788913
1015.788913
1015.788913
1015.788913
1015.788913
903.227925
552.295446
241.473913
104.476810
26.740432
11.683702
9.020567
8.773804
8.291602
7.991791
8.614659
9.887815
13.573766
18.044710
25.513768
32.988787
43.631792
51.624775
58.620572
60.989857
59.216619
55.121779
45.947433
38.046837
27.735829
21.500587
15.349984
##ZVALUE=355
1.083612
1.110435
1.150966
1.077652
0.820756
0.896454
0.987649
1.034737
1.090765
1.271963
1.099706
1.179576
1.082420
1.170635
1.238585
0.925660
1.021624
1.066923
1.134872
1.209974
1.138449
1.309514
1.154542
1.298785
1.202822
1.083612
1.272559
1.161695
1.191497
1.301765
1.377463
1.284480
1.276731
1.215935
1.333952
1.370907
1.312494
1.395941
1.510978
1.532435
1.462698
1.573563
1.632571
1.517534
1.637936
1.701713
1.830459
1.770854
1.836419
2.027750
2.046824
2.322793
2.500415
2.547503
2.468824
2.765656
3.141761
3.469586
4.265904
16.695857
60.191751
215.659738
426.096916
848.962665
1015.735865
1015.735865
1015.735865
1015.735865
1015.735865
1015.735865
1015.735865
1015.735865
735.052824
335.936546
160.210729
44.373870
15.469790
9.304881
8.462667
8.029938
7.697940
7.712841
8.084774
9.415746
11.538863
16.541481
21.864772
30.349493
37.536621
46.549439
51.881671
55.495501
54.804683
50.519705
44.469833
35.909414
##ZVALUE=360
1.173615
1.206994
1.185536
1.141429
1.186728
1.218915
1.026988
1.242757
1.243949
1.059771
1.248717
1.135468
1.236796
1.228452
1.232624
1.213551
1.347661
1.350641
1.323819
1.230836
1.176000
1.157522
1.287460
1.325607
1.129508
1.196861
1.244545
1.349449
1.302958
1.288652
1.277924
1.353621
1.393557
1.432896
1.513958
1.503825
1.558661
1.511574
1.427531
1.548529
1.707673
1.535416
1.561642
1.633763
1.669526
1.756549
1.693964
1.893640
1.933575
2.124906
2.297759
2.164841
2.136827
2.362728
2.376437
2.490878
2.619624
2.907515
3.267527
3.617406
4.068613
7.298589
25.656819
116.342902
266.068578
626.213551
986.815691
1015.784740
1015.784740
1015.784740
1015.784740
1015.784740
1015.784740
1015.784740
945.120454
471.092463
251.258612
87.750554
30.449629
10.014772
8.675456
8.016825
7.634759
7.137656
7.268786
7.509589
8.052588
10.081530
13.059974
18.465519
23.788810
33.350587
39.207935
46.024919
48.867464
50.179958
##ZVALUE=365
1.159906
1.001954
1.057982
1.081824
1.087785
1.092553
1.233816
1.122952
1.233816
1.165867
1.075864
1.050830
1.359582
1.135468
1.096725
1.132488
1.320839
1.211762
1.199841
1.178980
1.264811
1.151562
1.172423
1.324415
1.318455
1.367927
1.237988
1.319647
1.362562
1.377463
1.387596
1.311898
1.372695
1.429915
1.385808
1.614690
1.572967
1.571774
1.447797
1.617670
1.625419
1.625419
1.441836
1.595616
1.586676
1.644492
1.828671
1.780987
1.717806
1.874566
1.982450
1.910925
2.051592
2.013445
2.151728
2.319813
2.242923
2.437830
2.645850
2.701879
3.170967
3.609657
3.888607
4.563928
10.721684
63.080788
165.050030
424.056649
760.587454
1015.830636
1015.830636
1015.830636
1015.830636
1015.830636
1015.830636
1015.830636
1002.078056
581.554770
315.502882
111.937523
40.400624
10.828972
7.948875
7.488728
6.974936
6.630421
6.497502
6.171465
6.386638
6.954670
8.007884
11.220574
15.172958
21.569729
27.358532
34.796596
##ZVALUE=370
1.213551
1.201630
1.208782
1.203418
1.162887
1.188517
1.186728
1.351833
1.229644
1.170635
1.292825
1.203418
1.138449
1.171827
1.289845
1.313686
1.286864
1.243949
1.194477
1.153946
1.205802
1.457930
1.325607
1.249909
1.203418
1.314878
1.310706
1.296997
1.271963
1.385808
1.206994
1.250505
1.290441
1.373887
1.334548
1.411438
1.434684
1.397729
1.402497
1.535416
1.512766
1.517534
1.564622
1.522899
1.466870
1.546741
1.571774
1.735687
1.761913
1.641512
1.637936
1.932979
1.803637
1.788735
1.823902
1.812577
2.086759
2.217889
2.331734
2.406836
2.512932
2.602935
2.799630
2.924800
3.385544
3.764629
6.892681
27.106404
130.673647
303.486586
681.135654
1003.998518
1015.926003
1015.926003
1015.926003
1015.926003
1015.926003
1015.926003
1015.926003
720.884800
333.516002
168.205500
59.025884
21.957755
8.551478
7.329583
6.601810
6.257892
6.033778
5.809665
5.611777
5.660653
6.283522
7.153749
9.784698
12.790561
##ZVALUE=375
0.983477
0.891685
0.953674
0.996590
1.095533
0.979900
0.815988
0.959635
0.915527
0.915527
0.938773
1.037717
1.181960
1.103878
1.142621
1.043677
1.057982
1.160502
0.961423
0.994802
1.072884
1.035929
1.214743
1.109838
1.185536
1.076460
0.982881
0.984669
1.077652
1.111627
1.104474
1.105666
1.166463
1.152754
1.108646
1.174808
1.242757
1.233816
1.159906
1.140833
1.187921
1.267791
1.257658
1.367927
1.274943
1.315475
1.289845
1.431704
1.244545
1.157522
1.441836
1.512766
1.518726
1.524687
1.427531
1.477599
1.581907
1.715422
1.754761
1.825690
1.827478
1.859665
2.133846
2.271533
2.458692
2.800822
2.919436
3.311634
3.930926
15.901923
55.905581
193.654895
396.441817
847.401619
1015.788913
1015.788913
1015.788913
1015.788913
1015.788913
1015.788913
1015.788913
825.015903
520.491004
255.487561
125.417709
36.011934
12.792945
6.823540
6.394982
5.989671
5.350709
5.133748
5.059838
4.930496
5.017519
5.565882
##ZVALUE=380
0.859499
0.906587
0.910759
1.033545
0.976920
0.916719
0.998974
0.806451
0.731945
0.900626
1.006722
1.085997
0.856519
0.956655
0.926852
1.204610
1.032948
0.986457
0.875592
1.007915
0.973940
1.017451
0.908971
0.926852
0.980496
0.943542
1.110435
1.024604
1.129508
1.163483
1.297593
1.179576
1.200438
1.093745
1.031756
1.158714
1.138449
1.092553
1.170635
1.088977
1.121759
1.166463
1.234412
1.324415
1.196861
1.240969
1.183748
1.220703
1.272559
1.369715
1.360774
1.365542
1.444817
1.493692
1.404881
1.519918
1.490712
1.453757
1.522899
1.675487
1.699924
1.735687
1.863837
1.892447
1.874566
2.309680
2.558827
2.679825
3.149509
3.629923
4.147887
8.649826
34.370422
154.921412
343.772769
770.872831
1015.788913
1015.788913
1015.788913
1015.788913
1015.788913
1015.788913
1015.788913
1011.336446
704.175830
333.746672
167.226791
54.564476
20.154715
7.696748
6.103516
5.714893
5.452633
5.061626
4.894733
4.862547
##ZVALUE=385
0.932813
0.825524
0.863671
0.896454
0.918508
0.795722
0.866652
0.920892
0.865459
0.919700
0.868440
1.015663
0.842810
0.856519
0.988841
0.933409
0.964999
1.003742
0.997782
0.942945
1.085997
1.141429
1.028776
1.012683
0.827909
0.980496
1.064539
0.915527
0.955462
0.941753
1.135468
1.124740
1.322627
1.040697
0.913739
1.027584
0.951886
1.063943
1.158714
1.110435
1.299977
1.125932
1.060963
1.363754
1.178980
1.211762
1.132488
1.265407
1.248717
1.118779
1.288652
1.263618
1.241565
1.335740
1.348853
1.476407
1.444817
1.513958
1.482964
1.654625
1.672506
1.761913
1.845956
1.845956
2.173781
2.179742
2.135634
2.258420
2.531409
2.673864
3.170967
3.353953
3.595948
4.578829
14.839768
84.418654
210.179687
525.921583
909.314752
1015.788913
1015.788913
1015.788913
1015.788913
1015.788913
1015.788913
1015.788913
951.728821
501.881838
278.418660
108.109713
40.603876
9.957552
5.988479
5.348921
5.188584
4.914999
##ZVALUE=390
0.940561
0.930429
0.933409
0.987649
0.923872
0.825524
0.670552
0.750422
0.932813
0.969768
0.905991
0.906587
0.837445
0.929832
0.864863
0.974536
0.977516
1.011491
0.958443
0.993609
0.967979
0.989437
0.909567
0.890493
0.928640
0.951886
0.846982
1.038909
1.173615
0.973940
1.000762
1.176596
1.051426
1.070499
1.025796
0.917912
1.115799
1.070499
1.151562
1.083612
1.199841
1.051426
1.310706
1.183748
1.220703
1.168847
1.149774
1.197457
1.307726
1.306534
1.291633
1.339912
1.244545
1.432896
1.212955
1.484752
1.323819
1.433492
1.396537
1.400709
1.534820
1.494884
1.520514
1.746416
1.824498
2.116561
2.039671
2.337694
2.504587
2.627969
3.070831
3.221631
3.166795
3.247857
3.568530
3.848672
7.441640
48.960447
147.683620
434.240699
799.574852
1015.788913
1015.788913
1015.788913
1015.788913
1015.788913
1015.788913
1015.788913
1015.788913
743.451715
417.251587
159.505606
70.033669
19.583702
7.814765
5.469918
##ZVALUE=395
0.940561
0.944734
0.990629
0.986457
0.788569
1.009703
0.956655
0.958443
0.900626
0.843406
0.813603
0.727773
0.970960
0.928640
1.074672
0.985861
0.909567
0.934601
0.945926
0.995994
0.955462
1.014471
1.000762
0.879765
0.915527
0.774860
1.024604
0.840425
1.074672
1.078844
1.112819
1.087785
1.001954
1.071692
1.035929
1.053810
1.124740
0.988841
1.213551
1.089573
1.186728
1.184940
1.215935
1.255870
1.295805
1.132488
1.145601
1.293421
1.125932
1.136661
1.316667
1.238585
1.311898
1.270771
1.321435
1.574755
1.570582
1.394749
1.418591
1.418591
1.456738
1.543760
1.589656
1.794696
1.667738
1.795888
1.971722
2.038479
2.358556
2.448559
2.724528
2.796650
2.880692
3.131628
2.903938
3.287792
3.380775
3.627539
4.833937
26.341677
95.226765
314.258933
585.112572
1015.789509
1015.789509
1015.789509
1015.789509
1015.789509
1015.789509
1015.789509
1015.789509
968.641043
589.957833
241.428614
108.272433
31.055808
##ZVALUE=400
0.925660
0.872612
0.829697
0.791550
1.048446
0.920892
0.844598
0.925660
0.831485
0.864863
0.861883
1.008511
0.748634
0.735521
0.790954
1.020432
0.917912
0.843406
1.012683
1.099706
0.981688
0.977516
1.073480
0.899434
0.826716
1.018643
0.899434
0.833869
0.912547
1.013875
0.899434
1.054406
0.987649
1.012683
1.054406
1.095533
1.077652
0.918508
1.116991
1.143813
1.018643
1.088977
1.196861
1.176596
1.037717
1.095533
1.291633
1.132488
1.078844
1.157522
1.279712
1.254678
1.276731
1.212955
1.131892
1.277924
1.346469
1.172423
1.457930
1.450777
1.503825
1.418591
1.488924
1.663566
1.648664
1.738667
1.876950
1.993775
2.170801
2.438426
2.457500
2.572536
2.625585
2.629757
2.646446
2.714992
2.670884
3.030896
3.147721
3.795624
4.259944
14.592409
53.222775
192.475915
407.376885
849.480629
1015.788913
1015.788913
1015.788913
1015.788913
1015.788913
1015.788913
1015.788913
1015.788913
792.044997
389.301777
##END
