##TITLE=AAI0801
##FORMAT=SPECTACLE-ASCII V-1.2
##DATA TYPE=ULTRAVIOLET SPECTRUM
##SECOND TYPE=ULTRAVIOLET SPECTRUM
##DATE=11/28/17
##TIME=13:16:57
##SPECTROMETER/DATA SYSTEM=SPECTACLE
##XUNITS=NM EM
##YUNITS=ENERGY
##YFACTOR=1
##FIRSTX=220
##LASTX=410
##NPOINTS=96
##3DDATA=Equidistant
##ZUNITS=NM EX
##FIRSTZ=210
##LASTZ=400
##ZPOINTS=39
##XYDATA=(Y..Y)
##ZVALUE=210
6.375909
5.849600
6.404519
5.183816
6.482601
5.479455
6.671548
5.109906
5.062819
4.307628
4.212856
3.471971
3.531575
3.765821
3.334880
3.659725
2.873540
3.545880
4.019737
3.707409
3.812909
4.624724
4.467964
4.210472
4.566908
4.403591
5.200505
5.114675
5.535483
5.225539
6.296635
6.114841
7.503629
7.526875
8.374453
7.854700
8.681417
8.834600
9.151697
8.839965
8.258820
9.828806
9.323955
9.508729
8.683801
9.491444
8.757710
9.973645
10.482669
9.211898
9.822845
10.507703
9.992719
10.326505
10.559559
10.216832
10.356903
10.815859
10.300875
11.839867
10.886788
11.125803
10.823607
11.993647
10.530949
12.108684
13.260841
13.402700
12.717843
15.435815
16.322732
20.703673
21.124482
23.152828
25.145411
26.157498
24.653673
24.863482
21.718740
22.256970
20.270944
17.481446
16.240478
14.786720
13.246536
12.020469
10.405779
9.855628
8.935928
8.719563
9.180903
9.320974
9.486675
10.214448
10.252595
10.713935
##ZVALUE=215
16.219616
16.260743
15.276670
13.029575
11.430979
9.511709
9.804964
9.736419
9.605885
10.145903
7.751584
7.403493
6.626844
4.795790
4.288554
4.250407
3.741980
3.771782
3.994703
4.722476
4.168749
4.593730
4.897714
5.256534
4.797578
4.712939
5.269647
5.450845
6.259680
6.044507
6.489754
7.918477
7.982850
9.269714
9.355545
10.362864
10.830760
11.766553
11.233687
12.697577
12.805462
14.031529
13.817549
12.407899
12.998581
13.456941
12.574792
12.129545
13.129711
12.858510
11.865497
11.758804
11.819601
11.000633
11.089444
11.488795
11.790991
11.787415
11.829734
12.334585
12.227893
11.389852
12.083650
12.534857
11.765957
12.501478
12.992620
13.272762
12.840629
16.285777
17.697811
18.903613
19.111633
21.407604
22.586584
22.955537
24.095774
21.870732
22.018552
19.969940
17.956495
16.686916
16.691685
14.318824
13.560653
11.175871
10.368824
10.780692
9.158850
9.145737
9.154677
9.549856
8.782744
8.233786
8.975863
8.289814
##ZVALUE=220
40.084720
40.752888
46.491623
43.127537
41.771531
34.407973
26.255846
22.143722
17.620921
17.199516
17.695427
17.813444
16.600490
16.951561
12.932420
10.370612
7.999539
5.970597
4.841685
4.288554
4.598498
4.909635
4.469752
5.340576
5.113482
5.041957
6.241798
6.592870
7.711649
8.771420
11.056662
10.085702
13.700724
14.858842
16.726851
20.035505
19.635558
21.883845
21.431446
23.786426
21.069646
24.654865
22.505522
22.454858
23.313761
22.764802
20.785928
20.302534
20.836592
19.867420
18.751621
17.236471
18.603802
17.666817
16.867518
16.718507
15.541911
17.251968
15.806556
16.397834
14.571548
16.064644
15.149713
14.665723
15.776753
15.414953
16.084909
14.098883
16.091466
16.883612
18.147826
20.211935
20.529628
22.792816
22.788644
25.093555
23.938417
22.034645
21.902919
20.516515
19.157529
18.679500
19.394755
15.202761
14.400482
12.961626
11.841655
12.185574
10.460615
10.699630
10.112524
10.323524
8.647442
9.464622
9.685755
8.784533
##ZVALUE=225
57.105422
58.797002
79.530478
96.748471
103.591681
107.748508
96.071959
77.810884
57.826638
45.252442
32.241940
28.972626
30.332804
33.691525
31.565428
29.431581
24.335980
19.896626
14.296770
10.133982
6.708503
5.826950
5.720854
5.205870
5.263686
5.920529
6.224513
7.314682
9.040833
10.801554
11.939406
16.437769
20.954609
25.362968
30.962825
33.036470
34.827590
37.929416
38.643479
43.778419
45.444965
42.536855
44.167638
42.876601
40.523410
38.062930
39.512515
34.740567
35.646558
32.523870
32.261610
30.011535
28.938651
28.710961
27.838945
27.165413
26.216507
26.680827
23.455620
24.270415
23.492575
23.175478
23.481846
22.911429
22.894740
21.768808
22.994876
21.765828
20.710826
20.992756
25.053620
23.360848
26.174784
25.875568
24.851561
24.839640
26.136637
24.042726
23.346543
24.196506
21.717548
20.844936
19.514561
17.823577
17.317533
15.470982
15.056729
14.408827
13.565421
13.778806
12.018681
11.172891
12.284517
11.953712
12.535453
12.965798
##ZVALUE=230
40.786862
41.677952
75.885653
127.235651
165.252686
211.298466
226.554871
227.120519
208.591819
171.200633
119.681954
82.588792
61.358809
47.462583
48.809648
52.852631
50.653815
49.686432
45.884848
36.113858
30.086637
18.527508
12.459755
9.469986
7.033944
6.359816
8.285642
9.024739
10.317564
13.570786
18.529892
26.834607
31.636953
39.315820
44.090748
51.271915
54.333806
59.482455
64.517856
65.177679
68.277717
68.460703
67.023635
62.089562
65.515637
64.753890
58.399439
59.425831
54.058433
48.601627
50.229430
45.494437
47.144890
42.364597
42.044520
39.954782
42.706728
39.211512
38.193464
38.668513
36.219954
36.115646
36.781430
35.032630
34.104586
33.541918
32.476783
33.642650
33.684969
33.587813
33.276677
35.002828
35.212636
34.344792
33.849478
34.408569
35.033822
34.064651
32.488704
31.098723
30.168891
25.950670
26.010871
24.164915
21.725893
20.404458
21.987557
18.905997
18.639565
18.135905
18.061996
17.510653
17.610788
15.807748
15.432835
16.140938
##ZVALUE=235
13.461709
15.108585
39.238930
72.835684
117.412806
202.415586
276.538730
362.717509
412.357450
418.185592
380.108953
295.599699
225.233436
143.138766
101.448894
76.510906
70.114732
74.748993
81.585646
78.292489
74.854493
65.893531
50.663948
36.783814
25.184751
18.687844
11.964440
10.562539
12.448430
15.163422
22.867918
28.006434
33.625960
46.248436
51.690936
60.752630
66.077709
69.293976
75.402856
78.265667
75.554848
78.731775
75.590611
76.940656
78.609586
75.204968
70.774555
70.396662
66.501498
63.114762
61.209798
61.120987
58.791637
58.641434
55.205822
51.629543
54.160953
49.762726
52.717924
52.747726
49.831867
49.050450
50.065517
47.190785
47.073960
43.934584
47.213435
47.316551
44.474602
44.923425
45.289993
46.111941
43.845773
46.786666
47.179461
45.789480
43.636560
42.963624
43.295622
38.520694
38.334727
35.180449
33.353567
32.202601
28.760433
26.824474
27.584434
26.803613
24.416447
24.974942
22.432804
22.927523
20.885468
20.326972
21.045804
20.300746
##ZVALUE=240
2.684593
3.564954
5.752444
18.442869
38.461685
93.833804
164.766908
301.308632
416.194797
518.014431
619.854927
639.028549
569.497943
482.269526
351.199508
252.293944
149.049759
109.369755
93.357563
96.031427
103.617907
107.956529
106.477737
100.187659
80.868602
62.534809
46.723485
30.966997
24.234653
19.591451
20.212531
24.185777
29.464960
35.614967
40.306449
46.263933
52.254796
54.908991
57.529807
62.556863
64.254999
66.586733
66.989660
62.869787
63.958764
60.692430
62.813759
58.586001
61.623454
55.173635
57.076812
56.827664
56.992769
56.032538
56.501627
56.865811
58.860779
58.461428
58.623552
59.970617
59.533715
61.302781
57.964921
60.209632
58.850646
60.664415
57.723522
58.930516
60.361624
58.141947
59.188604
57.817698
59.219599
57.899952
58.297515
57.381988
57.709813
52.888989
51.916838
46.723485
45.429468
41.031837
42.586923
37.460923
36.093593
33.831596
33.436418
33.029914
33.145547
29.055476
29.898882
27.722716
28.120875
26.885867
24.319887
25.883913
##ZVALUE=245
2.506971
2.080798
2.740622
2.272725
4.935861
11.311769
38.644671
79.594851
188.872814
298.819542
488.880873
620.396733
732.825994
787.169933
749.453902
641.220808
516.849756
353.816748
243.544579
135.671496
105.317831
93.368888
102.692842
118.137598
122.741461
118.326545
104.982853
90.322495
70.511699
55.845976
37.744641
27.829409
24.913549
21.996498
23.294687
25.019646
28.084517
28.346777
29.753447
31.047463
32.484531
34.065843
33.880472
35.013556
35.349727
37.247539
37.682652
39.523840
40.922761
42.298436
42.989850
46.755672
48.099756
50.293803
52.514672
56.390762
58.584809
62.809587
63.645840
62.669516
65.634847
67.582726
67.308545
68.305731
70.152879
69.579482
69.572926
67.409873
66.287518
67.570806
66.067576
66.636801
65.594912
65.582991
63.800812
63.043833
59.457421
57.648420
54.624677
51.060915
50.953627
46.488643
43.258667
42.673945
40.725470
38.345456
37.147999
36.818981
32.475591
31.977892
30.781627
28.835535
27.816892
25.366545
26.127696
25.611520
##ZVALUE=250
2.166629
2.398491
2.766848
2.263784
2.354980
2.543926
2.744794
9.163618
24.976730
59.388876
154.887438
274.174809
480.365753
625.528693
792.569518
878.890753
890.353918
821.361542
710.445642
491.316915
334.896445
183.301568
124.354959
87.321997
91.870427
111.805797
124.743581
128.340721
122.142434
112.182498
98.403692
75.237751
59.614778
40.022731
29.611588
22.295713
18.948913
19.287467
18.164515
20.108819
20.283461
21.125674
21.290779
21.886826
23.434758
25.151968
27.383566
31.486750
32.194853
36.318898
39.284825
43.118596
44.702888
52.966475
55.430532
60.268641
64.453483
68.143606
70.936680
74.249506
76.944828
79.373717
82.365870
81.462860
80.108643
83.882809
84.014535
85.635781
84.404945
81.461668
80.982447
79.165697
78.429580
77.875853
74.930787
70.288777
68.584681
65.865517
63.549876
60.181618
56.060553
56.310892
51.310658
48.560500
45.531988
41.271448
39.560795
37.886500
37.089586
35.538673
32.135844
30.914545
30.088425
28.519630
26.650429
25.109649
##ZVALUE=255
1.823902
1.873970
2.080798
1.878738
2.307892
1.865625
2.342463
2.148747
2.737641
4.429817
21.530986
53.750873
115.286708
252.924562
402.740836
640.825629
802.558661
974.397659
1015.601754
977.891684
856.773853
680.664778
429.473519
268.111825
141.837001
96.227527
82.518458
94.154477
115.811825
127.535462
133.438706
133.532882
126.291513
103.624463
85.085630
60.211420
45.049787
30.368567
23.769736
20.962954
19.589663
20.614862
20.241737
21.457672
23.059845
25.033951
26.605725
28.839707
32.431483
37.577748
40.593743
44.640899
47.517419
53.198934
57.593584
62.989593
67.888498
73.786974
76.443553
80.698729
84.219575
87.987781
89.116693
93.110800
92.411637
95.001459
95.409751
95.003843
93.523860
92.567801
91.426969
89.561939
87.856650
87.926984
81.349611
78.578591
75.411797
71.914792
69.145560
63.621998
61.869621
57.980418
55.729747
51.223636
49.783587
48.021674
44.863820
42.089820
40.657520
36.646724
35.249591
34.409761
30.459762
30.550957
29.466748
27.664900
##ZVALUE=260
1.910925
1.744628
1.877546
1.778603
1.952648
2.096891
2.315640
2.144575
2.213717
2.331734
2.431870
3.392696
9.275675
39.139986
84.878802
168.030858
346.263051
544.315577
821.702480
999.419689
1015.788913
1015.788913
1008.077860
853.146911
576.512814
383.317471
238.229632
119.254589
84.837675
77.653527
92.904568
119.911432
134.399533
146.770477
147.483945
131.425858
117.619634
90.858936
71.512461
48.259497
37.660599
29.903650
26.135445
24.484992
25.158525
26.281476
28.690696
30.530691
32.300949
36.103725
37.162900
41.136742
46.038628
48.584938
52.862763
57.940483
61.173439
66.651702
71.173906
74.487925
76.494813
81.544518
83.338618
83.695650
87.760687
88.534951
89.241862
88.981986
87.198615
89.197755
86.523890
84.119439
86.033940
79.608560
79.442859
75.941682
72.270632
68.189502
65.133572
61.625838
59.871674
57.463646
54.429770
50.745606
48.421621
44.455528
44.348836
39.590001
36.986470
36.749840
36.019683
33.035874
30.655861
27.467608
27.004480
25.308728
##ZVALUE=265
1.762509
1.729727
1.685619
1.689792
1.787543
1.761913
2.103448
2.026558
2.198815
2.119541
1.940727
2.065897
2.517700
2.610683
5.011559
22.909641
60.794950
157.325864
285.978913
553.091764
791.983604
1005.196571
1015.788913
1015.788913
1015.788913
1015.788913
777.039528
541.151762
308.106542
181.035995
109.307766
71.589947
78.313947
107.164979
130.955577
150.131583
154.701471
153.136849
144.507885
120.468736
99.143982
73.223710
56.127906
40.424466
34.703612
30.404925
29.865503
30.778646
29.196739
32.202601
34.556985
36.469698
38.264990
41.945577
45.243502
47.913790
51.131845
52.812696
55.910945
59.010983
62.094927
64.250827
64.328909
68.096519
69.329739
69.911480
71.407557
68.239570
68.356991
68.155527
68.178773
68.007708
65.654516
63.717961
61.609745
59.440732
57.255626
54.703951
54.351687
51.162839
47.388673
45.663714
42.504668
39.367676
39.315820
37.089586
35.058856
33.401847
30.385852
28.834939
27.710795
26.184916
25.468469
23.789406
22.619963
21.436810
##ZVALUE=270
1.441836
1.627803
1.504421
1.652837
1.636744
1.675487
1.671910
1.671910
1.924634
1.987815
1.937747
1.931787
2.059937
2.128482
2.477765
2.420545
3.146529
10.982752
32.556653
117.998719
237.638950
422.267914
771.131516
1009.491682
1015.776992
1015.776992
1015.776992
1015.776992
988.102555
748.252869
508.135557
266.889930
152.734518
78.987479
69.280863
90.327859
110.866427
137.323737
155.392885
162.917972
160.671473
143.360496
126.895905
99.435449
79.573989
57.280660
46.607852
37.839413
34.492612
31.810999
31.703711
32.432675
33.858418
35.420656
35.406947
37.683845
39.301515
41.969419
43.690801
46.065450
45.611858
47.225952
47.850609
48.685670
47.957897
50.211549
48.524737
49.215555
49.480796
47.175884
47.304630
47.910810
48.096776
45.798421
44.862628
44.128895
42.369962
41.013956
37.829876
36.838651
35.582781
33.147931
32.225847
29.412508
29.332638
27.727485
26.705861
24.146438
23.390651
22.207499
21.339655
19.664764
19.218922
18.992424
18.475652
16.580820
##ZVALUE=275
1.412630
1.482964
1.600981
1.780987
1.781583
1.566410
1.551509
1.452565
1.583695
1.633763
1.520514
1.679659
1.744628
1.801848
1.859665
2.040863
2.459884
2.568960
2.990961
5.618930
18.745661
79.349875
173.602700
393.999815
640.021563
989.235640
1015.788913
1015.788913
1015.788913
1015.788913
1015.788913
889.980793
619.555712
341.538787
197.270513
95.434785
66.698790
69.328547
89.723468
114.412904
134.531856
153.842568
162.131786
157.303810
146.666765
122.606754
101.569891
79.101920
63.046813
47.220588
40.879846
35.531521
33.547878
33.272505
34.187436
33.579469
34.243464
35.926700
36.435723
38.557649
37.703514
39.243698
39.147735
40.054917
39.752722
39.318800
39.957762
39.866567
39.008856
38.255453
37.923455
38.577914
39.007664
37.242770
37.023425
35.755634
34.794807
32.716990
31.534433
29.277802
30.024648
27.366877
26.373863
24.567842
23.833513
22.208691
21.879673
20.967722
20.410419
19.151568
18.508434
17.551780
16.980767
16.138554
15.624762
14.914870
##ZVALUE=280
1.433492
1.423955
1.546741
1.374483
1.552701
1.387596
1.617670
1.369715
1.766682
1.472831
1.558661
1.933575
1.836419
1.632571
1.643896
1.836419
1.773834
2.040863
2.202988
2.502799
2.678633
2.891421
13.567805
47.896504
152.304769
286.703706
546.453595
821.898580
1015.824676
1015.824676
1015.824676
1015.824676
1015.824676
1015.824676
789.811611
455.648899
271.235704
124.244690
71.865916
54.166913
63.995719
88.391900
108.454823
134.198666
150.128603
156.440735
154.957771
138.868690
122.535825
96.089840
78.683496
59.170723
48.429966
37.148595
34.502745
33.199787
33.466816
34.698844
34.579635
35.640597
36.944747
37.432909
37.744641
38.795471
38.129687
37.810802
38.592815
38.439631
38.265586
38.541555
38.255453
37.052631
37.279725
35.471916
35.554767
34.547448
33.591986
32.852888
30.765533
29.551983
27.691722
27.070642
25.926828
24.892688
24.409890
23.817420
21.421909
21.358728
19.961596
19.228458
18.346906
17.661452
17.176867
15.863776
16.163588
14.932752
##ZVALUE=285
1.371503
1.408458
1.352429
1.284480
1.435876
1.476407
1.516938
1.486540
1.501441
1.418591
1.439452
1.656413
1.567602
1.570582
1.874566
1.695752
1.700521
2.032518
2.126694
2.249479
2.323985
2.428889
2.420545
2.642870
7.701516
25.548935
88.901520
188.612938
409.263968
654.674768
934.861898
1015.788913
1015.788913
1015.788913
1015.788913
1015.788913
971.787572
609.955788
379.714966
179.965496
92.712641
47.040582
42.337775
57.040453
75.740814
102.971792
122.443438
142.188668
148.555636
145.305991
137.359500
115.883946
100.234747
76.694489
61.259866
46.883821
38.963556
35.426617
34.733415
34.736991
35.730600
36.169887
37.404895
36.999583
38.070679
37.365556
38.241744
38.002729
38.414598
37.570596
37.719607
38.289428
37.631989
37.561655
36.507845
35.843849
34.718513
32.894611
32.016635
30.309558
29.345751
28.590560
27.211905
25.701523
24.561882
24.568439
22.611618
21.581650
20.921826
19.658804
19.757748
18.582940
17.604828
16.457438
16.302466
16.029477
##ZVALUE=290
1.409650
1.306534
1.361966
1.339912
1.351833
1.483560
1.424551
1.375675
1.422763
1.312494
1.586676
1.510978
1.392961
1.398921
1.487732
1.528859
1.616478
1.715422
1.766682
1.954436
1.685619
1.948476
2.091527
2.249479
2.529621
2.642870
3.786683
10.895729
50.190687
122.918487
246.049762
531.879663
823.986530
1015.788913
1015.788913
1015.788913
1015.788913
1015.788913
1015.788913
784.374475
516.542792
253.143907
132.814646
51.398873
32.949448
38.099885
50.659776
71.103573
92.201829
116.188526
132.665634
142.435431
141.359568
130.686760
117.544532
94.132423
75.921416
59.125423
49.203634
39.472580
36.764741
34.457445
35.485625
35.531521
35.838485
36.275983
36.922693
36.632419
37.622452
36.876798
37.721992
36.841631
37.173629
36.903620
36.600828
34.024715
33.933520
32.138824
31.227469
29.831529
29.897690
28.851628
27.673841
25.824904
24.918914
23.801923
23.598671
22.985935
21.372437
20.787716
19.651651
18.830895
18.008947
17.619729
16.510487
15.673637
##ZVALUE=295
1.176000
1.255870
1.306534
1.233816
1.230836
1.284480
1.417994
1.499653
1.373887
1.234412
1.216531
1.260638
1.550913
1.464486
1.263618
1.426935
1.542568
1.384616
1.624823
1.757741
1.824498
1.905560
1.867414
1.937747
2.032518
2.180934
2.447963
2.756715
2.733469
5.130768
17.161965
77.123642
177.968740
425.918698
697.136521
1015.788913
1015.788913
1015.788913
1015.788913
1015.788913
1015.788913
970.645547
678.090453
356.056690
193.958879
70.768595
34.684539
26.495457
32.007694
48.405528
64.304471
87.513924
107.479692
127.329826
134.923458
134.296417
128.278732
111.239552
94.918609
73.836446
60.263872
46.545863
40.514469
35.191774
34.824610
34.241676
33.563972
34.215450
34.407973
35.223961
35.189986
34.359694
35.043955
34.073591
33.548474
32.675862
32.121539
31.308532
29.780865
28.734803
28.639436
27.534962
26.605725
24.440885
24.462938
23.416877
22.453666
21.381974
21.081567
20.454526
19.224882
18.853545
17.995834
16.657710
16.053915
15.801787
##ZVALUE=300
1.386404
1.259446
1.119971
1.322627
1.387596
1.173615
1.271963
1.220703
1.086593
1.222491
1.288652
1.314878
1.254678
1.427531
1.261830
1.368523
1.605749
1.564622
1.592636
1.560450
1.599789
1.708865
1.646876
1.728535
1.885891
1.927614
2.125502
2.208948
2.278686
2.692938
2.897978
3.400445
12.774467
44.199824
149.755478
291.598439
600.499511
909.444690
1015.788913
1015.788913
1015.788913
1015.788913
1015.788913
1015.788913
839.926600
543.017983
268.003941
141.304731
50.863624
25.716424
22.393465
29.803514
44.286847
59.008598
81.868768
100.934505
122.852921
129.322410
131.377578
126.741529
109.002590
94.141960
72.965622
61.846972
47.620535
39.814711
34.723878
32.678843
32.589436
32.328963
32.598972
32.472610
32.234788
32.363534
31.990409
30.816793
30.175447
29.425621
28.104782
28.169751
26.761889
26.221871
25.691986
24.258494
23.300648
22.947788
21.518469
21.390915
20.083785
19.621849
19.129515
18.475652
17.458797
16.979575
16.426444
15.634894
##ZVALUE=305
1.260638
1.167655
1.291633
1.242757
1.337528
1.239777
1.216531
1.200438
1.290441
1.178980
1.151562
1.230836
1.294613
1.257658
1.334548
1.361966
1.490712
1.426935
1.586676
1.506805
1.431704
1.608729
1.569986
1.773834
1.715422
1.738667
1.850724
1.880527
2.027750
2.179742
2.343655
2.606511
2.859831
3.129840
5.525947
31.787753
87.040663
254.894495
462.293625
854.384899
1015.788913
1015.788913
1015.788913
1015.788913
1015.788913
1015.788913
1015.788913
732.467771
445.783734
187.993646
90.310574
31.657815
20.384789
23.213625
29.906631
45.278668
60.866475
81.214905
97.670555
117.164850
125.510693
126.208663
119.461417
105.057955
91.840625
72.285533
59.343576
46.101809
38.712621
33.203959
31.812787
31.775832
31.228662
30.190945
29.866695
28.905869
28.649569
27.828813
27.449727
26.552677
25.982857
25.117993
23.785830
23.247600
22.546649
22.071600
21.341443
20.153522
19.950867
19.329786
18.197894
16.865730
16.785860
16.289949
16.198754
15.411973
##ZVALUE=310
1.385808
1.331568
1.397729
1.471639
1.328588
1.506805
1.409650
1.305938
1.376867
1.497865
1.699924
1.387596
1.622438
1.548529
1.629591
1.633763
1.614690
1.566410
1.558661
1.472831
1.653433
1.718998
1.633763
1.693964
1.792908
1.815557
2.012849
1.990795
2.103448
2.183914
2.223849
2.301931
2.473593
2.784729
2.767444
2.882481
3.721714
13.953447
46.358705
155.466795
309.834480
636.172891
962.666869
1015.996933
1015.996933
1015.996933
1015.996933
1015.996933
1015.996933
1015.996933
753.875971
358.232856
174.782872
55.059791
25.293827
19.088984
22.501945
30.598640
39.539933
57.402849
72.605610
93.756914
107.287765
117.078424
120.184422
114.220977
104.672909
87.823868
73.327422
54.578781
45.126677
36.949515
31.657815
28.582811
27.420521
26.328564
25.851727
24.922490
24.724603
23.466945
23.323894
22.743940
21.798611
21.297932
20.523667
20.169616
19.419789
18.901825
18.386841
17.609000
17.511845
16.209483
16.338825
15.409589
15.462637
14.106631
##ZVALUE=315
1.204610
1.080632
1.160502
1.010895
1.269579
1.166463
1.125932
1.205802
1.154542
1.238585
1.114607
1.068711
1.059771
1.217723
1.380444
1.473427
1.215935
1.344681
1.291633
1.223683
1.300573
1.337528
1.487732
1.405478
1.501441
1.601577
1.664758
1.742840
1.748800
1.781583
1.747608
1.748800
2.037883
2.231598
2.299547
2.350807
2.597570
2.888441
3.066659
7.787943
28.154850
110.866427
237.325430
526.209474
837.523937
1015.788913
1015.788913
1015.788913
1015.788913
1015.788913
1015.788913
1015.788913
997.750759
568.208694
303.574800
98.510981
36.717653
19.464493
18.862486
23.184419
28.437972
40.304661
50.911903
69.297552
83.323717
101.387501
109.833479
110.947490
106.914639
93.649626
81.033707
64.221621
51.561594
38.153529
31.879544
26.360750
23.266673
21.424890
20.784736
20.221472
18.899441
18.775463
18.740892
18.008947
17.641783
17.046928
16.925931
16.050935
15.711784
15.462637
15.092492
14.500618
13.732910
13.276935
13.565421
12.695789
##ZVALUE=320
1.071692
1.103878
1.255870
1.046658
1.184940
1.216531
1.137853
1.135468
1.132488
1.160502
1.282692
1.229644
1.355410
1.153946
1.188517
1.226664
1.256466
1.388788
1.310706
1.133680
1.360774
1.525879
1.391768
1.517534
1.468658
1.493692
1.612902
1.554489
1.529455
1.461506
1.544952
1.422763
1.793504
1.877546
1.962781
2.077818
2.205968
2.282858
2.433658
2.928972
2.825856
4.218817
14.870763
76.316595
180.481672
435.162783
691.431761
1015.788913
1015.788913
1015.788913
1015.788913
1015.788913
1015.788913
1015.788913
1015.788913
650.469661
372.906923
156.887770
64.929724
21.437407
15.773773
17.169714
19.384623
24.620891
32.163858
46.356916
59.062839
76.642632
88.370442
99.160671
102.116466
96.847415
87.812543
71.327686
57.323575
41.943789
32.587647
24.411678
20.496845
17.293692
16.154647
15.409589
15.134811
14.688969
14.487505
13.817549
13.937950
13.551712
13.384819
13.073683
12.694597
12.404919
12.459755
11.928678
11.304617
11.057854
##ZVALUE=325
1.181960
1.088977
0.923872
1.212955
1.045465
1.073480
1.254678
1.047850
1.008511
1.210570
1.058578
1.149774
1.088977
1.204610
1.131892
1.150966
1.238585
1.208782
1.171827
1.309514
1.378655
1.254678
1.360774
1.408458
1.370907
1.729727
1.504421
1.606941
1.390576
1.521707
1.528859
1.499653
1.533628
1.779795
1.628995
1.759529
1.826882
1.924634
2.133846
2.213717
2.132654
2.554655
2.751946
3.242493
7.778406
55.970550
138.856769
336.766839
574.378967
981.190801
1015.788913
1015.788913
1015.788913
1015.788913
1015.788913
1015.788913
1015.788913
725.895762
447.790623
199.222565
94.985962
28.225780
15.296936
13.508797
14.074445
16.564727
20.640492
29.950738
40.629506
56.073666
68.023801
82.314610
90.255737
91.821551
88.273883
75.272918
63.362718
48.596859
37.713647
26.126504
20.246506
15.867949
13.906956
12.538433
12.403727
11.799932
11.376739
11.539459
11.702776
11.196733
11.004806
10.700822
10.396838
10.322928
10.264516
9.748936
##ZVALUE=330
1.037717
0.988841
0.988841
1.117587
0.893474
0.905991
0.864863
1.009703
0.872612
1.120567
1.105666
1.080632
1.252890
1.110435
1.208782
1.079440
1.163483
1.049638
1.071692
1.189709
1.181960
1.213551
1.334548
1.176596
1.259446
1.486540
1.241565
1.348853
1.290441
1.382828
1.424551
1.356602
1.465678
1.637936
1.550913
1.520514
1.729727
1.666546
1.794696
1.884699
2.060533
2.048612
2.333522
2.469420
2.535582
2.940893
3.951788
20.342469
70.706606
233.405828
438.289642
831.082463
1015.788913
1015.788913
1015.788913
1015.788913
1015.788913
1015.788913
1015.788913
798.021555
506.566763
232.388973
116.724968
39.474964
17.147660
11.482835
11.028647
11.857748
14.470816
19.978881
26.170611
37.514567
48.966408
64.529777
75.582862
82.959533
83.747506
78.812838
70.174932
55.632591
44.265985
30.998588
24.309754
17.898679
14.835000
12.065768
11.122823
10.456443
10.147691
9.820461
9.395480
9.262562
9.251833
8.665919
9.239912
9.166598
##ZVALUE=335
1.059771
1.069903
0.924468
0.963807
0.959635
0.954866
1.078844
0.991821
1.005530
1.013875
1.244545
1.112819
1.109838
1.012683
1.026988
0.934601
1.178980
1.140833
1.160502
1.082420
1.035929
1.131892
1.217723
1.099706
1.252890
1.221895
1.241565
1.181960
1.283884
1.286864
1.349449
1.375675
1.169443
1.418591
1.534820
1.341701
1.459718
1.711845
1.468658
1.645684
1.792908
1.921654
2.033710
2.020597
2.178550
2.351999
2.554655
2.803802
3.080964
8.513927
30.547976
126.711726
272.278786
611.941814
956.634879
1015.793681
1015.793681
1015.793681
1015.793681
1015.793681
1015.793681
887.670517
597.535968
309.771895
166.177750
57.008862
22.544861
10.956526
9.862781
9.999871
11.112690
13.454556
16.955733
24.982691
33.272505
46.936870
57.828426
69.616437
74.267983
75.914860
72.628856
62.835813
53.198934
40.755868
32.233596
22.791624
17.561913
13.074875
11.096597
9.371638
8.771420
8.737445
8.353591
8.403659
8.358955
8.236766
##ZVALUE=340
1.072884
1.081824
1.268983
1.140833
1.104474
1.206994
1.105666
1.059771
0.973940
1.235604
1.124740
1.344681
1.375675
1.385808
1.202822
1.246929
1.361966
1.050830
1.360774
1.178980
1.151562
1.421571
1.220703
1.144409
1.341701
1.383424
1.510978
1.353621
1.370907
1.269579
1.462698
1.591444
1.526475
1.599789
1.449585
1.638532
1.564622
1.510978
1.506805
1.885891
1.784563
1.816750
1.738667
2.071857
2.001524
2.289414
2.297759
2.436638
2.590418
2.894998
3.140569
4.582405
14.566779
70.602894
178.988576
458.802581
768.135786
1015.970707
1015.970707
1015.970707
1015.970707
1015.970707
1015.970707
1005.496979
725.598931
367.265940
201.918483
79.414845
32.268763
12.081861
10.232925
9.726882
10.276437
10.918975
12.378693
16.921759
22.342801
31.863451
42.264462
55.498481
64.331889
70.232749
70.372820
67.403913
61.146617
50.327778
40.942430
30.072927
22.969842
16.232729
12.744665
10.014772
8.818507
8.433461
8.145571
7.969737
##ZVALUE=345
1.042485
0.930429
0.952482
1.040697
0.987649
1.053810
0.964999
1.096725
0.748634
0.846982
0.925660
0.843406
0.909567
1.094937
1.017451
1.006722
0.972748
1.140833
1.100898
1.133680
1.031756
1.018643
1.074672
1.056790
1.168847
1.052618
1.188517
1.027584
1.184940
1.093745
1.218915
1.153946
1.337528
1.315475
1.290441
1.391768
1.311898
1.543760
1.477599
1.450777
1.505613
1.683831
1.556873
1.707673
1.673698
1.740456
1.948476
1.882911
2.053976
2.272725
2.536774
2.466440
2.929568
3.112555
7.061958
40.658712
112.003684
314.927697
587.781668
1015.178561
1015.788913
1015.788913
1015.788913
1015.788913
1015.788913
1015.788913
917.420983
496.170521
278.419852
113.896728
48.332810
15.926957
10.081530
9.350777
8.760691
8.609891
8.764863
10.469556
13.441443
19.711852
27.287602
38.591623
47.609806
58.172941
62.319636
64.910650
62.364936
56.043863
48.882961
38.669705
29.448867
20.682812
16.017556
11.875629
9.679794
7.996559
##ZVALUE=350
1.012683
1.089573
1.003742
0.834465
0.972748
0.925660
0.973940
0.945926
1.013875
1.099706
0.972748
1.045465
1.105666
1.030564
1.133680
1.063943
0.976920
1.038909
1.270771
0.995994
1.129508
1.176596
1.103878
1.019835
0.983477
1.133680
1.114607
1.217723
1.200438
1.159906
1.314878
1.230836
1.233816
1.131892
1.222491
1.045465
1.226664
1.439452
1.379848
1.336932
1.446605
1.458526
1.641512
1.404881
1.572967
1.804829
1.691580
1.797676
1.854897
1.955628
2.093911
2.182722
2.168417
2.375841
2.725720
2.981424
4.037619
20.184517
60.498714
184.054375
356.128812
728.471875
1015.788913
1015.788913
1015.788913
1015.788913
1015.788913
1015.788913
1015.788913
625.169873
367.954969
158.257484
71.260929
19.674897
10.202527
8.203983
7.660985
7.577538
7.290840
7.815957
9.366870
12.761950
16.971827
24.561882
31.966567
42.298436
49.408674
56.128502
59.124827
56.917667
52.465796
44.691563
36.999583
27.488470
21.604896
15.309453
##ZVALUE=355
1.074672
1.072884
1.056790
1.051426
1.071692
1.122952
1.055598
1.018643
0.996590
0.985861
1.093745
1.122952
1.023412
0.967979
0.907779
1.054406
0.988841
0.937581
1.081824
1.058578
1.119971
1.041889
1.024604
1.202822
1.135468
1.271963
1.279712
1.117587
1.323819
1.102686
1.229644
1.186728
1.203418
1.127720
1.207590
1.290441
1.468658
1.142621
1.367927
1.303554
1.401901
1.370907
1.424551
1.411438
1.559854
1.732707
1.378655
1.426935
1.659989
1.803637
1.681447
1.822710
2.040863
2.154708
2.080798
2.317429
2.437830
2.728701
3.165007
9.800792
34.765601
123.750567
247.521996
524.003506
836.486816
1015.788913
1015.788913
1015.788913
1015.788913
1015.788913
1015.788913
812.000036
497.924685
212.301612
96.882582
26.901960
11.554956
7.818937
7.326603
6.797910
6.746650
6.767511
7.152557
8.657575
10.578632
15.315413
20.631552
28.925538
36.245584
44.687986
49.634576
53.140521
52.951574
47.903657
43.118000
33.716559
##ZVALUE=360
1.023412
0.814795
1.014471
1.099706
1.010895
1.024604
1.057982
1.149774
1.006722
1.049638
1.047850
1.193881
1.035929
1.061559
1.176000
1.097918
1.060963
1.032948
1.011491
0.983477
1.095533
1.116991
1.234412
1.078844
1.103878
1.180768
1.174808
1.420975
1.207590
1.274943
1.209974
1.303554
1.150966
1.078844
1.267791
1.159906
1.307726
1.236796
1.352429
1.298785
1.390576
1.176000
1.497865
1.378655
1.485944
1.402497
1.568794
1.538992
1.779795
1.658797
1.674891
1.781583
1.754761
1.984835
1.886487
2.086759
2.207756
2.212524
2.497435
2.820492
3.141761
5.182624
15.794635
69.973469
163.737535
389.641523
637.737513
997.699499
1015.810966
1015.810966
1015.810966
1015.810966
1015.810966
976.919532
656.605959
312.540531
155.347586
51.952600
18.543601
7.581711
7.161498
6.789565
6.195903
6.152987
5.980730
6.457567
6.887913
9.131432
11.861920
16.952753
23.017526
31.716824
37.640929
44.310689
47.173500
48.074722
##ZVALUE=365
1.005530
1.071692
0.988841
1.092553
1.039505
1.057982
1.004934
1.072884
1.120567
0.991821
1.048446
0.987649
0.884533
1.010895
0.990629
1.067519
1.036525
1.068711
1.010895
0.986457
1.136661
1.128912
1.030564
1.222491
1.255870
1.258850
1.215935
1.136661
1.040697
1.208782
1.110435
1.245737
1.224875
1.220703
1.166463
1.263618
1.197457
1.236796
1.345873
1.409650
1.284480
1.310706
1.325607
1.374483
1.428723
1.390576
1.522899
1.485944
1.704693
1.665950
1.502633
1.659989
1.797676
1.686811
1.799464
1.894832
2.150536
2.144575
2.182722
2.349615
2.597570
2.916455
3.021955
3.771782
8.223653
46.632886
121.555924
302.809477
530.866981
935.751796
1015.788913
1015.788913
1015.788913
1015.788913
1015.788913
1015.788913
917.049646
503.599644
270.838737
90.213418
31.536818
8.963943
6.791949
6.315708
6.090999
5.890727
5.502701
5.563498
5.662441
6.089807
7.220507
10.601878
13.890862
20.286441
26.083589
33.371449
##ZVALUE=370
0.922680
0.912547
0.980496
0.992417
0.899434
0.927448
0.918508
0.979900
0.992417
1.139641
1.056790
0.974536
1.087785
0.979900
0.920892
0.941753
1.062751
1.059771
0.989437
1.055598
1.073480
0.966787
1.095533
1.103878
0.977516
1.050830
1.218915
0.907779
1.089573
1.177788
1.088977
1.318455
1.299977
1.196861
1.160502
1.174808
1.371503
1.171827
1.151562
1.194477
1.158714
1.200438
1.309514
1.357794
1.319647
1.393557
1.270771
1.367927
1.339912
1.556873
1.461506
1.582503
1.372695
1.577735
1.686811
1.768470
1.585484
1.759529
1.779795
1.861453
2.015829
2.213717
2.477765
2.469420
2.502799
3.130436
4.572868
22.514462
72.768927
227.662921
419.822931
761.019588
1015.788913
1015.788913
1015.788913
1015.788913
1015.788913
1015.788913
1012.344956
615.822673
354.924798
135.632753
56.782961
15.775561
7.570982
5.983710
5.536675
5.305409
5.131960
4.866719
4.615784
4.950762
5.161762
6.749630
8.608699
12.592673
##ZVALUE=375
0.910759
0.943542
0.860691
0.751615
0.912547
0.790954
0.895858
0.923872
0.937581
0.832677
1.015663
1.025796
0.975728
0.964999
0.983477
0.998974
0.934601
0.968575
1.068711
1.027584
0.914931
0.899434
1.031756
0.972748
1.155734
0.941753
1.085997
1.085997
1.019835
0.975728
1.129508
0.908971
1.040697
1.095533
0.908971
1.132488
1.037717
1.047850
1.179576
1.107454
1.200438
1.158714
1.274943
1.179576
1.151562
1.232624
1.234412
1.268983
1.196861
1.425743
1.512766
1.287460
1.353621
1.369715
1.411438
1.438856
1.474619
1.616478
1.413822
1.426935
1.679659
1.758933
1.792908
1.832843
1.969934
2.111793
2.170801
2.656579
2.862811
10.598898
36.878586
130.045414
268.296599
581.516623
872.563720
1015.788913
1015.788913
1015.788913
1015.788913
1015.788913
1015.788913
677.138567
440.845490
221.216679
108.664632
31.436682
10.669827
5.881786
5.366802
4.685521
4.844666
4.671812
4.588962
4.159808
4.461408
4.781485
##ZVALUE=380
0.881553
0.943542
0.856519
0.935793
0.961423
0.802875
0.824928
0.793934
0.853539
0.804663
0.979900
0.967979
0.907779
0.919700
0.973940
0.970960
0.871420
1.028776
0.907779
0.864863
1.002550
0.905991
0.965595
0.943542
0.878572
0.921488
1.004934
0.979900
0.895858
0.992417
1.026988
1.071692
1.005530
1.176000
0.990629
1.162887
1.223683
1.080632
1.108646
1.138449
0.997782
1.125932
1.057982
0.948906
1.283884
1.260638
1.285672
1.210570
1.328588
1.245737
1.205802
1.338720
1.098514
1.097918
1.284480
1.142621
1.250505
1.436472
1.360774
1.373887
1.395941
1.435876
1.490712
1.621842
1.717806
1.825690
1.914501
2.094507
2.307892
2.619624
3.101826
5.378723
18.207431
82.767606
190.066695
449.053049
725.469589
1015.788913
1015.788913
1015.788913
1015.788913
1015.788913
1015.788913
775.963664
529.371500
271.377563
142.686963
48.248768
17.684698
6.352663
5.046725
4.635453
4.679561
4.257560
4.388690
4.028678
##ZVALUE=385
0.867844
0.843406
0.920892
0.840425
0.947714
0.973940
0.905991
0.760555
0.844598
0.744462
0.820756
0.965595
0.865459
0.895858
0.971556
0.716448
0.914931
0.802875
0.868440
0.901818
1.014471
0.959635
0.924468
0.932813
0.933409
1.034737
0.808835
0.938773
0.854731
0.976920
0.959635
1.111627
1.025796
1.040697
1.222491
1.019835
1.099706
1.116991
1.154542
1.144409
1.157522
1.228452
1.078844
1.174808
1.172423
1.084805
1.191497
1.096725
1.277924
1.234412
1.155734
1.118779
1.296997
1.144409
1.229644
1.307726
1.246929
1.252890
1.427531
1.398921
1.254678
1.423955
1.520514
1.509786
1.704693
1.495481
1.721978
1.781583
1.915693
2.094507
2.490878
2.620816
2.833605
3.339648
8.642673
44.259429
113.140941
303.283930
534.678698
926.491618
1015.788913
1015.788913
1015.788913
1015.788913
1015.788913
927.014947
658.803582
362.659693
205.340981
83.139539
31.948686
7.990599
5.157590
4.485846
4.270673
4.178882
##ZVALUE=390
0.852942
0.698566
0.889897
0.821948
0.757575
0.911951
0.890493
0.892878
0.855923
0.850558
0.852942
0.746846
0.870824
0.798702
0.859499
0.884533
0.971556
0.962615
0.976920
0.960827
0.937581
0.794530
0.895858
0.872612
0.929832
0.952482
0.913739
0.948906
1.018643
0.931621
0.823736
1.015663
1.004934
0.984669
1.211762
1.258850
1.196861
1.273751
1.257658
1.202822
1.119971
1.204610
1.045465
1.256466
1.156926
1.318455
1.314878
1.230836
1.209974
1.289845
1.295805
1.300573
1.152754
1.269579
1.356602
1.284480
1.307726
1.306534
1.353621
1.413822
1.374483
1.400709
1.380444
1.609921
1.444817
1.595616
1.619458
1.800656
1.882911
1.815557
2.117753
2.275705
2.277493
2.312660
2.488494
2.657771
4.450679
24.387836
69.712400
203.524828
380.579829
715.288520
979.399681
1015.788913
1015.788913
1015.788913
1015.788913
1015.788913
819.115639
503.586531
292.387605
118.496418
53.631663
15.064478
5.958676
4.635453
##ZVALUE=395
0.749826
0.808835
0.822544
0.930429
0.898838
0.764728
0.964999
0.858903
0.958443
0.909567
0.962615
1.022816
0.854731
0.788569
0.813603
1.009703
0.851750
0.947714
0.978708
0.733733
0.828505
0.940561
0.905991
0.877976
0.732541
0.854731
0.846982
0.962615
0.907779
1.011491
1.043677
1.147985
1.094937
1.130700
1.121759
1.249909
1.121759
1.303554
1.289845
1.172423
1.158714
1.342893
1.306534
1.336932
1.397729
1.328588
1.289845
1.155734
1.343489
1.213551
1.325607
1.285672
1.252890
1.208782
1.271963
1.365542
1.338720
1.292825
1.371503
1.255870
1.451969
1.485944
1.373887
1.378655
1.411438
1.501441
1.664758
1.565814
1.752973
1.926422
1.794696
1.960993
1.955628
2.106428
2.167821
2.133846
2.237558
2.517700
3.019571
13.359785
45.297742
147.339702
283.950567
561.425686
826.167464
1015.796661
1015.796661
1015.796661
1015.796661
1015.796661
991.142988
633.817911
406.641960
192.567706
89.860559
26.088953
##ZVALUE=400
0.830889
0.862479
0.857711
0.818968
0.830889
0.948906
0.721812
0.873804
0.755787
0.895858
0.772476
0.791550
0.823736
0.880957
0.803471
0.942945
0.935793
0.968575
0.964999
0.778437
0.780821
1.112819
0.825524
0.880957
0.880957
0.972748
0.971556
0.882745
1.103878
1.027584
1.027584
0.994802
0.940561
0.954866
1.112819
1.138449
1.119971
1.183748
1.148582
1.105666
1.121759
1.312494
1.246929
1.407862
1.292825
1.205802
1.428723
1.265407
1.296997
1.391768
1.267791
1.322627
1.374483
1.448989
1.370907
1.366735
1.374483
1.223683
1.309514
1.204610
1.394749
1.436472
1.287460
1.602769
1.586676
1.536608
1.813769
1.760721
1.715422
2.048612
1.982450
1.943707
1.855493
1.978874
2.007484
1.864433
1.927614
2.156496
2.255440
2.343655
2.648830
7.963777
27.597547
92.700720
193.807483
424.392819
673.393607
1007.025838
1015.788913
1015.788913
1015.788913
1015.788913
1015.788913
742.696524
488.957763
243.357420
##END
