##TITLE=AAI0552
##FORMAT=SPECTACLE-ASCII V-1.2
##DATA TYPE=ULTRAVIOLET SPECTRUM
##SECOND TYPE=ULTRAVIOLET SPECTRUM
##DATE=11/28/17
##TIME=17:22:48
##SPECTROMETER/DATA SYSTEM=SPECTACLE
##XUNITS=NM EM
##YUNITS=ENERGY
##YFACTOR=1
##FIRSTX=220
##LASTX=410
##NPOINTS=96
##3DDATA=Equidistant
##ZUNITS=NM EX
##FIRSTZ=210
##LASTZ=400
##ZPOINTS=39
##XYDATA=(Y..Y)
##ZVALUE=210
6.259680
6.330609
5.661845
5.571842
5.502701
5.915761
5.433559
5.520582
4.694462
4.599690
3.405809
3.806949
3.525615
3.467798
3.353953
3.612638
3.869534
3.781915
3.734827
4.620552
3.991723
4.366636
4.623532
4.922748
5.413890
5.444884
5.929470
5.796552
5.573630
6.298423
5.571842
5.742908
6.981492
6.633997
6.290674
6.588697
6.885529
6.909966
7.347465
7.824898
7.531643
7.469654
7.900000
7.964969
7.447600
8.479953
9.121895
9.268522
8.902550
8.760691
8.834600
9.122491
9.543896
10.604858
8.870959
8.947849
10.128617
9.571910
8.726716
10.225773
9.345412
9.934902
10.491610
10.075569
9.903908
10.339618
10.870695
12.493730
13.928413
16.548634
17.372966
20.468831
24.666786
26.764870
30.934811
32.477975
32.029748
32.717586
32.862425
30.565858
27.366877
24.599433
21.684766
20.103455
14.836788
14.888644
12.420416
9.711981
9.368658
8.922815
9.459853
11.109710
9.561777
11.385679
11.775494
11.489987
##ZVALUE=215
17.338991
17.552972
14.313459
13.019443
11.187792
11.252761
11.204481
8.048415
10.919571
9.135604
9.088516
6.982684
5.933642
5.558729
4.036427
4.126430
3.960729
3.654957
3.819466
4.755855
4.702806
4.540682
4.525781
4.958510
5.116463
5.255938
5.673766
6.437898
5.908608
6.775856
6.309748
7.088780
6.653666
5.955696
7.120967
7.193685
7.368922
8.708835
7.377863
7.244945
7.279515
7.695556
7.829666
8.374453
7.848740
7.268786
9.334683
8.049607
9.480715
8.961558
8.601546
9.353757
10.554790
9.348989
9.763837
9.371638
9.454489
10.424852
11.332631
10.471940
10.305643
10.520816
9.267926
9.192824
10.129809
11.571646
12.088418
13.481975
15.078783
14.588833
17.929673
19.815564
23.898482
25.401711
27.884841
30.102730
30.207634
29.879808
30.511618
28.187633
24.529696
23.669600
19.639730
16.772747
15.970469
15.158653
11.747479
9.816885
10.167956
9.079576
9.768605
9.342432
9.527802
8.411407
9.368658
10.234714
##ZVALUE=220
41.261911
41.396618
46.251416
45.424700
40.235519
32.399893
28.645992
19.538999
17.041564
16.324520
18.479824
17.432570
17.187595
14.835000
12.507439
10.219812
7.846951
5.556941
5.437732
4.754663
4.949570
4.975796
4.893541
6.007552
5.751848
5.162954
6.048679
5.962849
5.745888
6.274581
7.008910
7.275939
6.635785
7.892847
7.334948
8.786917
7.251501
7.155538
8.756518
8.196831
8.628964
8.811951
8.490682
8.954406
9.099841
9.244680
7.875562
8.272529
8.684993
8.528829
9.431839
9.188652
10.215640
10.361671
9.512901
11.162758
9.618998
10.928512
10.323524
9.840727
10.996461
11.384487
11.193752
11.648536
10.504723
11.524558
12.528896
13.554692
13.448596
15.876889
17.670989
20.431876
22.881627
24.677515
27.910471
30.850768
30.922890
27.559996
28.286576
26.894808
23.913980
21.793842
19.022822
17.887950
16.009808
13.979673
11.041760
11.074543
10.588765
10.665655
8.625984
9.535551
9.489655
10.172725
9.460449
9.956956
##ZVALUE=225
57.820678
58.566928
77.174902
98.126531
108.895898
106.318593
98.792911
76.254606
62.446594
44.340491
33.841729
30.530691
30.555725
31.363964
30.404925
29.591918
23.499727
19.209981
13.497472
10.786653
6.973743
6.124973
5.881786
5.856752
6.110668
6.263852
6.250739
6.874800
7.319450
8.379817
7.359982
7.623434
7.191896
8.233786
8.292794
8.958578
8.131862
8.138418
8.823872
8.604527
9.600520
9.822845
8.986592
10.007620
9.834766
10.164976
9.717941
9.211898
9.914637
10.821819
10.642409
10.354519
11.146665
11.118650
12.329817
10.912418
11.809468
11.751652
12.911558
12.006760
12.643933
11.539459
13.678670
11.920929
12.814999
12.186766
12.410879
14.473796
15.790462
15.433431
16.882420
21.929741
23.181438
27.025938
25.054812
27.022958
25.654435
27.914643
27.542710
23.288727
23.796558
20.478964
17.943978
15.257597
15.150905
12.984872
12.862682
11.442900
10.435581
11.137724
11.452436
10.215640
9.114742
10.313988
10.051727
9.971857
##ZVALUE=230
42.767525
49.081445
81.974864
136.291981
174.263716
216.457844
239.570737
239.106417
227.370858
179.060698
136.929750
84.510446
63.437819
48.822761
46.834946
50.155520
50.198436
50.515532
44.472814
38.633943
27.927756
20.755529
13.450980
9.076595
7.446408
7.139444
6.801486
9.171963
8.720756
8.233786
7.942915
7.607937
8.548498
8.221865
9.246469
9.174943
8.956790
9.031892
8.885860
9.827614
8.880496
9.016991
9.638667
10.034442
10.681748
9.839535
10.434985
11.019707
11.079907
11.160970
10.696650
11.943579
10.629892
12.342930
12.137890
12.966990
12.408495
13.705492
12.556911
14.291406
14.015436
14.346838
14.373660
14.167428
15.610456
14.861822
15.116930
16.963482
17.094612
16.606450
20.126700
24.013519
26.149750
26.859641
27.100444
29.422641
28.498769
29.606819
29.749870
25.254488
23.886561
20.836592
20.176768
18.398762
16.707778
15.134811
14.410615
12.527704
13.075471
13.028979
11.650920
10.717511
12.118816
12.921691
12.628436
11.007786
##ZVALUE=235
13.809800
14.710426
37.408471
77.038407
153.952837
224.222541
331.825614
401.788950
462.138653
462.598801
411.410928
334.422588
266.095996
167.773962
117.196441
82.227588
73.849559
74.116588
81.769824
82.271695
79.752803
69.489479
49.778819
38.703680
25.180578
18.455982
12.261868
11.321902
8.982420
9.865761
9.703636
10.432601
8.390546
10.772943
9.217858
10.483861
10.094643
10.625720
9.438992
10.517836
9.987950
10.197759
10.082722
10.178685
10.064840
10.242462
11.746883
12.614727
11.526942
13.113618
13.741851
14.457703
13.505816
13.094544
12.037754
13.835430
13.687611
14.002919
14.539957
15.080571
13.820529
14.378428
16.716719
17.985702
16.700625
16.261935
16.286969
17.964840
19.279718
19.882917
24.380684
25.409460
27.199984
30.605793
32.126904
33.237934
32.910705
30.260682
30.295849
27.050972
24.837852
23.522973
21.127462
20.714998
19.299984
17.639995
15.954971
14.675856
16.015768
13.473630
14.270544
12.799501
13.453960
12.664795
13.783574
13.645887
##ZVALUE=240
2.674460
3.115535
6.469488
18.059611
51.667690
95.492601
202.211738
313.977003
496.673584
607.598424
702.570677
712.347627
666.055679
541.241765
422.996879
275.528431
192.841887
126.605630
105.510950
98.901987
104.723573
110.484958
106.668472
102.147460
82.155466
65.865517
45.763850
34.737587
22.505522
16.430616
13.090968
11.265874
9.930730
11.338592
11.473894
11.482835
11.083484
11.325479
11.841655
11.565685
10.643601
10.787845
11.435747
10.858774
10.781884
11.469722
11.901855
11.826754
12.377501
13.772845
13.634562
13.444424
14.073849
13.600588
12.712479
14.633536
14.917850
14.444590
14.419556
14.699697
16.696453
15.158653
14.696717
15.792847
17.799735
15.991926
16.899705
18.535852
19.782782
21.051764
22.237897
25.950670
27.113557
29.230714
33.090711
34.685731
32.592416
31.493902
29.927492
26.831627
26.609898
23.383498
22.232533
22.202730
19.314885
19.201636
17.570853
15.711784
17.015934
14.984608
14.979839
15.420914
14.997721
13.921857
14.807582
15.324950
##ZVALUE=245
2.442598
2.661943
2.302527
2.982616
4.484653
14.492869
37.136674
102.767944
194.085836
318.443775
522.809625
675.141811
840.420723
878.794789
837.977529
734.886527
552.566648
417.253971
296.853781
175.121427
125.449896
100.802779
107.459426
120.308995
124.641657
120.898485
109.704733
88.650584
73.530674
54.074526
36.525726
24.576783
17.277598
12.573600
12.235641
10.549426
10.040998
10.844469
10.668635
9.864569
9.432435
10.592937
9.486675
10.054708
9.877682
10.416508
11.200905
10.937452
11.087656
10.172725
10.681748
11.631846
11.526942
12.427568
12.032986
12.095571
12.619495
13.478994
12.183785
13.752580
12.891889
14.349818
13.908744
14.465451
13.722777
16.145706
15.696883
15.444756
17.436743
19.957423
20.882487
22.733808
24.846792
26.432872
26.773810
26.361942
26.794672
26.128888
23.396611
23.109913
20.263791
19.063950
19.188523
16.843677
16.757846
14.953613
14.737844
14.754534
14.500618
14.095902
13.695955
13.861656
13.199449
13.309717
13.202429
12.677908
##ZVALUE=250
1.982450
1.874566
1.892447
2.059937
2.611876
2.438426
3.030896
8.740425
36.159754
80.984831
198.984742
329.952836
497.938991
718.246698
867.044926
986.479521
975.373983
881.573558
751.608610
522.488952
362.248421
232.973695
136.078000
100.336671
99.948645
117.704868
128.338933
132.535696
128.965974
118.834972
102.646947
77.086687
60.378909
36.102533
25.078654
14.705658
12.540817
9.997487
8.965731
9.646416
9.193420
8.980632
8.613467
9.168983
8.484721
8.643866
8.655787
7.652640
8.936524
9.419918
9.551644
9.329915
10.009408
9.353757
10.000467
9.568930
10.791421
11.010766
10.928512
10.874867
10.796785
10.852814
10.256767
10.970831
11.182427
10.559559
11.748672
12.031794
13.506413
13.943911
16.244650
17.622709
19.085407
21.012425
21.796823
21.289587
20.890832
20.727515
20.093918
16.080737
17.337799
16.250610
14.577508
13.417602
12.839437
12.294650
12.619495
12.147427
11.722445
11.308789
11.955500
11.365414
11.092424
11.656880
10.617971
10.757446
##ZVALUE=255
2.117753
2.045631
2.095699
1.893640
2.096891
2.244711
2.027750
2.446771
2.691746
4.580617
21.019578
61.554909
165.395737
290.488601
496.124625
696.993470
952.822566
1015.788913
1015.788913
1015.788913
935.837626
667.933822
481.531620
272.669792
166.913867
100.407600
88.737607
100.183487
114.902854
133.602619
138.667822
134.754777
121.622682
97.895861
80.817938
54.581761
38.771629
22.348762
14.937520
10.334849
9.284616
7.188916
7.934570
8.303523
8.326769
7.816553
7.540584
7.454753
8.341670
8.047819
8.267760
8.115768
8.162856
8.167624
8.486509
7.623434
9.045601
9.182692
9.782910
9.817481
9.370446
9.162426
9.147525
9.850860
9.819865
10.320544
10.230541
10.483861
11.637807
12.018681
12.903810
14.514923
14.678836
16.060472
17.107725
16.436577
16.297698
16.241670
15.483499
14.900565
13.945699
13.004541
12.563467
10.456443
11.368990
10.482669
10.447502
10.913610
10.444522
10.191798
10.011792
10.155439
9.738803
10.034442
10.132790
9.370446
##ZVALUE=260
1.629591
1.956820
1.473427
1.529455
1.489520
1.524687
1.784563
1.976490
1.995564
2.236962
2.268553
3.545880
10.786653
51.593781
107.454658
260.554552
425.041914
702.707767
928.543806
1015.678644
1015.678644
1015.678644
1015.678644
930.973887
615.636706
419.387817
239.557624
144.482851
86.563826
80.135465
99.312663
118.697882
134.824514
139.580965
137.955546
124.430656
107.205510
79.211593
58.160424
36.934614
23.937821
14.236569
10.174513
8.136630
7.839799
7.076859
6.891489
7.568598
7.218719
7.604957
7.735491
7.682443
7.643700
7.436872
8.175969
8.079410
7.835627
8.037686
7.748604
7.850528
8.199811
8.634925
7.788539
7.875562
8.562803
8.893609
9.014606
8.975863
10.547638
10.843873
11.534691
12.119412
13.279915
13.902783
14.304519
14.822483
13.625622
13.316870
12.703538
12.084842
11.377931
11.302829
10.568500
9.475946
9.643435
9.208918
8.916855
8.536577
8.985996
9.453893
8.402467
8.635521
8.206964
8.257627
8.859634
8.656979
##ZVALUE=265
1.758933
1.663566
1.635551
1.743436
1.655817
1.720786
1.658797
1.846552
2.199411
1.849532
2.266765
2.173781
2.445579
2.706647
6.606579
33.611655
81.156492
202.586651
362.229943
666.317940
931.908488
1015.788913
1015.788913
1015.788913
1015.788913
1015.788913
805.450678
567.912459
309.389830
183.227658
108.355880
70.637465
74.514747
101.475716
119.971633
141.157508
144.073963
139.799714
127.292871
101.380944
81.422925
54.617524
36.377907
22.757649
13.750792
9.400845
7.376671
6.960630
7.057786
6.950498
7.369518
7.437468
7.347465
8.107424
8.113980
8.359551
7.827878
8.128881
8.271933
7.672906
8.001924
7.869601
8.197427
8.233786
8.358955
8.208752
8.316636
8.345842
9.494424
9.521842
10.971427
12.019873
12.143850
12.401938
12.869835
11.867881
12.021661
11.696815
11.143684
10.199547
10.293722
9.661913
8.810759
8.398890
8.617640
7.947683
8.322597
7.179976
7.454753
8.124709
8.210540
7.878542
7.603765
7.837415
7.427931
7.886887
##ZVALUE=270
1.596808
1.467466
1.638532
1.504421
1.804829
1.639724
1.586676
1.579523
1.796484
1.712441
1.771450
1.933575
2.232790
2.027750
2.393723
2.634525
3.245473
14.910698
48.372746
154.522657
305.110812
531.782508
906.113982
1015.788913
1015.788913
1015.788913
1015.788913
1015.788913
1014.813781
791.751742
533.117652
273.445845
150.134563
72.250962
60.833693
79.135895
98.295808
124.122500
138.397813
147.286654
143.484473
126.097798
106.794834
75.811744
58.046579
35.584569
23.057461
14.003515
9.953976
8.048415
7.499456
7.320642
7.238984
7.169843
8.102655
7.637739
7.139444
7.723570
8.137822
7.876754
7.797480
7.789731
7.400513
7.953644
7.406473
7.617474
7.699728
8.455515
8.323789
9.375811
9.811521
10.845661
11.150837
11.945963
11.416674
11.230707
11.614561
11.149645
10.553598
9.963512
9.859800
8.411407
8.008480
7.602572
7.943511
7.267594
7.331967
7.453561
7.262826
7.345676
7.236600
7.071495
7.375479
7.574558
7.249713
6.832480
##ZVALUE=275
1.635551
1.584888
1.455545
1.688600
1.746416
1.473427
1.519918
1.700521
1.530647
1.599789
1.767874
1.852512
1.756549
2.027750
1.940727
1.972914
2.332926
2.545714
2.660751
7.475615
29.257536
86.887479
257.028937
466.197729
853.070021
1015.840769
1015.840769
1015.840769
1015.840769
1015.840769
1015.840769
989.422798
711.102486
368.567705
209.869742
86.969733
53.786635
55.422783
71.761608
99.635720
120.645761
137.492418
142.808557
139.198899
127.157569
100.384951
82.156658
56.692958
39.719939
24.083853
16.321540
10.368824
8.746982
7.600784
7.418990
7.334948
7.850528
7.940531
7.916689
8.035898
8.018613
7.891655
7.737875
8.418560
7.935762
7.891655
8.055568
8.683801
9.250641
9.956956
9.682775
10.730624
10.956526
11.547804
11.686683
11.465549
11.350513
11.031628
10.373592
9.269714
9.080768
8.046627
8.382797
7.315874
7.027984
7.298589
7.008910
7.513762
6.834865
6.801486
6.670952
6.365776
6.976724
6.085634
6.916523
6.110668
##ZVALUE=280
1.415610
1.459718
1.379848
1.347661
1.351833
1.331568
1.454949
1.378655
1.709461
1.477599
1.582503
1.621842
1.671910
1.769662
1.949668
1.887679
2.102852
2.218485
2.192855
2.736449
2.624989
3.219843
20.168424
69.878697
217.589736
396.494865
712.317824
992.249846
1015.791893
1015.791893
1015.791893
1015.791893
1015.791893
1015.791893
896.115899
502.917767
293.133855
124.466419
61.667562
40.550828
50.710440
75.447559
95.883608
119.391680
132.798553
141.368508
136.907697
121.715665
103.437901
77.836514
58.266521
37.364960
25.417805
15.634894
10.680556
8.760691
8.032918
8.087754
7.914901
8.001924
7.703900
7.987618
8.353591
8.662939
8.084774
7.611513
8.000731
8.872747
8.671880
9.344816
9.794831
10.089874
10.144711
10.847449
10.474920
10.567904
9.910464
9.755492
9.263754
9.100437
8.238554
7.904768
7.596612
7.260442
6.849766
6.837845
6.707907
6.936789
6.684661
6.706715
6.853938
6.330609
6.335974
6.132722
5.993843
6.213784
##ZVALUE=285
1.243949
1.330972
1.345873
1.134872
1.269579
1.340508
1.480579
1.474619
1.452565
1.544952
1.592636
1.529455
1.684427
1.588464
1.659989
1.692772
1.739860
1.883507
1.904964
2.146959
2.333522
2.391934
2.761483
3.250837
10.167956
37.611723
125.264525
265.272856
559.194684
845.858455
1015.788913
1015.788913
1015.788913
1015.788913
1015.788913
1015.788913
1015.788913
711.732507
436.313748
200.117826
95.225573
39.011836
34.176707
50.215721
68.075657
94.746947
114.444494
130.978823
137.660503
134.495497
124.367476
102.941990
83.570480
58.677793
42.194724
24.931431
17.120838
11.568666
9.345412
8.167624
8.436441
8.207560
8.253455
8.571744
8.303523
8.211732
8.030534
8.417964
8.414984
8.752942
9.250641
9.817481
10.113716
10.129809
10.087490
9.647608
9.774566
8.973479
8.860826
8.591413
7.777810
7.652640
6.925464
6.809831
6.700754
6.571412
6.702542
5.692840
6.153584
6.095767
6.149411
5.998611
6.192923
5.974770
5.874634
5.828738
##ZVALUE=290
1.250505
1.070499
1.251698
1.248717
1.371503
1.276731
1.499653
1.446605
1.399517
1.407862
1.487732
1.491904
1.478791
1.417994
1.606941
1.580715
1.671910
1.927614
1.689792
1.849532
2.052784
1.972914
2.303720
2.406836
2.789497
2.833605
4.331470
15.101433
73.850751
178.133845
344.677567
702.599883
1005.804539
1015.788913
1015.788913
1015.788913
1015.788913
1015.788913
1015.788913
945.914984
611.833930
294.529796
148.870945
53.378940
29.276609
33.241510
44.789910
66.039562
85.460544
109.883547
123.622417
134.491920
133.107901
121.055841
105.214715
78.184605
59.529543
40.158629
27.306676
17.847419
13.309717
10.095835
9.375811
8.416772
8.502603
8.243918
9.051561
8.611679
8.710623
9.315610
9.812713
10.119677
10.116696
10.372996
10.034442
10.201931
9.536743
9.018779
8.702874
7.457733
7.786751
7.275939
7.018447
6.566644
6.725788
6.517768
6.350875
6.559491
6.352663
6.454587
6.134510
6.175637
5.845428
5.868673
5.726814
5.520582
##ZVALUE=295
1.315475
1.317859
1.373887
1.160502
1.280904
1.282692
1.343489
1.250505
1.191497
1.302958
1.562834
1.671910
1.331568
1.501441
1.564622
1.447797
1.642704
1.699924
1.820922
1.766682
1.858473
1.925826
1.955628
2.105832
2.207756
2.447963
2.545714
2.886653
3.629923
6.793737
26.257634
119.998455
277.632475
636.145473
969.306827
1015.782952
1015.782952
1015.782952
1015.782952
1015.782952
1015.782952
1015.782952
804.752707
411.076546
219.540000
75.793862
34.576654
22.820830
28.043985
44.435859
61.039925
85.274577
102.909803
120.480657
127.054453
126.246810
116.611719
97.079873
78.666806
57.268739
41.661859
26.749969
19.352436
13.194680
11.088848
9.188652
9.312630
9.276867
9.429455
9.604692
9.295940
10.023713
10.075569
10.157824
9.526610
9.453893
9.273887
8.728504
8.245707
7.852912
7.704496
7.214546
6.857514
6.852746
7.061958
6.320477
6.608963
6.367564
6.204844
6.157756
6.152987
5.839467
5.822778
5.731583
5.801916
5.666614
##ZVALUE=300
1.332760
1.158714
1.122952
1.169443
1.172423
1.248717
1.167655
1.265407
1.284480
1.362562
1.172423
1.336932
1.456738
1.435876
1.268983
1.295805
1.391768
1.664758
1.562834
1.439452
1.577735
1.736879
1.798868
1.808405
2.103448
2.019405
2.278686
2.303720
2.450943
2.797842
3.147721
3.658533
11.985898
71.544647
182.475448
467.748642
779.881477
1015.788913
1015.788913
1015.788913
1015.788913
1015.788913
1015.788913
1015.788913
993.779898
576.358438
333.739519
144.428611
65.355897
23.434758
19.368529
28.449893
38.642883
57.512522
75.602531
97.481608
112.095475
122.434497
122.246742
112.003684
98.488927
75.902939
58.520436
40.246844
29.150844
17.908812
13.431907
10.611415
9.892583
10.070801
9.714961
10.239482
10.047555
9.911656
9.750724
8.805990
8.697510
8.582473
8.263588
7.265806
7.363558
7.085800
7.010698
6.700754
6.603599
6.796718
6.179810
6.256700
6.095767
6.138682
5.681515
5.638599
5.822778
5.671978
5.430579
5.469918
##ZVALUE=305
1.333952
1.257658
1.416802
1.320839
1.385808
1.319647
1.420975
1.260638
1.172423
1.212955
1.252890
1.392961
1.365542
1.542568
1.547933
1.515746
1.530647
1.582503
1.680851
1.656413
1.549721
1.401901
1.634955
1.864433
1.846552
1.935959
2.044439
2.322793
2.303720
2.223849
2.506971
2.554655
3.056526
3.547668
9.192824
36.924481
148.717761
322.372913
707.898736
1015.566587
1015.877724
1015.877724
1015.877724
1015.877724
1015.877724
1015.877724
1015.877724
858.535767
461.272597
245.977640
89.252591
37.455559
17.412901
18.320680
26.203990
37.506819
56.347847
72.218776
92.237592
105.514526
114.562511
115.511417
106.263757
93.799829
71.746707
56.531429
38.433671
27.381778
17.348528
13.226867
10.751486
10.092854
9.778738
9.411573
9.330511
9.222627
8.431673
8.353591
7.963777
7.611513
7.272959
6.947517
6.674528
6.853938
6.226897
6.452799
6.578565
6.195903
6.013513
5.928874
5.611777
5.423427
5.849600
5.477667
5.395412
5.316734
##ZVALUE=310
1.368523
1.364946
1.283884
1.407862
1.369715
1.240969
1.306534
1.431704
1.265407
1.390576
1.378655
1.387596
1.472831
1.404881
1.385808
1.387596
1.723766
1.547933
1.549721
1.748800
1.564622
1.671910
1.709461
1.563430
1.963973
1.759529
1.893640
2.281666
2.137423
1.993775
2.300739
2.369881
2.649426
2.833605
3.121495
3.383756
3.991723
20.859838
70.463419
226.522684
436.550975
868.282914
1015.985012
1015.985012
1015.985012
1015.985012
1015.985012
1015.985012
1015.985012
1008.546948
700.261593
345.065594
181.293488
61.639547
24.191737
15.147924
17.788410
24.935603
33.606887
49.936771
63.951612
85.135698
98.510981
108.817816
108.790994
100.591779
90.381503
71.393847
55.773854
37.700534
27.288795
18.113852
13.968945
10.928512
9.077787
8.640885
8.045435
7.906556
7.361770
7.366538
6.655455
6.981492
6.482601
6.298423
6.257892
6.260872
6.209612
6.069541
5.581975
5.804896
5.524755
5.537868
5.596876
5.482435
5.405545
5.555749
##ZVALUE=315
0.961423
1.183748
1.190901
1.187921
1.181960
1.238585
1.128912
1.171827
1.298785
1.260638
1.158714
1.194477
1.108646
1.236796
1.203418
1.189709
1.363754
1.186728
1.146793
1.515746
1.306534
1.489520
1.514554
1.397729
1.490712
1.740456
1.649857
1.700521
1.648664
1.759529
1.712441
1.921654
2.074838
2.343655
2.456903
2.601743
2.769828
3.170967
3.339648
9.510517
38.610697
153.796673
321.132541
686.587691
1010.378003
1015.820503
1015.820503
1015.820503
1015.820503
1015.820503
1015.820503
1015.820503
881.119967
455.280542
240.808725
84.274411
33.515692
14.118552
12.915730
15.994906
20.836592
32.281876
42.518973
60.498714
74.709654
92.261434
98.613501
100.999475
95.365644
82.491636
69.424510
51.626563
37.987828
24.891496
17.298460
11.386871
9.254813
7.484555
7.096529
6.390810
6.554723
5.769730
5.765557
6.334782
5.867481
5.683899
5.690455
5.674958
5.653501
5.432963
5.531907
5.272627
4.953742
5.182624
4.866719
5.267859
##ZVALUE=320
1.002550
0.949502
1.029968
1.057982
1.090765
1.173615
1.232624
1.020432
0.999570
1.006722
1.132488
0.989437
1.055598
1.153946
1.033545
1.190901
1.236796
1.158714
1.257658
1.090765
1.173615
1.189709
1.297593
1.188517
1.279712
1.337528
1.478791
1.576543
1.727939
1.663566
1.479983
1.631975
1.518726
1.887679
1.976490
1.885891
2.224445
2.599955
2.534986
2.808571
3.146529
4.602671
17.627478
95.238686
221.494436
523.095727
843.520761
1015.743613
1015.743613
1015.743613
1015.743613
1015.743613
1015.743613
1015.743613
1015.743613
619.382858
346.311927
135.311484
58.747530
18.510818
11.414886
11.789799
13.575554
18.164515
25.580525
40.141940
52.104592
69.505572
82.541704
92.208982
95.729828
90.779662
79.750419
62.993765
49.332976
32.743812
23.549795
15.089512
10.674000
7.569790
6.232858
5.673766
5.686879
5.340576
5.458593
5.324483
5.141497
5.334616
5.120635
4.822612
4.810691
4.904866
4.966855
4.722476
4.822612
4.740953
##ZVALUE=325
0.885725
0.726581
0.787973
0.829697
0.949502
0.950694
0.912547
0.951886
0.956655
0.951886
0.919700
0.895858
1.042485
0.879765
0.946522
0.850558
0.835657
0.988841
1.007915
1.012683
1.035929
0.993609
1.084805
1.089573
1.264811
1.222491
1.262426
1.387596
1.231432
1.544952
1.282692
1.486540
1.388788
1.530647
1.592636
1.770854
1.789927
1.891851
2.027750
2.326965
2.357960
2.652407
2.970695
3.495812
8.950830
60.540438
153.605938
378.273726
658.158660
1015.595794
1015.595794
1015.595794
1015.595794
1015.595794
1015.595794
1015.595794
1015.595794
764.516592
457.964540
196.240544
90.337992
26.301742
11.548996
9.359717
9.738803
12.156963
16.399622
25.065541
35.649538
52.204728
65.009594
79.125762
86.703897
88.260770
83.786845
71.581602
58.970451
43.556690
31.219721
19.794703
13.290644
8.941889
6.509423
5.480647
5.396605
5.233884
5.076528
4.874468
4.851818
4.790425
4.601479
4.380941
4.559755
4.530549
4.377961
4.468560
##ZVALUE=330
1.074672
0.915527
0.934601
1.032948
1.043677
1.110435
1.024604
1.053810
1.035929
1.119971
0.977516
1.117587
0.848770
1.050830
1.045465
1.129508
1.252890
1.185536
0.932813
1.161695
1.275539
1.216531
1.277924
1.351833
1.289845
1.292825
1.242757
1.268983
1.520514
1.361966
1.490712
1.675487
1.636744
1.572967
1.713634
1.655817
1.796484
1.998544
1.938939
2.205968
2.156496
2.199411
2.654791
2.796650
3.015995
3.377795
4.911423
29.929876
92.918873
275.885463
513.683558
967.680812
1015.788913
1015.788913
1015.788913
1015.788913
1015.788913
1015.788913
1015.788913
983.460546
635.457635
283.955932
139.379501
46.013594
16.712546
9.484887
9.487867
9.363890
11.504889
16.464591
23.382902
35.488605
46.662688
63.341856
74.375868
81.145763
81.818700
76.652765
67.618489
53.020716
41.355491
27.526617
19.544959
12.861490
9.474754
6.688833
6.051660
5.402565
5.264878
4.766583
4.774928
4.794598
4.675984
4.493594
4.627705
4.565716
##ZVALUE=335
0.920892
0.842810
0.965595
1.038909
1.016855
1.169443
1.208782
1.030564
0.973940
0.982881
1.043677
0.922680
1.002550
1.039505
1.067519
1.114607
1.105666
1.202822
1.128912
1.150966
1.170635
1.120567
1.075864
1.247525
1.076460
1.040697
1.120567
1.238585
1.449585
1.238585
1.495481
1.437664
1.414418
1.502633
1.481771
1.652837
1.742840
1.809597
1.612902
1.778603
1.806617
1.913905
2.088547
2.079606
2.412796
2.641678
2.968907
3.224611
3.598928
12.543797
47.214627
172.795653
346.090794
727.803707
1015.788913
1015.788913
1015.788913
1015.788913
1015.788913
1015.788913
1015.788913
1015.788913
776.469707
402.655005
207.628608
66.023469
24.305582
9.683967
8.504987
8.545518
9.060502
11.509657
14.569759
23.168921
31.678677
45.631528
55.915713
68.111420
73.875785
74.276924
71.063638
60.852766
51.124692
38.466454
30.246973
19.651651
14.032722
9.239912
7.106662
5.848408
5.155802
4.772544
4.752874
4.389882
4.672408
4.527569
##ZVALUE=340
0.859499
0.851750
0.887513
1.022816
0.965595
1.005530
0.811815
0.979900
0.934601
1.016855
1.027584
0.999570
0.984669
1.072884
0.985861
1.078844
1.005530
0.937581
1.131892
0.903606
1.202822
1.180768
1.034737
1.041889
1.117587
1.052618
1.155734
1.166463
1.052618
1.268983
1.440644
1.391768
1.402497
1.366735
1.330972
1.546741
1.519918
1.389980
1.440644
1.790524
1.544952
1.641512
1.964569
2.044439
2.137423
2.221465
2.502799
2.438426
2.778769
3.191829
3.404617
6.116629
23.672581
114.277601
266.713500
624.704957
979.293585
1015.783548
1015.783548
1015.783548
1015.783548
1015.783548
1015.783548
1015.783548
986.024737
520.073771
281.395912
108.373761
38.913488
11.877418
9.095669
8.417964
8.709431
9.012818
10.470748
15.052557
20.442605
30.343533
40.181875
53.778887
63.291788
69.572926
70.647597
66.924691
60.212612
49.003959
39.067864
27.351975
20.270944
13.688803
9.757876
6.671548
5.330443
4.931688
4.587770
4.647970
##ZVALUE=345
0.891685
0.967979
1.043677
1.021624
0.902414
1.088977
0.989437
0.905991
0.908971
0.880957
1.033545
1.208782
0.977516
0.987649
1.088977
1.089573
1.039505
1.132488
0.995994
0.986457
1.108646
1.036525
1.117587
1.009703
1.107454
1.171827
1.162887
1.170635
1.347661
1.283884
1.255870
1.338720
1.232624
1.304746
1.349449
1.389980
1.388788
1.423955
1.434684
1.505613
1.512766
1.560450
1.516938
1.640916
1.818538
1.921654
2.005696
2.142787
2.217889
2.408624
2.628565
2.888441
3.090501
3.702641
10.131001
64.664483
176.523924
452.224016
754.070878
1015.788913
1015.788913
1015.788913
1015.788913
1015.788913
1015.788913
1015.788913
1015.788913
741.875768
414.963961
159.515738
65.077543
16.651750
9.776950
8.813739
8.095503
7.779598
7.966757
9.455681
12.662411
18.977523
26.651621
38.483739
47.290921
56.745410
62.098503
64.069629
62.676668
55.487752
47.849417
36.632419
28.639436
19.012690
13.506413
8.831620
6.724596
5.598664
##ZVALUE=350
1.000762
1.178980
1.131892
0.988841
1.102686
1.052618
1.075864
1.161695
1.152754
1.176000
1.140833
1.109838
1.217723
1.118779
1.162887
1.139641
1.039505
1.044869
1.353621
1.114607
1.125932
1.185536
1.311898
1.152754
1.270771
1.233816
1.165867
1.176596
1.270771
1.192689
1.361966
1.234412
1.303554
1.352429
1.387596
1.385808
1.492500
1.489520
1.411438
1.604557
1.510978
1.609921
1.456738
1.748800
1.770854
1.930594
1.925826
2.015829
2.198815
2.244711
2.218485
2.455711
2.737641
3.012419
3.367662
3.708601
5.824566
34.253597
104.755759
305.684805
556.016564
997.426510
1015.852690
1015.852690
1015.852690
1015.852690
1015.852690
1015.852690
1015.852690
823.306441
492.678881
214.948654
95.402598
24.055839
10.662675
8.428693
7.820725
6.868839
6.832480
7.256866
8.686781
12.566447
17.020702
24.294853
32.088757
42.452812
49.710870
57.351589
59.793591
57.996511
52.733421
43.702722
35.939813
25.558472
19.443631
13.181567
##ZVALUE=355
1.034737
1.017451
1.066923
0.998974
1.082420
1.028776
1.032948
1.131892
1.010895
0.969768
1.052618
1.126528
0.981688
1.150966
1.140833
1.153946
1.109838
1.009703
1.135468
1.151562
1.021624
0.936985
1.181960
1.187921
1.128912
1.166463
1.135468
1.165867
1.326799
1.101494
1.294613
1.223683
1.419783
1.213551
1.421571
1.291633
1.433492
1.493692
1.471639
1.465678
1.646876
1.565814
1.553893
1.591444
1.624823
1.653433
1.793504
1.675487
1.984835
2.017617
1.925826
2.234578
2.453923
2.498627
2.602935
2.927780
3.115535
3.451705
4.056692
16.800761
61.632991
218.854547
423.801541
840.342641
1015.774012
1015.774012
1015.774012
1015.774012
1015.774012
1015.774012
1015.774012
1009.215713
673.441887
287.555456
130.611658
35.717487
13.575554
8.102655
7.410645
6.869435
6.474853
6.210804
6.678700
8.042455
10.011792
14.895797
20.362735
29.262900
36.578774
44.851899
50.625801
53.926706
53.211451
48.037767
42.602420
33.382773
##ZVALUE=360
1.030564
0.981688
1.043677
1.060963
1.034737
0.928640
1.060963
1.123548
1.065731
1.092553
1.074672
1.083612
1.066923
1.143813
1.100898
1.095533
1.167655
0.996590
1.123548
1.211762
0.981688
1.167655
1.256466
1.077652
1.198649
1.104474
1.264811
1.193881
1.219511
1.236796
1.161695
1.117587
1.218915
1.368523
1.268983
1.311898
1.340508
1.561642
1.528859
1.624823
1.489520
1.460910
1.609921
1.464486
1.529455
1.559854
1.680851
1.749992
1.766682
1.993775
1.954436
2.209544
2.079606
2.288818
2.342463
2.410412
2.594590
2.678633
3.007650
3.554821
3.823638
7.423759
26.831627
118.539929
270.750523
628.675818
972.990990
1015.788913
1015.788913
1015.788913
1015.788913
1015.788913
1015.788913
1015.788913
816.399455
395.300984
200.285912
68.244934
23.131967
8.447766
7.288456
6.639957
6.308556
6.185770
5.967617
6.029606
6.695986
8.816719
11.711717
16.856790
22.832751
31.829476
38.408637
44.964552
48.037767
48.969984
##ZVALUE=365
1.071692
0.934601
0.991821
1.017451
1.118779
0.967979
1.009703
1.123548
1.029968
0.978708
1.012683
1.149774
0.936985
1.039505
1.080632
1.230836
1.234412
1.153946
1.197457
1.221895
1.124740
1.191497
1.272559
1.039505
1.234412
1.161695
1.103878
1.177788
1.072884
1.165867
1.266599
1.149774
1.245737
1.184940
1.441836
1.295805
1.291633
1.286864
1.343489
1.346469
1.223683
1.458526
1.481771
1.559854
1.384616
1.522899
1.656413
1.645684
1.594424
1.677871
1.719594
1.921654
1.749992
1.820922
2.121925
2.084970
2.325773
2.425909
2.525449
2.895594
3.046989
3.374815
3.857613
4.486442
10.510683
64.506531
172.500014
449.090004
775.273442
1015.788913
1015.788913
1015.788913
1015.788913
1015.788913
1015.788913
1015.788913
968.097448
523.498654
278.127789
98.779798
36.269426
9.969473
7.412434
6.519556
6.129742
5.781651
5.451441
5.422831
5.339980
5.938411
7.052422
10.313988
13.990998
20.055771
25.692582
33.762455
##ZVALUE=370
1.083612
0.967979
1.043677
0.992417
1.127720
1.073480
1.136661
1.031756
0.974536
1.181960
1.158714
1.032948
1.208782
1.110435
1.017451
1.230836
1.284480
0.998974
1.206994
0.974536
1.056790
1.193881
1.204610
1.099706
1.160502
1.151562
1.313686
1.242757
1.062751
1.148582
1.172423
1.289845
1.221895
1.314878
1.350641
1.184940
1.364946
1.462698
1.230836
1.415610
1.260638
1.495481
1.382828
1.576543
1.445413
1.595616
1.661777
1.446605
1.587868
1.671910
1.640916
1.630783
1.805425
1.771450
1.787543
1.964569
1.927614
2.018809
2.088547
2.023578
2.589822
2.686977
2.970695
2.976656
3.282428
3.847480
6.106496
36.693811
118.709803
355.675817
631.952882
1015.870571
1015.870571
1015.870571
1015.870571
1015.870571
1015.870571
1015.870571
1015.870571
625.006557
343.831778
129.888654
56.792498
16.914606
8.083582
6.239414
5.849600
5.644560
5.455613
4.944801
4.783869
4.988909
5.350709
6.764531
8.393526
12.846589
##ZVALUE=375
0.968575
0.975728
0.934601
0.994802
0.793934
0.831485
0.974536
1.044869
0.987649
1.095533
0.842810
0.914931
1.015663
1.065731
0.906587
0.932813
0.852942
1.128912
1.072884
1.060963
0.909567
0.934601
1.067519
1.007915
1.005530
0.916719
0.976920
1.099706
1.088977
1.134872
1.118779
1.187921
1.213551
1.006722
1.134872
1.093745
1.290441
1.176000
1.141429
1.093745
1.190901
1.345873
1.249909
1.177788
1.313686
1.395941
1.394749
1.309514
1.439452
1.445413
1.337528
1.404881
1.719594
1.666546
1.656413
1.638532
1.862645
1.645684
1.715422
1.764894
2.081990
2.073646
2.094507
2.524853
2.408624
2.879500
3.074408
3.359914
4.088879
18.336773
65.403581
227.293968
460.111499
953.139663
1015.788913
1015.788913
1015.788913
1015.788913
1015.788913
1015.788913
1015.788913
818.117857
503.474474
240.754485
116.442442
34.062862
11.681914
6.172657
5.794764
5.339980
5.045533
4.803538
4.433990
4.432797
4.522800
5.028844
##ZVALUE=380
0.921488
1.053810
0.875592
1.008511
0.959635
0.978708
0.922680
1.064539
0.863671
0.908971
0.912547
0.924468
0.903606
0.787973
0.991821
0.825524
1.052618
0.919700
1.087785
1.170635
1.104474
0.939965
1.066923
1.122952
0.946522
1.054406
0.881553
0.893474
1.074672
1.101494
1.010895
1.072884
1.074672
1.045465
1.011491
1.166463
1.192689
1.177788
1.137853
1.208782
1.174808
1.304746
1.155734
1.257658
1.171827
1.148582
1.291633
1.202822
1.461506
1.355410
1.335740
1.435876
1.395941
1.448989
1.460910
1.539588
1.702905
1.575947
1.583695
1.829863
1.825690
1.936555
1.966953
2.192855
2.100468
2.519488
2.632737
2.959967
3.337860
3.790855
4.195571
9.249449
38.820505
169.859529
376.380682
834.793448
1015.788913
1015.788913
1015.788913
1015.788913
1015.788913
1015.788913
1015.788913
1015.788913
773.986578
369.756818
184.647441
59.228539
20.918846
7.516742
6.275773
5.447865
5.196929
5.103946
4.943609
4.526973
##ZVALUE=385
0.975728
0.890493
0.835657
1.001954
0.870824
0.852942
0.952482
0.833869
0.956655
0.944734
1.010895
0.974536
0.799894
0.832677
0.907779
0.887513
0.892878
0.869632
0.973940
0.874996
0.981688
0.934601
1.013875
0.982881
0.952482
0.981688
1.040697
0.936985
1.125932
0.888705
0.982881
1.130700
0.893474
0.967979
1.010895
1.083612
1.045465
1.042485
1.120567
1.056790
1.058578
0.982881
1.027584
1.078844
1.057982
1.117587
1.151562
1.235604
1.173615
1.236796
1.293421
1.224875
1.495481
1.322627
1.308918
1.432896
1.429915
1.521707
1.593828
1.552701
1.464486
1.640916
1.790524
1.786947
1.749992
2.072453
2.194643
2.494454
2.725720
2.980828
3.363490
3.737807
3.845692
5.250573
19.687414
108.495951
261.170864
603.019595
978.435874
1015.788913
1015.788913
1015.788913
1015.788913
1015.788913
1015.788913
1015.788913
996.667743
538.723469
293.440819
110.960603
41.599870
10.000467
6.335974
5.618930
5.371571
5.052686
##ZVALUE=390
0.860691
0.819564
0.700951
0.883937
0.904799
0.728965
0.887513
0.927448
0.913739
0.958443
0.872612
0.897646
0.889897
0.861883
1.043677
0.757575
0.858903
0.966787
0.829697
0.838637
0.768900
0.908971
0.942945
0.873804
0.890493
1.013875
1.144409
1.079440
1.018643
0.993609
0.985861
1.014471
1.001954
1.155734
1.023412
0.974536
0.988841
1.022816
1.142621
1.072884
1.071692
1.068711
1.106858
1.063943
1.233816
1.112819
1.182556
1.151562
1.203418
1.194477
1.208782
1.324415
1.326799
1.217723
1.283884
1.237988
1.426935
1.460910
1.514554
1.484752
1.534820
1.555681
1.680851
1.649857
1.686811
1.861453
1.862645
2.141595
2.416968
2.688766
2.804995
2.993941
3.092885
3.268719
3.374815
4.039407
8.623600
55.503845
157.324672
437.574387
791.222453
1015.790701
1015.790701
1015.790701
1015.790701
1015.790701
1015.790701
1015.790701
1015.790701
764.501691
429.435968
164.647698
72.889924
19.959807
8.081794
5.712509
##ZVALUE=395
0.943542
0.891685
0.889897
0.818968
0.823736
0.739694
0.717640
0.865459
0.901818
1.024604
0.897646
0.923872
0.966787
0.830889
0.844598
0.853539
0.953674
0.928640
0.949502
0.931621
0.867844
0.916719
1.011491
0.896454
0.898838
1.011491
0.938773
0.982881
1.000762
0.937581
1.073480
1.163483
1.011491
0.986457
1.033545
1.003742
1.008511
1.150966
0.921488
0.984669
1.019835
0.989437
1.197457
0.973940
1.128912
1.054406
1.146793
1.062751
1.221895
1.275539
1.257658
1.203418
1.251698
1.359582
1.245737
1.397729
1.301765
1.448989
1.347661
1.458526
1.446605
1.550913
1.552701
1.663566
1.808405
1.879930
2.008677
2.109408
2.127886
2.587438
2.713799
2.724528
2.619624
2.823472
2.794862
2.970695
3.266931
3.451705
5.834699
26.385784
139.801502
306.671858
666.255951
1002.170444
1015.788913
1015.788913
1015.788913
1015.788913
1015.788913
1015.788913
1015.788913
971.061587
500.905514
259.661674
92.005730
37.310719
##ZVALUE=400
0.805855
0.860691
0.897646
1.049638
0.766516
0.944734
0.939965
0.841618
0.854731
0.767708
1.005530
1.006722
0.777841
0.826716
0.814795
0.811815
0.842810
0.949502
0.993609
0.908971
0.950694
1.077652
0.843406
1.008511
0.943542
0.919700
0.902414
0.943542
0.971556
0.858903
0.875592
0.919700
1.059771
1.086593
0.889897
0.898838
1.028776
1.137853
1.005530
1.129508
1.012683
1.004934
1.145601
1.057982
1.171827
1.226664
1.170635
1.176596
1.176000
1.130700
1.205802
1.227856
1.207590
1.357794
1.252890
1.259446
1.314878
1.247525
1.424551
1.216531
1.395941
1.403689
1.490712
1.573563
1.597404
1.837611
1.844764
2.006888
2.112985
2.490878
2.513528
2.656579
2.476573
2.730489
2.454519
2.499819
2.710819
2.923608
3.212690
3.519654
4.302859
12.098551
73.067546
193.555951
493.796468
850.261450
1015.797853
1015.797853
1015.797853
1015.797853
1015.797853
1015.797853
1015.797853
1015.797853
675.645471
387.362838
##END
