##TITLE=2811DW
##FORMAT=SPECTACLE-ASCII V-1.2
##DATA TYPE=ULTRAVIOLET SPECTRUM
##SECOND TYPE=ULTRAVIOLET SPECTRUM
##DATE=11/28/17
##TIME=12:46:43
##SPECTROMETER/DATA SYSTEM=SPECTACLE
##XUNITS=NM EM
##YUNITS=ENERGY
##YFACTOR=1
##FIRSTX=220
##LASTX=410
##NPOINTS=96
##3DDATA=Equidistant
##ZUNITS=NM EX
##FIRSTZ=210
##LASTZ=400
##ZPOINTS=39
##XYDATA=(Y..Y)
##ZVALUE=210
14.014840
12.373924
11.388659
12.036562
10.010600
9.900928
8.675456
7.613897
7.313490
5.521774
4.832745
3.516674
3.733635
3.696680
3.891587
2.837777
4.002452
3.474951
3.451705
4.113913
4.348755
3.706813
4.024506
4.424453
4.022717
4.421473
4.017949
4.967451
5.505681
4.815459
5.050898
5.215406
5.644560
5.775690
6.509423
5.803704
6.059408
5.960464
5.564690
5.477667
6.139874
6.497502
6.157756
6.306767
6.198883
5.670786
6.726980
5.894899
6.653666
6.794930
6.427765
6.500483
7.200837
6.827712
6.592870
6.584525
6.409883
6.194711
6.298423
6.781816
6.219745
6.605983
6.206632
6.539822
6.663799
7.304549
7.531643
7.654428
7.896423
9.455681
10.376573
13.196468
14.016628
15.116930
14.078617
15.187860
15.164614
15.183687
14.947653
13.864636
12.817979
10.156631
9.831786
8.541942
7.895827
6.729960
5.940795
5.734563
6.036758
7.636547
8.139610
9.138584
12.969971
16.102791
18.727779
23.274422
##ZVALUE=215
38.863420
39.707422
33.988953
24.841428
20.576715
16.075969
15.369654
14.640689
14.567971
14.379621
12.698770
9.790659
7.658601
5.627871
4.603863
4.381537
3.763437
3.795624
3.334880
3.921986
3.489852
3.612638
4.666448
4.306436
4.556775
4.550815
4.531741
5.635619
5.796552
5.381703
6.200671
5.019903
5.318522
6.157756
5.615950
5.927682
5.765557
5.689859
5.893707
6.206632
6.118417
6.093979
6.384850
6.451607
7.318854
6.816983
6.438494
6.399751
7.426739
7.290840
7.387996
6.490946
6.904602
6.111860
7.719994
7.246733
6.618500
7.788539
7.508993
6.815791
7.162690
6.671548
6.358624
6.688833
6.985664
7.224679
7.218719
8.627772
9.288788
10.658503
10.959506
11.943579
13.371706
14.886856
15.508533
14.713407
13.707876
15.346408
14.252663
12.353659
11.509657
9.902716
9.057522
8.456707
7.806420
6.326437
6.555915
6.386638
5.711913
5.503893
5.509853
5.357862
5.455613
6.351471
7.273555
9.606481
##ZVALUE=220
87.477565
85.152984
86.414814
77.783465
62.168837
48.270822
36.111474
26.417971
25.219917
22.457838
22.266507
23.593903
19.772649
18.939972
15.446544
11.127591
8.131862
6.309748
5.455613
5.117655
4.983544
4.565716
4.975796
4.420877
5.255938
4.651546
5.458593
4.659891
5.511642
5.761981
5.817413
5.900860
5.355477
6.322861
6.073713
6.501675
6.321669
6.531477
6.453991
6.497502
7.539988
6.699562
6.661415
7.330775
6.725788
7.845759
7.243752
6.746650
6.664991
8.106828
8.038878
7.779598
8.560419
9.112954
8.864999
8.966923
7.908940
9.240508
8.851886
7.666945
8.135438
7.246733
7.887483
8.048415
8.743405
8.134842
9.193420
8.498430
8.778572
10.684729
11.000633
12.512803
13.866425
15.282631
14.974475
14.813542
15.163422
14.611483
14.128685
14.109612
12.241602
11.373758
9.597540
7.170439
7.611513
6.431937
6.758571
5.813837
6.010532
5.450845
5.268455
5.409718
5.646944
5.748868
5.606413
5.322695
##ZVALUE=225
106.092691
117.216706
136.344433
152.630806
154.067874
142.649412
120.906830
82.248449
59.684515
43.160915
38.950443
34.617782
35.959482
38.733482
34.072995
29.961467
26.047826
21.006465
15.125871
11.062622
7.061958
6.388426
5.847812
4.817843
5.665421
5.592704
5.614758
6.163716
5.550981
5.852580
5.457997
7.319450
6.354451
7.262826
8.481741
7.362962
7.286668
7.020831
7.107854
7.749796
6.838441
7.672906
7.724762
7.545948
8.234978
8.398890
8.463860
8.747578
8.387566
8.762479
8.937716
8.931756
9.021759
9.582639
8.676648
9.119511
10.314584
8.972883
10.091662
9.374619
8.886456
9.501576
9.543896
9.337664
8.183718
9.330511
9.449720
9.169579
10.216832
10.475516
11.331439
12.610555
14.461875
14.856458
14.147758
14.372468
12.978911
12.675524
14.029741
12.291670
12.441874
9.694695
9.128451
9.002686
7.602572
7.495880
7.144809
6.830692
5.863905
7.170439
6.220937
6.738901
6.539822
5.990863
6.764531
6.010532
##ZVALUE=230
68.202615
75.337887
119.418502
175.359845
229.435563
267.123580
278.406739
258.753896
217.207670
163.033605
104.131699
77.134967
55.263638
53.336620
52.557588
59.045553
59.041977
54.389834
47.514439
38.483739
29.400587
19.140840
12.465715
8.178949
6.773472
6.425977
5.955696
6.378889
6.602407
6.489754
7.514954
7.282495
6.415844
7.457733
7.992983
8.305907
7.846951
7.950664
8.469820
8.599758
8.889437
7.648468
8.243918
8.438826
9.384751
9.395480
9.531975
9.333491
9.448528
9.599924
8.926988
9.157658
8.804798
10.158420
10.169744
10.064840
9.521842
10.294914
9.882450
9.261966
10.376573
9.611845
8.982420
9.200573
10.241866
11.399984
10.535717
11.753440
10.992885
12.557507
13.412833
14.415979
14.064908
15.842915
15.829802
15.035868
15.744567
15.120506
13.584495
12.647510
11.608601
9.834766
9.346604
9.346604
8.876920
8.562803
8.603930
7.102489
7.534623
8.007884
6.862879
7.589459
7.498860
7.195473
6.699562
7.424951
##ZVALUE=235
20.796657
22.974610
57.248473
106.609464
194.528699
272.417665
378.291011
435.951948
468.668938
429.673791
344.023705
262.076855
184.436440
115.031600
85.657835
71.862936
70.561767
78.008771
83.677769
85.568428
74.694753
68.317652
50.400496
38.299561
26.175976
17.714500
11.625886
9.151697
7.814765
8.192658
7.677674
7.782578
7.382631
8.086562
7.543564
7.748604
8.573532
7.373691
8.581877
8.399487
8.192658
8.581877
8.787513
8.805990
8.785725
8.199811
9.763837
9.507537
9.590983
10.588765
8.404851
9.672642
9.353757
9.869933
9.874701
9.912848
10.308623
10.074973
9.330511
10.921955
9.401441
10.233521
10.810494
9.170771
9.587407
10.403991
11.003613
11.048913
12.267828
12.334585
12.345910
15.107989
14.942884
15.736818
15.511513
15.821457
15.436411
15.535951
14.768839
13.411641
13.208985
10.426641
11.075735
9.662509
9.873509
10.355711
8.748770
8.989573
8.759499
8.974671
8.469820
8.042455
7.402897
7.274747
7.492900
7.576942
##ZVALUE=240
3.264546
2.718568
9.860992
24.213791
75.645447
135.616660
258.700848
380.714536
553.971529
621.412992
669.305921
641.973615
557.821989
412.492752
298.204422
172.217488
123.250484
92.915893
85.158944
93.407631
105.994940
110.967755
111.399889
98.720789
81.401467
63.337684
45.512915
34.099817
19.967556
15.110970
11.026859
9.132624
8.917451
8.532405
9.129643
8.329749
9.563565
8.529425
8.874536
8.665919
9.015799
9.498596
8.818507
9.240508
9.185672
9.851456
9.421706
9.217858
8.488894
10.989904
8.848906
9.521842
9.462833
9.896755
9.441972
8.750558
9.008646
9.271502
9.432435
8.817911
10.035634
10.299683
9.307861
9.310842
9.989738
10.018945
10.564923
11.360645
10.566711
13.910532
13.766885
15.006661
15.507936
15.816689
17.731786
16.629696
16.183853
14.973879
14.253855
15.122890
13.671517
11.639595
11.883974
9.978414
9.850860
9.629726
9.098649
8.177757
8.353591
9.468794
9.287000
8.161664
8.750558
8.310676
7.347465
8.240938
##ZVALUE=245
2.329946
2.604723
2.796650
2.710819
6.332994
19.882917
64.516664
138.117671
288.845897
434.408784
629.943609
745.823979
805.612803
784.217715
699.113011
535.717010
402.455926
254.440904
173.569918
109.287500
92.462897
88.794827
105.669498
118.362904
122.304559
117.616653
108.195543
90.634823
67.696571
51.975846
38.691759
23.982525
15.864968
10.911822
9.489655
8.449554
9.085536
8.698702
8.781552
8.571744
8.564591
7.823706
7.948875
8.502603
7.261634
8.019805
7.956624
7.925630
7.947683
8.342862
7.826686
7.405877
7.168651
7.947683
8.629560
8.606911
7.976890
8.292794
8.718967
8.584857
7.973909
8.039474
8.983612
8.542538
8.852482
8.714795
8.892417
9.758472
8.839965
11.201501
11.498928
12.409687
13.508797
14.004707
12.965798
13.771653
13.682842
11.567473
12.211800
12.664795
10.266900
9.680986
9.713769
9.219646
8.406639
8.266568
7.543564
7.028580
7.908940
7.445812
6.948709
7.832646
6.555915
7.801652
6.804466
6.480813
##ZVALUE=250
2.290606
2.289414
2.408624
2.442598
2.664924
3.102422
3.402829
16.428828
48.980713
132.486820
246.315002
459.351540
631.108880
828.362703
914.012790
927.848816
841.960907
722.246766
516.967773
374.947786
216.912627
146.174431
92.073679
84.355474
93.937516
112.232566
126.113892
129.294991
126.328468
116.156936
94.552636
75.811744
56.078434
36.265850
24.208426
14.676452
10.129809
8.837581
7.782578
7.566810
8.419752
7.604957
8.314848
7.632971
8.148551
7.468462
7.570982
7.371902
7.350445
7.144809
7.810593
7.592440
7.273555
7.108450
7.274747
6.865859
6.766915
7.157922
7.062554
6.543994
7.182956
7.476807
7.021427
7.316470
7.323623
6.850958
7.930994
7.750988
8.683801
8.811951
9.783506
10.332465
10.230541
11.763573
12.222528
12.435913
11.567473
10.198951
10.721684
8.972883
8.415580
8.572936
7.491708
7.564425
6.981492
6.467700
6.516576
6.748438
6.554723
6.013513
6.501675
6.458759
6.238818
6.136894
5.822778
5.653501
##ZVALUE=255
2.062917
2.174973
2.024770
1.840591
2.244711
2.253652
2.168417
2.467632
2.774000
5.876422
34.174919
92.808008
236.411691
394.752622
635.671020
832.688808
1015.536785
1015.788913
1006.384492
875.743032
699.826479
458.998680
305.142999
172.212720
108.556747
78.046918
78.233480
95.293522
113.350749
129.258633
137.900710
131.625533
122.174621
99.569559
78.111887
52.870512
36.930442
21.248460
14.323592
9.207726
8.305907
7.124543
7.416606
7.702708
7.485747
7.442832
6.915927
8.276701
7.719994
7.284880
7.090569
7.276535
6.852746
6.882548
7.122755
6.102920
6.628633
6.683469
6.675720
6.314516
5.873442
6.573796
6.148815
6.418824
6.809831
6.496906
7.143617
6.932616
7.860661
7.770658
8.384585
9.199977
8.904934
9.773970
9.401441
9.903908
9.205937
9.245872
8.640885
8.104444
6.790757
6.665587
6.214976
6.098747
5.809665
6.050467
6.071925
5.986691
5.230904
5.774498
5.223751
5.448461
5.150437
5.107522
5.299449
5.017519
##ZVALUE=260
1.538992
1.415610
1.608729
1.539588
1.530647
1.577735
1.513958
1.920462
2.249479
1.968741
2.051592
3.536940
16.922951
78.048706
165.938735
368.931890
576.529503
868.117809
1015.545726
1015.545726
1015.545726
1015.545726
853.945613
637.562871
391.675830
252.904892
142.683983
92.590451
69.573522
72.672963
97.012520
114.677548
129.138827
139.997602
136.645436
123.747587
103.667974
76.853633
59.344769
36.364794
24.838448
13.216734
9.432435
7.591844
7.335544
6.920695
7.082820
7.016659
6.424785
7.347465
7.294416
6.821752
6.625652
6.361604
6.375909
6.223917
6.083846
5.978942
6.274581
5.537868
5.684495
5.865693
6.117821
6.237626
6.092787
5.978942
6.012917
6.666780
6.530881
7.371902
7.294416
8.046627
8.173585
7.837415
8.092523
7.347465
7.648468
7.027984
7.118583
6.128550
6.036758
4.992485
5.421638
5.173683
5.174875
4.968643
4.824996
3.968477
4.251599
4.605651
4.358888
4.522800
4.543662
4.687905
4.266500
3.689528
##ZVALUE=265
1.635551
1.710653
1.776814
1.898408
1.683831
1.998544
1.806617
1.845956
1.986623
2.293587
2.131462
2.449751
2.552867
3.009439
7.442832
52.285790
125.419497
304.749608
517.242551
872.291923
1015.788913
1015.788913
1015.788913
1015.788913
971.934795
765.530467
521.239638
349.111557
185.114741
115.127563
70.246458
59.954524
72.542429
98.584890
119.601488
141.456723
146.231651
138.312578
126.723647
102.405548
80.303550
53.931475
37.870407
22.033453
15.363693
9.887815
7.933974
7.681847
7.045865
6.854534
7.380843
7.545948
6.849766
6.931424
6.707907
7.004738
6.965995
6.937981
6.799698
6.446838
6.582737
6.022453
6.333590
5.625486
6.073713
5.849600
5.685687
6.457567
6.984472
6.669760
6.422997
6.978512
7.812977
7.330775
7.728934
7.335544
6.985664
6.917715
6.093979
6.187558
5.180836
5.091429
4.925728
4.786849
4.464984
4.561543
4.038811
4.455447
4.320741
4.308820
4.450679
4.139543
4.235506
3.880858
4.412532
4.086494
##ZVALUE=270
1.657605
1.657605
1.607537
1.821518
1.702905
1.669526
1.522899
1.564622
1.766682
2.033710
1.767874
1.908541
2.012849
2.278686
2.365708
3.081560
3.332496
23.958683
79.914927
247.091651
455.323458
756.883621
1015.788913
1015.788913
1015.788913
1015.788913
1015.788913
975.474715
669.073462
472.449660
273.647904
171.383619
84.010959
56.380630
56.439638
71.652532
98.316669
119.037628
138.782859
146.950483
140.000582
127.959847
104.627609
84.002614
56.720972
39.395690
24.449825
16.157627
10.175705
8.684993
7.918477
7.384419
7.678866
7.554889
7.472634
7.305741
6.641746
7.049441
6.454587
6.700754
6.308556
6.388426
6.887913
6.150603
5.988479
5.918741
6.159544
6.261468
6.381869
6.271601
6.625652
7.260442
6.740689
7.160902
7.042885
6.781816
6.208420
6.568432
5.824566
5.426407
4.988909
5.072951
4.235506
4.355907
4.241467
4.128814
3.870726
3.824830
4.129410
3.881454
4.150867
3.809929
3.570914
4.024506
3.783703
3.963709
##ZVALUE=275
1.546741
1.684427
1.461506
1.354814
1.602769
1.639724
1.674891
1.557469
1.705885
1.781583
1.715422
1.709461
1.909733
1.910925
2.147555
2.214909
2.418756
2.635717
2.763867
10.450482
49.492717
180.948973
376.669765
666.502714
1015.788913
1015.788913
1015.788913
1015.788913
1015.788913
1015.788913
853.092670
629.429817
369.488597
224.977732
107.235909
61.842799
43.575764
51.628947
73.687434
94.480515
120.849609
132.074952
143.066645
140.570998
124.011636
105.666518
80.368519
59.576631
37.898421
26.556849
15.876889
11.055470
8.587837
8.292794
7.011890
6.982684
7.013679
6.910563
6.818771
6.807446
6.474853
6.629825
6.618500
6.176829
6.254911
6.002784
6.037951
6.070733
6.183982
6.250739
6.669760
6.412864
6.578565
7.230639
6.900430
6.928444
6.274581
6.101727
5.416870
5.170703
4.711747
4.755855
4.174709
4.206896
3.918409
3.908873
3.636479
3.862977
3.774762
3.408790
3.706813
3.437996
3.684759
3.766418
3.796816
3.371835
##ZVALUE=280
1.437664
1.463890
1.537800
1.358986
1.437664
1.416802
1.626611
1.545548
1.557469
1.639724
1.543760
1.826882
1.790524
1.637936
1.900792
1.734495
2.159476
2.118945
2.349615
2.855659
2.902746
3.994703
33.677816
116.093755
333.060622
574.455857
952.718854
1015.788913
1015.788913
1015.788913
1015.788913
1015.788913
1004.775763
697.441697
484.964848
262.623429
154.763460
73.863864
43.749809
37.128925
47.964454
72.795749
93.764663
116.330981
131.726861
138.783455
137.133002
120.318532
103.615522
76.247454
58.540702
37.211776
25.808811
15.571713
10.907650
8.287430
7.307529
7.045865
6.724000
6.473660
6.536841
6.357431
6.696582
6.316900
5.749464
6.025434
6.054640
6.086826
6.528497
6.407499
6.729960
6.419420
6.422997
6.260872
6.268620
5.910993
5.980730
5.127788
5.605817
4.874468
4.770756
4.135966
4.411936
4.105568
3.918409
3.804564
3.599524
3.667474
3.641844
3.609657
3.786683
3.622770
3.348589
3.648996
3.563762
3.447533
##ZVALUE=285
1.223683
1.503825
1.236796
1.362562
1.375675
1.351833
1.332760
1.249909
1.609921
1.585484
1.452565
1.579523
1.675487
1.730919
1.743436
1.784563
2.044439
2.041459
1.969934
2.204776
2.277493
2.624989
2.637506
3.142953
16.314983
63.525438
199.723840
389.380455
757.092834
1015.788913
1015.788913
1015.788913
1015.788913
1015.788913
1015.788913
844.182968
614.113808
362.883806
225.824714
103.775859
56.505799
30.640960
31.262636
48.684478
66.805482
91.546774
110.935569
126.721859
135.094523
132.466555
124.105811
101.444721
81.580877
57.599545
39.841533
24.653673
16.827583
10.736585
8.019805
6.895661
6.407499
5.944967
6.148815
6.070733
5.496740
5.587935
5.405545
6.100535
5.821586
6.020665
5.563498
6.272793
6.050467
5.751848
5.839467
5.378723
5.170703
4.835725
4.761815
4.459620
4.313588
3.800988
3.876686
3.732443
3.750920
3.748536
3.723502
3.588796
3.561974
3.606677
3.379583
3.289580
3.530979
3.337860
3.191829
3.404617
##ZVALUE=290
1.309514
1.425743
1.317859
1.419783
1.282692
1.338720
1.371503
1.286864
1.490712
1.514554
1.664758
1.301765
1.583695
1.551509
1.675487
1.501441
1.383424
1.714826
1.930594
1.949668
1.840591
2.151728
2.382994
2.442598
2.747774
3.054738
5.492568
25.301576
121.188760
269.515514
491.055846
903.695822
1015.783548
1015.783548
1015.783548
1015.783548
1015.783548
989.036560
753.435493
466.951728
301.659703
147.770643
79.532862
33.878684
23.669600
31.698942
42.552948
64.216852
81.777573
105.792880
122.316480
129.192472
130.179524
115.793943
101.015568
75.014830
56.688786
36.434531
24.709702
14.591813
10.142922
6.492734
6.121993
5.288720
5.205870
5.268455
5.127788
5.027652
5.497932
5.376935
5.847812
5.675554
5.332828
5.362630
5.092621
4.911423
4.735589
4.599690
4.226565
4.071593
4.048944
3.859997
3.675818
3.467798
3.529787
3.415942
3.642440
3.245473
3.421903
3.368855
3.292561
3.419518
3.267527
3.227592
3.334880
3.232956
##ZVALUE=295
1.169443
1.225471
1.195669
1.131892
1.267791
1.275539
1.412630
1.305938
1.347661
1.350641
1.300573
1.488924
1.370907
1.523495
1.550913
1.375675
1.470447
1.458526
1.546741
1.586676
1.852512
1.936555
2.076626
2.047420
2.280474
2.408624
2.452731
2.764463
3.467798
10.362864
65.950751
176.609755
367.192626
761.062503
1015.788913
1015.788913
1015.788913
1015.788913
1015.788913
1015.788913
881.525874
577.816963
378.731489
192.262530
108.171701
43.159723
23.535490
19.864440
26.346445
41.082501
56.878924
80.263615
96.740723
114.067793
121.729970
122.267604
112.317801
91.852546
74.592829
53.210855
36.971569
21.702647
14.424920
9.179711
6.459951
5.289912
4.667640
4.905462
4.810691
4.957914
5.137920
5.090833
5.059838
4.810691
4.920959
4.639626
4.479885
4.465580
4.149675
3.763437
3.611445
3.440976
3.238916
3.363490
3.379583
2.991557
3.245473
3.348589
3.267527
3.396869
3.484488
3.030896
3.159642
3.179908
3.240705
3.186464
##ZVALUE=300
1.296997
1.070499
1.098514
1.297593
1.267791
1.250505
1.312494
1.307726
1.351833
1.242757
1.319647
1.304746
1.387596
1.213551
1.338720
1.450777
1.416802
1.517534
1.652837
1.538992
1.561642
1.714826
1.772642
1.561642
2.004504
1.982450
2.144575
2.335906
2.391934
2.729893
2.970695
4.458427
21.110773
119.577646
264.430642
588.455796
904.874802
1015.788913
1015.788913
1015.788913
1015.788913
1015.788913
1004.843712
702.757835
491.032600
267.272592
156.613588
68.233609
33.430457
16.341805
16.400814
24.285913
34.656525
53.104758
70.072412
91.659427
106.347799
114.250779
114.366412
106.080770
92.424750
69.813728
53.861737
35.644770
24.071932
12.935996
9.321570
6.056428
5.121827
4.849434
4.900694
4.618764
4.657507
4.331470
4.144907
4.099607
3.852844
4.140735
3.604889
3.614426
3.309846
3.415942
3.217459
3.306866
3.298521
3.107786
3.027916
3.180504
3.348589
3.300905
3.175735
3.131628
3.278852
3.157854
3.061891
3.049970
##ZVALUE=305
1.125932
1.133680
0.961423
1.312494
1.179576
0.938773
1.243949
1.142621
1.343489
1.088977
1.296997
1.293421
1.224875
1.304746
1.277924
1.329780
1.356602
1.375675
1.389980
1.589656
1.444817
1.521707
1.555681
1.489520
1.546741
1.724958
1.963973
1.899600
2.112985
2.237558
2.527833
2.579689
2.805591
3.473759
10.826588
77.129602
189.493895
454.789996
747.879744
1015.784740
1015.784740
1015.784740
1015.784740
1015.784740
1015.784740
787.766576
577.920675
353.958607
214.858651
95.865726
48.285723
17.796755
12.858510
14.949441
21.360517
34.754872
49.306750
68.156719
84.322691
100.700855
108.539462
106.426477
101.076961
83.631873
69.861412
47.640800
34.385920
21.220446
14.027953
7.795691
6.067753
5.091429
4.453659
4.329681
4.181862
3.898740
3.640652
3.532767
3.478527
3.485680
3.314614
3.450513
3.142953
2.993941
2.883673
2.998710
2.881885
3.032684
3.083944
3.012419
3.003478
2.929568
3.035665
2.979636
3.009439
2.976656
##ZVALUE=310
1.094937
1.178980
1.019835
1.168847
1.249909
1.084805
1.176596
1.096725
1.299977
1.211762
1.113415
1.409650
1.290441
1.216531
1.202822
1.249909
1.360774
1.256466
1.394749
1.328588
1.339912
1.337528
1.468658
1.592636
1.532435
1.680851
1.788735
1.621842
1.757741
2.014637
1.949668
2.065897
2.202988
2.474785
2.741814
3.113747
4.376769
33.753514
106.613636
306.739807
545.253754
959.774852
1015.783548
1015.783548
1015.783548
1015.783548
1015.783548
975.378752
742.886662
455.403924
295.003653
147.005916
76.615810
28.118491
13.944507
10.362864
12.674928
19.270778
28.383732
44.303536
59.066415
77.268481
90.749860
99.492669
100.716949
94.387531
82.312822
65.345764
50.801635
33.121705
22.664666
13.463497
9.135604
5.437732
4.964471
4.037619
3.731847
3.297925
3.198981
3.328919
2.979636
2.851486
2.763867
3.003478
2.688766
2.817512
2.937913
3.183484
3.018975
2.930760
2.956986
3.073812
3.088713
3.151894
2.949834
2.910495
##ZVALUE=315
1.073480
1.031756
0.951886
1.166463
1.078844
1.033545
0.984669
1.055598
1.127720
0.974536
1.139641
1.077652
1.082420
1.148582
1.045465
1.212955
1.230836
1.390576
1.277924
1.254678
1.375675
1.417994
1.298785
1.392961
1.468658
1.448989
1.495481
1.595616
1.598597
1.580715
1.741648
1.688600
1.979470
1.988411
2.226830
2.172589
2.578497
2.791882
3.136992
14.928579
58.583617
206.568837
405.454636
796.898603
1015.784740
1015.784740
1015.784740
1015.784740
1015.784740
1015.784740
857.793689
566.591620
380.712748
198.405981
106.201768
39.453506
17.426610
9.302497
9.708405
11.997819
16.790628
27.249455
38.267970
55.479407
69.099665
86.098909
92.698932
94.822645
89.921951
75.723529
63.339472
44.978857
33.757687
20.335913
13.244748
7.256866
5.240440
4.003644
3.507733
3.085732
2.951622
2.910495
2.745986
2.883673
2.883673
2.956986
2.924800
2.744794
2.863407
2.816916
2.896786
2.877712
2.859831
2.798438
2.935529
2.788901
##ZVALUE=320
1.059771
0.936985
0.924468
1.031756
1.003742
1.092553
1.190901
1.210570
1.145601
1.180768
1.167655
1.114607
1.243949
1.162887
1.045465
1.060963
1.161695
1.090765
1.263618
1.120567
1.248717
1.202822
1.169443
1.277924
1.427531
1.339912
1.455545
1.577735
1.644492
1.413822
1.548529
1.788735
1.755953
2.001524
1.974702
2.152920
2.006888
2.463460
2.343655
2.682805
3.087521
5.582571
27.001500
122.668743
281.934738
639.528632
949.643850
1015.795469
1015.795469
1015.795469
1015.795469
1015.795469
991.000533
688.138008
475.952625
254.418850
143.553615
61.260462
27.829409
10.526776
7.833838
8.408427
10.657907
16.015768
21.993518
36.270618
49.381852
64.860582
76.834559
87.903738
90.026855
84.442496
74.481964
58.607459
44.539571
28.811693
19.126534
11.700988
7.438660
4.362464
3.905892
3.198981
3.039837
3.075600
2.725720
2.796650
2.648830
2.909899
2.686977
2.783537
2.761483
2.808571
2.651811
2.717972
2.672672
2.619624
##ZVALUE=325
1.302958
1.134872
1.123548
1.168847
1.156926
1.185536
1.198649
1.073480
1.155734
1.227856
1.103878
1.122952
1.320839
1.287460
1.379848
1.165867
1.184940
1.376867
1.649857
1.298785
1.303554
1.380444
1.502633
1.412630
1.468658
1.405478
1.391768
1.502633
1.589656
1.504421
1.486540
1.749992
1.801848
1.775622
1.826882
1.933575
1.828671
1.920462
2.189875
2.291799
2.519488
2.857447
2.892613
3.505945
12.289882
80.478787
193.848610
454.101562
750.743747
1015.924811
1015.924811
1015.924811
1015.924811
1015.924811
1011.768579
811.595917
527.423620
346.008539
173.051953
94.171762
37.611723
16.167760
8.197427
7.574558
7.829666
9.560585
14.493465
21.330714
35.057664
47.663450
61.830878
73.340535
82.401633
83.822608
77.483654
69.189668
53.663850
40.965676
26.073456
18.224716
10.450482
7.139444
4.670620
3.738999
3.178716
2.937913
3.051758
2.872944
2.720952
2.836585
2.743602
2.563000
2.652407
2.812743
2.866983
2.746582
##ZVALUE=330
1.048446
0.997782
0.849962
1.002550
0.989437
1.124740
1.080632
0.976920
0.919700
1.086593
1.044869
1.067519
1.063943
1.089573
1.054406
1.062751
1.115799
1.152754
1.098514
1.292825
1.199841
1.354814
1.290441
1.360774
1.435876
1.211762
1.353621
1.169443
1.389980
1.355410
1.338720
1.325607
1.521707
1.543760
1.544952
1.508594
1.798868
1.633763
1.872778
2.015829
1.927614
2.078414
2.199411
2.520680
2.647638
2.998710
5.206466
37.234426
108.642578
327.568054
580.810905
977.828503
1015.788913
1015.788913
1015.788913
1015.788913
1015.788913
870.190859
646.144748
393.400788
244.594812
115.540624
58.052540
21.047592
10.329485
6.862879
6.776452
7.088780
9.162426
14.129877
20.325780
31.690598
42.679906
57.772994
68.696737
75.458884
76.258779
71.545839
63.116550
48.819780
37.031770
24.363995
16.912818
10.678768
7.328987
4.682541
3.482699
2.973676
2.815723
2.655983
2.528429
2.443790
2.603531
2.542734
2.543926
2.613664
##ZVALUE=335
1.071692
1.048446
0.897646
1.030564
1.034737
1.014471
1.030564
1.026988
0.816584
0.927448
0.809431
0.874996
1.004934
0.993609
1.151562
1.152754
1.018643
1.070499
1.058578
1.120567
0.988841
1.151562
1.172423
1.123548
1.138449
1.408458
1.268983
1.164675
1.255870
1.282692
1.342893
1.313686
1.397729
1.419783
1.586676
1.583695
1.493692
1.513958
1.402497
1.668930
1.792908
1.703501
1.667738
1.907945
2.289414
2.123713
2.727509
2.717972
2.961755
18.123984
63.023567
217.472911
424.461961
817.188025
1015.788913
1015.788913
1015.788913
1015.788913
1015.788913
970.765948
751.800537
483.397841
317.351818
160.436630
84.189773
28.337836
12.744665
7.292628
6.395578
6.319880
6.782413
8.840561
12.660623
20.586848
28.617978
42.390823
52.084923
62.981844
69.287419
70.614815
66.850781
56.212544
47.119856
35.838485
26.605725
16.764998
11.672974
6.892681
5.006790
3.516674
3.055930
2.759695
2.554655
2.580881
2.406836
2.308488
##ZVALUE=340
1.087785
0.855923
0.939965
0.943542
1.075864
0.986457
1.046658
1.179576
0.971556
0.847578
1.013875
1.006722
0.839829
0.944734
0.966787
1.023412
1.028776
1.109838
1.066923
1.007915
1.101494
1.067519
1.093745
1.058578
1.079440
1.195669
1.100898
1.253486
1.157522
1.169443
1.283884
1.269579
1.288652
1.229644
1.358986
1.419783
1.361966
1.339912
1.542568
1.383424
1.417994
1.750588
1.692772
1.865625
1.705885
1.914501
2.039671
2.074838
2.349615
2.659559
2.718568
8.030534
34.647584
141.382813
317.583680
688.442588
982.725024
1015.788913
1015.788913
1015.788913
1015.788913
1006.574035
818.713903
558.628440
380.061865
198.721886
107.716918
39.731860
16.762614
7.555485
6.736517
6.015897
6.095767
6.344914
8.196831
12.401938
17.931461
28.179884
37.104487
50.094724
58.504939
65.669417
66.666603
62.084794
55.546761
44.583678
35.240650
23.825765
17.480850
10.629892
7.327795
4.499555
3.505945
3.035665
2.650619
2.488494
##ZVALUE=345
0.961423
0.968575
1.071692
1.009703
0.911951
0.966787
1.145601
1.022816
0.910759
1.080632
1.013875
0.905991
0.903606
1.032948
0.989437
1.129508
1.201630
1.146793
1.262426
1.226664
1.162887
0.981688
1.050830
1.042485
1.010895
1.009703
1.206994
1.065731
1.187921
1.168847
1.060963
1.092553
1.179576
1.259446
1.163483
1.386404
1.357794
1.393557
1.389980
1.421571
1.499653
1.380444
1.584888
1.547933
1.744628
1.682639
1.801848
1.908541
1.880527
2.150536
2.147555
2.344847
2.556443
3.814697
15.334487
85.512996
213.510394
502.730608
795.643926
1015.792489
1015.792489
1015.792489
1015.792489
1015.792489
919.365883
635.605454
454.143882
260.652900
146.702528
57.633519
25.829673
9.807944
6.741881
5.842447
5.596876
5.354881
5.735755
7.286668
10.398626
17.054677
23.978949
34.893751
43.992996
53.762794
58.561563
60.974956
59.123635
51.497817
44.840574
33.977628
25.834441
16.617775
11.508465
7.466674
4.807711
3.618598
##ZVALUE=350
0.883937
0.932813
0.945926
1.029968
0.881553
0.927448
0.991821
0.982881
1.148582
0.976920
1.156926
1.027584
0.900626
0.870824
0.907779
1.089573
1.072884
1.217723
1.163483
1.146793
1.053810
0.986457
1.233816
1.053810
1.191497
1.101494
1.280904
1.050830
1.152754
1.208782
1.241565
1.219511
1.278520
1.223683
1.181960
1.186728
1.358986
1.328588
1.384616
1.461506
1.432896
1.588464
1.559854
1.508594
1.595616
1.452565
1.522899
1.604557
1.675487
1.777411
1.817942
2.015829
2.098680
2.308488
2.601743
2.813935
7.732511
50.770640
132.884979
361.282825
625.182986
997.096896
1015.788913
1015.788913
1015.788913
1015.788913
987.889767
735.160708
537.455678
310.238600
183.057785
78.689456
35.350919
11.255741
6.766915
5.649924
5.178452
4.781485
4.849434
5.398989
6.636977
10.346770
14.172792
21.736622
28.968453
38.857460
46.796799
53.010583
55.255890
54.287910
49.354434
40.522814
32.544732
22.904873
16.531944
10.777712
##ZVALUE=355
0.951886
1.106858
1.043677
1.066923
1.096725
1.203418
0.983477
0.985861
0.986457
1.094937
0.997782
0.968575
1.023412
1.026988
1.008511
1.191497
1.250505
1.077652
1.167655
1.120567
1.042485
1.289845
1.246929
1.226664
1.123548
1.287460
1.375675
1.216531
1.305938
1.177788
1.156926
1.242757
1.364946
1.215935
1.227856
1.269579
1.387596
1.327991
1.471639
1.609921
1.429915
1.485944
1.546741
1.472831
1.545548
1.601577
1.579523
1.607537
1.614690
1.780987
1.771450
1.991987
1.938939
1.922846
2.143979
2.376437
2.403855
2.873540
3.768802
24.720430
76.061487
254.309773
477.896929
834.124684
1015.788913
1015.788913
1015.788913
1015.788913
1015.788913
784.999728
591.522455
361.833572
218.766928
95.942616
47.420859
17.244816
7.994771
5.599856
5.223751
4.738569
4.560947
4.535913
4.907846
6.108880
8.071661
12.724996
18.054843
26.366711
33.407807
42.059422
47.461987
50.030947
49.159527
44.398904
38.753748
30.634999
##ZVALUE=360
0.918508
0.925660
0.954866
0.988841
1.026988
1.059771
1.137853
1.206994
1.184940
1.036525
1.102686
1.040697
1.090765
1.183748
0.999570
1.041889
1.181960
1.047850
1.162887
1.140833
1.169443
1.254678
1.148582
1.007915
1.074672
1.149774
1.062751
1.201630
1.186728
1.297593
1.204610
1.332760
1.270771
1.226664
1.265407
1.280904
1.223683
1.182556
1.337528
1.287460
1.307726
1.354814
1.463890
1.385808
1.526475
1.484752
1.639724
1.662970
1.583695
1.710653
1.797676
1.765490
1.960993
1.823902
1.913905
2.058744
2.058744
2.294779
2.563596
3.203750
3.611445
7.365942
43.815970
117.014647
345.029831
595.844984
951.524973
1015.780568
1015.780568
1015.780568
1015.780568
890.779495
652.316809
469.391942
269.219875
158.404708
67.109466
29.777884
9.569526
5.841851
4.855990
4.608631
4.247427
3.899932
3.943443
4.295707
5.207658
6.646514
10.277629
14.529824
21.426678
27.593970
36.379695
41.231513
44.842958
45.401454
##ZVALUE=365
0.999570
0.978708
1.068711
1.200438
1.127720
0.917912
0.848770
1.141429
0.999570
0.907779
1.047850
1.132488
0.965595
1.024604
1.050830
1.012683
1.093745
1.105666
0.965595
1.138449
1.212955
1.080632
1.099706
1.065731
1.146793
1.323819
1.264811
1.240969
1.117587
1.267791
1.214743
1.250505
1.151562
1.127720
1.286864
1.262426
1.185536
1.285672
1.343489
1.216531
1.313686
1.366735
1.246929
1.220703
1.373887
1.286864
1.282692
1.366735
1.449585
1.394749
1.538992
1.671910
1.551509
1.420975
1.871586
1.808405
1.901984
1.959801
2.159476
2.611876
2.834797
3.108978
3.293753
4.443526
16.801953
83.141923
197.780728
465.692878
743.338466
1015.788913
1015.788913
1015.788913
1015.788913
933.485627
746.547580
507.106781
348.241925
187.436938
100.554824
35.696626
14.537573
5.813837
4.801750
4.412532
4.144907
3.833771
3.745556
3.363490
3.785491
4.192591
5.358458
8.431673
12.024641
18.496513
23.743510
31.415820
##ZVALUE=370
1.043677
0.978708
1.120567
0.969768
0.973940
1.003742
0.936985
1.079440
0.971556
0.952482
0.922680
1.100898
0.925660
1.001954
1.078844
1.018643
1.045465
1.213551
1.156926
1.004934
1.072884
1.071692
1.200438
0.931621
1.050830
1.067519
1.061559
1.045465
0.997782
1.129508
1.161695
1.024604
0.983477
1.268983
1.130700
1.167655
1.115799
1.190901
1.049638
1.144409
1.226664
1.297593
1.347661
1.270771
1.245737
1.269579
1.261830
1.267791
1.277924
1.213551
1.448989
1.275539
1.347661
1.323819
1.285672
1.426935
1.385808
1.419783
1.644492
1.821518
1.900792
1.866817
2.083778
2.295971
2.477765
2.883673
8.027554
45.655966
127.503872
365.764499
611.725450
939.334035
1015.788913
1015.788913
1015.788913
988.290906
817.415714
592.994690
423.832536
233.449936
131.017566
52.110553
22.282600
8.010864
5.055666
4.291534
4.001856
3.519654
3.519654
3.278852
3.156662
3.249645
3.542900
4.797578
6.769896
10.083914
##ZVALUE=375
0.798702
0.944734
0.985861
0.975728
0.852942
0.916719
0.929832
0.943542
1.003742
0.860691
0.916719
1.006722
1.034737
0.978708
0.850558
0.959635
1.056790
0.935793
0.746846
0.952482
0.890493
0.950694
0.913739
1.142621
1.019835
1.026988
0.975728
0.867844
1.017451
0.934601
0.817776
1.016855
1.078844
1.030564
1.005530
1.155734
1.022816
1.015663
1.152754
1.078844
1.159906
0.983477
1.143813
1.111627
1.233816
1.069903
1.281500
1.261830
1.196861
1.033545
1.115799
1.342893
1.257658
1.341701
1.220703
1.155734
1.390576
1.335740
1.377463
1.411438
1.562834
1.522899
1.596808
1.732707
1.885891
1.975894
2.214909
2.707839
3.561974
24.702549
73.195696
226.091743
439.116955
797.225833
1009.199619
1015.788913
1015.788913
1015.788913
910.143852
672.699809
498.201847
292.387009
182.269812
88.718534
44.690967
14.094710
6.389618
4.236698
3.994703
3.643632
3.633499
3.226995
3.046989
2.880692
2.984405
3.361702
##ZVALUE=380
0.917912
0.769496
0.864863
0.827909
0.791550
0.890493
0.936985
0.940561
0.832677
0.852942
0.659823
0.791550
0.838637
0.909567
0.900626
0.930429
0.850558
0.957847
0.954866
0.881553
0.825524
0.952482
0.970960
1.032948
0.862479
1.014471
0.951886
0.949502
0.889897
0.778437
1.038909
0.982881
0.964999
1.003742
1.033545
0.814795
1.095533
0.997782
0.967979
1.121759
1.078844
1.119971
1.319647
1.044869
0.984669
1.162887
1.246929
1.194477
1.055598
1.170635
1.247525
1.276731
1.177788
1.237988
1.252890
1.206994
1.116991
1.257658
1.331568
1.369715
1.364946
1.429915
1.478791
1.595616
1.761913
1.777411
1.752973
1.996756
2.201796
2.457500
2.875924
11.294484
43.690801
164.428949
349.787474
683.908463
927.140713
1015.788913
1015.788913
1015.788913
951.884985
730.880499
576.201677
384.549499
254.728794
123.902559
63.950419
21.702647
9.442568
4.374981
3.906488
3.635883
3.406405
3.120899
3.075600
2.869964
##ZVALUE=385
0.939965
0.832677
0.890493
0.836849
0.972748
0.916719
0.925660
0.968575
0.780821
0.770688
0.836849
0.890493
0.967979
0.998974
0.791550
1.010895
0.942945
0.958443
0.835657
1.023412
0.917912
0.863671
0.983477
0.956655
1.011491
0.931621
0.897646
1.029968
1.034737
0.934601
1.032948
1.069903
1.055598
1.185536
1.022816
0.997782
1.176000
1.112819
0.895858
1.057982
1.181960
1.059771
1.086593
0.872612
1.110435
1.125932
0.940561
1.081824
1.159906
1.203418
1.000762
1.141429
1.199841
1.115799
1.080632
1.159906
1.145601
1.210570
1.090765
1.196861
1.238585
1.200438
1.272559
1.404881
1.468658
1.547933
1.539588
1.690984
1.858473
2.014637
2.216697
2.328753
2.659559
4.866719
22.439957
98.266602
230.251551
511.247516
764.418840
1015.790701
1015.790701
1015.790701
1008.535028
833.930969
681.639910
474.756956
326.163769
172.912478
97.544789
40.014982
16.185641
5.298853
3.941655
3.548861
3.601909
3.190637
##ZVALUE=390
0.821948
0.764728
0.807643
0.911951
0.792742
0.937581
0.920892
0.902414
1.027584
0.774860
0.782609
0.912547
0.849962
0.989437
0.823736
1.010895
0.930429
0.923872
0.803471
0.853539
0.764728
0.782609
0.854731
0.898838
0.900626
0.853539
0.767708
1.033545
0.936985
0.892878
1.077652
0.991821
1.030564
0.925660
1.139641
0.861883
0.729561
0.920892
0.910759
1.037717
0.969768
0.938773
1.082420
1.045465
0.999570
1.113415
1.048446
1.053810
0.987649
0.926852
1.123548
1.165867
1.038909
1.045465
1.007915
1.134872
1.230836
1.217723
1.192689
1.294613
1.245737
1.174808
1.248717
1.373887
1.226664
1.461506
1.618862
1.792908
1.764894
1.749992
1.936555
1.823902
1.894832
2.192855
2.426505
2.852678
10.721684
56.594610
150.715709
408.899784
661.293864
975.162983
1015.781760
1015.781760
1015.781760
946.051478
793.656707
585.786700
429.940820
254.843831
146.712661
59.122443
26.267767
7.530451
4.395843
3.671646
##ZVALUE=395
0.931621
0.876784
0.870824
0.767708
0.743866
0.966787
0.734925
0.828505
0.778437
0.835657
0.813603
0.790954
0.948906
0.919700
0.957847
0.894666
0.844598
0.738502
0.762939
0.953674
0.882745
1.063943
0.760555
0.838637
0.896454
0.955462
0.920892
0.865459
0.934601
0.856519
0.962615
1.129508
1.003742
1.026988
1.013875
0.962615
0.937581
0.971556
0.922680
0.987649
0.968575
1.114607
0.887513
1.087785
1.073480
1.074672
1.114607
1.150966
1.176596
0.983477
1.018643
1.169443
1.116991
1.213551
1.087785
1.188517
1.245737
1.163483
1.197457
1.371503
1.336932
1.166463
1.264811
1.289845
1.374483
1.391768
1.458526
1.603961
1.583695
1.765490
1.908541
1.806617
1.937747
1.923442
1.762509
1.951456
2.217889
2.308488
4.882812
35.362840
103.463531
310.156941
527.593493
820.842981
1006.659865
1015.778780
1015.778780
1015.778780
907.538533
699.023604
525.952578
315.023661
191.234946
82.935691
38.926601
12.709498
##ZVALUE=400
0.948906
0.867844
0.942945
0.942945
0.717640
0.770688
0.794530
0.873804
0.932813
1.013875
0.787973
0.828505
0.791550
0.849962
0.847578
0.847578
0.967979
0.989437
0.747442
0.920892
0.904799
0.934601
0.883937
0.875592
0.833869
0.790954
1.027584
1.137853
0.927448
0.976920
0.991821
0.862479
0.864863
1.132488
1.088977
1.059771
0.960827
0.988841
1.078844
0.978708
0.804663
0.830889
1.076460
0.952482
1.094937
0.963807
1.036525
1.119971
0.915527
1.145601
1.189709
1.075864
1.034737
0.950694
1.177788
1.083612
1.146793
1.105666
1.127720
1.327991
1.222491
1.229644
1.346469
1.435876
1.425743
1.416802
1.523495
1.544952
1.629591
1.804829
1.693964
1.945496
1.802444
1.804829
1.747608
1.789927
1.702905
1.837611
1.885891
2.169609
2.957582
19.011497
61.601996
196.712613
384.769440
705.404878
928.369761
1015.788913
1015.788913
1015.788913
949.331522
738.473535
583.756566
389.615893
254.063606
125.450492
##END
