##TITLE=FAAI0801
##FORMAT=SPECTACLE-ASCII V-1.2
##DATA TYPE=ULTRAVIOLET SPECTRUM
##SECOND TYPE=ULTRAVIOLET SPECTRUM
##DATE=11/28/17
##TIME=13:25:20
##SPECTROMETER/DATA SYSTEM=SPECTACLE
##XUNITS=NM EM
##YUNITS=ENERGY
##YFACTOR=1
##FIRSTX=220
##LASTX=410
##NPOINTS=96
##3DDATA=Equidistant
##ZUNITS=NM EX
##FIRSTZ=210
##LASTZ=400
##ZPOINTS=39
##XYDATA=(Y..Y)
##ZVALUE=210
6.323457
6.380677
5.880594
5.897880
5.984902
6.100535
6.252527
5.230904
5.101562
4.616976
3.565550
3.774762
3.109574
2.899766
3.365874
3.665686
3.474951
3.492832
3.776550
3.925562
3.933907
3.944635
5.032420
4.619956
4.873872
5.501509
5.874634
6.970763
7.624626
7.875562
9.288788
8.542538
9.929538
10.411739
11.468530
11.242628
12.548566
12.373924
12.085438
13.348460
11.674762
12.332797
14.109612
12.076497
12.806654
12.979507
12.690425
13.126731
14.155507
13.556480
12.987852
13.392568
11.718869
13.512969
14.151931
13.766885
13.112426
13.271570
13.886690
14.071465
14.033914
12.199879
12.796521
14.172792
14.988780
14.611483
14.702678
15.082955
15.940666
18.044710
19.907951
21.879673
22.107959
26.150942
27.896762
28.003454
26.928782
27.964711
27.762651
24.821758
22.698641
21.178722
18.297434
17.759800
14.582872
13.003945
11.868477
10.909438
10.340810
12.273788
10.639429
10.193586
10.754466
11.147857
11.578798
12.582541
##ZVALUE=215
16.388893
17.513633
16.007423
13.915896
12.862682
9.383559
9.160638
9.373426
10.104775
9.993911
8.874536
7.922649
6.199479
5.303621
4.440546
3.524423
3.731847
4.024506
4.142523
4.385710
4.647970
4.552603
5.193949
5.671978
5.327463
6.780624
6.773472
7.995963
9.112954
8.989573
9.537935
12.138486
13.579726
14.650822
14.128685
16.908646
16.418695
17.233491
17.418861
16.776919
17.774701
17.557740
18.011928
18.366575
17.127991
17.721653
18.219948
17.460585
19.557476
16.900897
16.917586
16.366839
17.221570
15.010834
15.779734
14.811754
15.378594
17.524958
16.815662
15.543699
15.119910
15.968680
15.383959
15.531778
16.288757
16.165972
17.687678
16.685724
16.793609
19.356608
20.317435
23.670793
24.490952
26.524663
28.319955
31.042695
29.248595
29.948950
28.276443
27.015805
26.135445
22.731423
19.991994
18.712878
17.493963
15.711784
13.572574
12.731552
12.345910
11.520982
10.939837
11.419654
11.661649
10.469556
10.635853
11.898875
##ZVALUE=220
48.079491
47.145486
47.935843
51.500797
45.317411
39.302707
30.727983
22.359490
18.210411
17.036796
17.298460
19.172430
17.154813
14.909506
14.108419
9.897947
8.022785
6.401539
5.098581
5.085468
5.750656
5.524755
5.516410
5.824566
6.486773
7.709861
7.963777
8.316636
11.300445
11.943579
14.936924
17.061830
20.385981
23.731589
24.397969
27.659535
27.296543
29.885769
31.275749
32.356977
32.490492
32.596588
31.105876
31.645894
30.217767
29.065609
30.786991
29.346943
28.563738
27.730465
26.480556
26.151538
24.767518
22.766590
23.696423
22.778511
23.411512
23.166537
22.116899
22.843480
21.563768
21.288991
21.431446
20.759702
20.507574
19.958615
20.569563
23.354888
23.191571
23.652911
25.525689
28.061867
30.019879
32.998919
32.948852
33.497810
35.265684
36.027431
34.070611
33.846498
30.179620
27.839541
28.525591
24.285913
23.239851
19.628406
17.461777
16.851425
15.842915
15.085936
15.171766
14.067888
12.450814
12.976527
13.444424
13.699532
##ZVALUE=225
70.244670
74.135661
95.686913
122.943521
127.361417
127.325654
117.027760
92.951655
70.594549
51.697493
34.490824
30.475855
31.077862
30.409694
28.613806
28.561950
23.819804
19.081831
16.555786
10.582805
8.335710
6.356835
6.381869
6.591678
7.103682
7.775426
8.823872
10.781884
12.985468
14.888644
18.877983
24.853945
25.863647
33.708811
37.092566
41.942596
46.009421
49.810410
53.075552
51.477551
56.562424
54.228902
55.068731
52.647591
54.136515
49.333572
51.716566
47.299862
48.840642
45.743585
44.571757
42.415857
41.127801
39.237738
39.294958
38.587451
39.619803
35.246611
33.792853
33.697486
36.168694
32.562613
32.612681
30.185580
30.859709
31.048656
31.404495
31.788945
33.254623
35.416484
34.343600
36.831498
38.623810
38.733482
40.889978
40.630698
43.486953
41.145682
40.476918
35.454631
35.210848
31.405687
30.462742
26.561618
26.040673
24.979711
23.543835
21.626949
21.350980
19.209981
19.400716
18.591881
18.569827
18.504858
18.046498
17.317533
##ZVALUE=230
48.703551
54.118633
88.978410
154.044628
208.782554
269.078612
285.895467
288.136005
255.805850
221.038461
148.979425
107.134581
67.714453
55.373907
48.926473
52.244663
54.658651
50.944686
48.248768
36.279559
29.459000
19.302964
15.597939
9.871721
8.381605
7.335544
9.134412
11.281967
12.472868
17.240644
21.747947
28.790832
37.716627
45.357943
51.551461
59.154630
65.844655
69.712996
79.536438
78.277588
80.736876
82.480907
82.101822
80.336928
79.890490
79.913735
76.477528
76.262951
71.492791
72.850585
67.981482
67.570806
65.923929
62.574744
61.175823
60.293674
58.778524
55.360794
55.310726
52.885413
54.026842
53.575635
49.858689
50.965548
51.846504
50.597787
48.658848
48.419833
50.517917
47.237873
48.943758
51.385760
53.554773
52.520633
53.059459
53.823590
51.934719
51.307678
47.796965
49.248934
46.426654
40.946603
40.147901
37.771463
35.284758
33.120513
30.497909
30.934811
28.432608
29.546618
28.131604
26.422739
24.409890
27.429461
23.510456
23.499727
##ZVALUE=235
15.558600
16.965866
37.946701
91.027617
152.809620
255.711675
345.044732
448.910594
503.218770
521.519780
451.852679
382.840633
254.189968
179.711580
111.198425
86.002946
71.462989
76.738596
77.086687
81.805587
71.521997
62.250495
52.210689
38.808584
25.533438
16.529560
13.577938
12.598634
14.353991
19.354820
23.532510
31.620860
40.770769
48.809648
56.516528
67.452788
74.134469
82.862973
86.179972
91.332793
93.185902
96.364617
95.976591
98.216534
101.704001
98.494887
95.290542
96.729994
91.538429
91.237426
89.356899
87.176561
90.282559
85.084438
87.977648
83.892941
83.118677
79.468489
80.514550
77.330470
79.614520
75.639486
74.147582
74.802637
74.235797
75.441599
70.559978
72.366595
70.028901
72.492957
73.187947
70.070624
70.288777
69.113970
68.965554
68.303943
68.287849
64.699650
62.804818
59.991479
57.991743
54.027438
51.668882
49.884915
47.312975
46.090484
43.229461
40.868521
39.286613
37.938952
36.032796
36.864877
34.455657
32.277703
32.344460
30.686855
##ZVALUE=240
2.939701
2.662539
7.310510
17.604828
39.873719
102.276802
186.025500
331.513882
466.467738
600.857735
682.140589
698.658824
642.697811
509.014726
397.826433
251.578689
174.990892
112.477541
94.307661
91.273785
103.746653
108.288527
106.468797
99.966526
78.291893
66.722631
47.567487
33.924580
24.128556
22.422671
22.146702
27.730465
32.773614
41.361451
46.445727
53.989887
58.250427
65.765977
68.623424
77.297688
81.346631
80.465674
86.820722
87.580681
89.790821
95.211864
95.310807
92.565417
96.814632
97.585917
96.395612
101.907849
96.844435
99.787712
100.089908
102.098584
99.171996
99.573731
99.308491
99.139810
100.424886
96.840858
98.331571
97.058415
98.655820
97.225904
98.050833
97.582936
94.009638
90.783834
90.144873
91.551542
92.897415
90.716481
90.203881
88.429451
86.152554
79.986453
77.027678
73.527694
72.005987
67.423582
65.796971
60.279965
58.642626
53.860545
54.249763
51.615834
49.989820
47.753453
46.064854
41.717887
43.080449
40.960908
39.584637
38.976669
##ZVALUE=245
1.905560
1.871586
1.647472
2.373457
4.078746
11.767745
40.791631
84.484816
202.692747
323.335528
513.382554
668.467879
773.899555
825.232863
808.772445
674.195886
546.214581
375.040770
259.971619
148.325562
105.011463
94.542503
103.171468
114.992857
120.292902
117.140412
104.520917
91.513991
70.857406
53.978562
40.863752
31.030774
26.956797
26.229620
27.337670
31.355619
33.988953
38.984418
40.609837
45.749545
46.809912
54.256916
58.990717
62.241554
67.096949
71.045756
73.299408
78.276992
81.233978
85.558891
86.721778
95.077753
99.770427
103.384852
104.121566
108.688474
109.279752
108.743906
107.234716
114.082694
116.238594
114.029646
112.032890
113.782883
112.003684
112.074614
109.569430
111.437440
103.555918
103.161931
101.675987
102.190971
103.947520
100.089908
99.680424
92.653632
88.964701
85.898638
84.171891
77.384710
74.049830
70.697665
67.024827
62.989593
63.884854
57.861805
56.125522
55.415630
51.227808
50.586462
46.049953
44.985414
44.520497
41.961670
39.240718
38.511753
##ZVALUE=250
2.457500
2.248883
2.536774
2.462864
1.991987
2.902746
3.205538
8.433461
32.264590
72.430968
186.200738
315.704942
471.486449
690.300465
840.051770
966.897011
969.519615
878.801942
741.806626
519.222617
351.572633
228.488445
127.005577
94.238520
96.476674
109.891891
125.613809
131.452680
128.159523
116.932988
102.480650
82.199574
64.000487
44.682622
34.446716
28.788447
27.115941
26.507974
28.429627
33.444762
34.152865
38.607717
43.234825
51.009655
55.575967
59.944987
65.163970
74.487925
76.177716
83.173513
86.574554
94.420910
97.844005
102.692842
106.253624
112.676620
115.676522
119.162798
122.352839
124.588609
126.611590
126.678944
124.518871
125.369430
126.245618
124.097466
122.494698
119.720697
118.932724
118.262768
112.666488
111.374855
109.891891
105.021000
107.075572
101.911426
96.092820
90.368986
89.571476
85.731745
78.387856
76.786876
75.126886
69.309473
65.828562
61.840415
59.515834
56.111813
53.781867
51.611662
49.581528
47.825575
44.496655
41.652918
39.517879
40.673614
##ZVALUE=255
1.707673
1.604557
1.636744
2.170801
1.930594
2.132654
2.100468
2.509952
2.938509
5.256534
23.069978
59.063435
122.628808
277.580619
443.661809
711.770654
904.735923
1015.536785
1015.536785
1015.536785
951.260924
769.984722
492.111444
306.592584
159.740448
106.915832
87.161660
95.760822
116.416812
132.028461
137.177706
136.163831
128.912926
108.163953
89.461803
66.845417
52.606463
39.309859
36.035776
32.546520
35.695434
38.774610
39.356947
45.586824
51.837564
57.037473
62.117577
64.822435
71.632862
80.054998
85.992813
91.603994
94.030499
100.175738
105.566978
109.410882
113.022923
119.844675
120.634437
127.372742
127.884746
127.441883
128.111839
128.494501
128.294826
126.215816
126.479864
126.495957
120.512843
118.862987
118.917823
117.851496
112.361908
108.822584
106.277466
104.858875
98.275542
92.453957
89.727640
84.456801
81.382990
77.900887
74.754953
69.922805
67.557693
65.236688
60.213804
57.298541
53.719878
51.550865
49.829483
44.789910
45.374632
42.814612
39.567947
38.740635
##ZVALUE=260
1.709461
1.870990
1.793504
1.887679
1.950860
2.042651
1.943707
2.082586
2.230406
2.679825
2.829432
3.208518
12.548566
34.873486
97.806454
198.916793
414.456725
657.059550
871.520638
1015.788913
1015.788913
1015.788913
1015.788913
959.489942
706.850886
416.842699
269.168019
139.637589
93.807578
84.033608
99.489689
124.255419
142.641664
153.873563
150.765777
141.542554
123.714805
102.830529
83.138943
63.821673
53.079724
46.719909
44.587851
46.990514
49.034953
52.508712
56.012869
60.637593
63.912868
69.496632
72.889924
77.125430
79.854727
84.986687
88.552833
93.273520
98.151565
100.915432
101.060867
105.316639
105.999708
111.370683
111.832619
114.059448
115.487576
113.454461
111.795664
112.167001
112.268925
108.754635
106.109977
103.815794
101.672411
99.975467
96.212626
92.790723
88.853836
86.616874
84.253550
79.730749
75.768828
71.548820
68.949461
65.033436
63.159466
59.332848
56.959987
53.805709
50.971508
45.622587
46.124458
44.600964
41.675568
40.009618
37.890673
36.686659
##ZVALUE=265
2.145767
1.864433
1.782775
1.955628
1.772642
1.898408
1.856685
2.045631
2.359748
2.549887
2.560616
2.162457
2.807975
2.866983
5.549788
27.047992
66.826940
174.547434
330.129862
647.300482
930.777788
1015.879512
1015.879512
1015.879512
1015.879512
1015.879512
913.562775
653.407574
367.909670
218.749642
137.684941
82.324743
85.487962
114.903450
137.171745
156.970620
161.746740
164.959431
150.780678
132.198930
114.100575
87.271929
74.773431
61.208606
55.290461
53.595901
52.735806
55.765510
56.480765
59.901476
61.914921
64.093471
66.205859
68.997741
71.405768
74.290633
76.322556
77.222586
79.054832
80.294609
83.590746
84.287524
87.114573
87.512732
85.636973
88.792443
86.382627
87.681413
85.492730
86.679459
83.070993
84.200501
80.919862
79.516768
77.549815
74.459910
71.607828
68.862438
66.173673
62.847733
58.872700
56.671500
54.623485
51.585436
50.068498
48.849583
46.603680
44.480562
42.418838
39.471984
38.763881
36.886930
35.025477
33.057928
31.912923
30.329823
##ZVALUE=270
1.585484
1.791716
1.675487
2.002716
1.789927
2.032518
1.622438
1.882911
1.814961
2.009869
2.097487
2.134442
2.203584
2.195835
2.524853
2.747774
3.695488
11.138916
47.072768
115.839839
244.128704
537.651777
831.332803
1015.788913
1015.788913
1015.788913
1015.788913
1015.788913
1015.788913
803.651810
540.637970
278.990865
160.307884
88.925958
76.062679
93.947649
118.447542
148.092508
163.464546
172.199607
174.335837
158.803463
143.286586
117.392540
99.944472
78.659654
67.792535
57.704449
54.607987
53.785443
53.987503
54.507852
56.237578
56.729913
57.880878
59.787631
59.884787
60.348511
64.212680
62.924623
63.113570
64.201951
63.937902
64.852834
63.387752
63.685775
63.271523
64.014792
63.632727
62.473416
61.061978
59.883595
60.025454
58.669448
56.244731
56.528449
55.151582
52.459836
51.335692
47.853589
46.151876
43.863654
42.453408
40.071607
39.074421
36.421418
35.920739
34.496784
33.256412
30.995607
30.611753
29.106736
27.910471
27.415752
26.905537
25.335550
##ZVALUE=275
1.455545
1.743436
1.573563
1.647472
1.570582
1.445413
1.589656
1.752973
1.591444
1.689792
1.688600
1.864433
1.935959
2.306700
2.164841
2.187490
2.470613
2.510548
3.041625
6.928444
26.607513
75.252652
216.323733
414.409637
790.274739
1015.788913
1015.788913
1015.788913
1015.788913
1015.788913
1015.788913
1015.788913
765.371919
407.667756
235.284567
111.526847
76.224804
75.360537
95.554590
125.402808
146.565437
166.676641
173.327923
171.694756
160.063505
139.002800
120.295882
98.456740
83.029866
65.184832
58.464408
54.360628
51.074624
52.683949
51.186681
52.432418
51.487684
52.051544
53.091645
52.897930
53.117871
53.666830
53.179860
54.660439
53.590536
53.171515
51.869750
52.136779
51.189661
51.126480
51.424503
50.931573
49.657822
48.664808
47.899485
45.101643
46.246648
44.881701
41.456819
41.248798
39.576888
37.324429
35.862923
34.167767
34.198761
33.030510
31.934977
28.500557
28.822422
27.568936
27.311444
25.426745
25.011897
24.029613
23.228526
22.538900
##ZVALUE=280
1.441836
1.357794
1.505613
1.665950
1.152754
1.517534
1.638532
1.651645
1.610518
1.754761
1.763701
1.727939
1.660585
1.879930
1.846552
2.013445
2.323985
2.132654
2.373457
2.432466
2.722740
3.433824
15.904903
54.359436
175.411701
330.433846
632.780790
932.926536
1015.788913
1015.788913
1015.788913
1015.788913
1015.788913
1015.788913
891.076922
506.293774
302.720666
140.566826
81.801414
60.831904
71.569681
96.299648
119.094849
146.202445
161.347985
171.146989
169.591904
153.947473
140.765905
115.244985
93.900561
76.741576
64.958930
53.657889
50.259829
47.670603
48.547983
48.891902
47.225952
48.916936
49.309731
49.276948
49.984455
49.842596
50.515532
49.900413
48.228502
48.452616
49.808621
48.706532
49.544573
47.066808
47.307611
47.776699
45.997500
45.846701
43.529868
42.719841
40.342808
38.227439
38.980842
36.975741
35.231709
35.255551
33.914447
31.449795
31.064749
29.993653
27.996898
28.207898
26.650429
25.033951
24.164915
23.773909
23.517609
22.366643
##ZVALUE=285
1.327991
1.253486
1.446605
1.449585
1.540780
1.426935
1.386404
1.533628
1.589656
1.496673
1.510978
1.555681
1.790524
1.707673
1.828671
1.951456
1.654625
1.998544
2.062917
2.169609
2.198815
2.351999
2.821684
2.898574
8.062720
28.393865
99.995732
208.188891
457.853675
731.636882
1001.682878
1015.788913
1015.788913
1015.788913
1015.788913
1015.788913
1015.788913
684.677958
427.427888
203.616619
107.749701
53.290725
49.500465
65.781474
84.200501
113.180876
132.280588
149.053931
158.136487
157.437921
149.613619
130.851865
112.916827
88.630915
73.848963
57.231784
50.566792
46.222806
44.912696
45.068860
45.420527
46.688914
46.467781
46.132803
47.187805
47.939420
47.498941
47.770739
47.283769
48.552752
48.098564
47.483444
46.845675
46.515465
46.371818
44.874549
43.626428
42.770505
41.523576
40.048957
38.651824
38.320422
35.907626
34.779906
34.058690
32.410622
31.878948
30.685663
29.513836
28.620958
27.564764
26.191473
24.595857
24.426579
24.575591
22.958517
##ZVALUE=290
1.380444
1.416802
1.223683
1.419783
1.397729
1.311898
1.427531
1.421571
1.339912
1.559854
1.416802
1.340508
1.550913
1.532435
1.638532
1.713634
1.783967
1.730919
1.821518
1.833439
1.938939
2.087951
2.289414
2.367496
2.799630
2.714992
4.185438
11.692643
57.755709
137.812495
274.075866
578.998923
885.831714
1015.795469
1015.795469
1015.795469
1015.795469
1015.795469
1015.795469
860.880017
569.252968
282.428861
149.521828
59.698820
38.504601
42.722821
55.606961
77.932477
96.631646
125.242472
138.633847
150.404572
150.846839
139.816999
124.480724
100.460649
84.480643
66.468716
56.447983
47.113895
43.493509
42.010546
41.582584
42.907000
43.112636
43.598413
44.600964
44.755936
44.760704
44.649839
43.967962
45.488477
44.462681
44.697523
44.119954
42.705536
42.399764
40.259957
39.819479
39.532781
38.513541
37.091970
37.256479
35.052896
34.141541
33.555627
32.544732
31.175613
30.654669
29.161572
28.511882
27.225614
26.433468
24.880767
24.620891
23.850799
##ZVALUE=295
1.172423
1.324415
1.213551
1.176596
1.281500
1.358986
1.379848
1.174808
1.257658
1.432896
1.348853
1.404881
1.451969
1.466870
1.725554
1.541972
1.647472
1.574755
1.618862
1.844764
1.743436
1.778603
1.950860
2.032518
2.249479
2.499819
2.361536
2.711415
3.047585
5.611777
30.649900
87.582469
201.004744
476.729870
760.845542
1015.790701
1015.790701
1015.790701
1015.790701
1015.790701
1015.790701
1003.193855
729.788542
376.188755
207.802653
80.647469
40.280819
28.793812
34.994483
51.772594
67.091584
92.225671
109.659433
130.499601
139.793754
139.866471
132.162571
115.752816
100.413561
79.358816
64.076781
52.036643
45.346618
40.575862
39.447546
38.052797
39.050579
40.017962
40.113926
40.700436
41.005611
41.166544
40.641427
41.345954
40.701628
40.647984
39.973855
39.092898
38.562417
37.524700
36.658645
36.432743
35.150647
34.246445
33.591986
32.758713
32.457709
31.009912
29.775500
28.903484
28.014779
26.767850
26.145577
25.704503
25.308728
23.940802
##ZVALUE=300
1.298785
1.081824
1.148582
1.227856
1.268983
1.449585
1.216531
1.269579
1.449585
1.241565
1.477599
1.370907
1.461506
1.282692
1.345873
1.401901
1.361966
1.558661
1.505613
1.686811
1.653433
1.788735
1.747608
1.863837
1.957417
1.981854
2.287626
2.433658
2.385974
2.642870
2.915859
3.298521
9.750724
56.173801
139.155984
352.398753
592.746735
978.440642
1015.788913
1015.788913
1015.788913
1015.788913
1015.788913
1015.788913
908.117890
510.888696
300.327539
130.982995
62.063932
25.637746
23.116469
31.090975
41.995645
62.763691
80.155730
104.592443
120.665431
132.254958
132.416487
125.691891
113.603473
94.530582
78.978539
61.900616
51.419735
43.268800
39.636493
36.675930
36.797523
36.825538
36.997795
38.154721
37.373900
38.293600
37.454963
38.119555
36.558509
37.006736
36.917925
35.767555
35.556555
35.008788
34.148693
34.187436
33.367872
32.477975
32.206774
31.063557
30.553937
29.026866
28.751493
27.397871
26.711822
25.728941
24.808645
24.537444
##ZVALUE=305
1.126528
1.106858
1.061559
1.196861
1.152754
1.232624
1.348853
1.155734
1.138449
1.252890
1.118779
1.349449
1.212955
1.161695
1.185536
1.437664
1.249909
1.483560
1.598597
1.379848
1.691580
1.699924
1.653433
1.691580
1.711845
1.718998
1.920462
1.719594
2.086759
2.082586
2.192855
2.515912
2.775788
3.183484
5.920529
35.468936
97.903609
268.650651
485.686064
880.230665
1015.788913
1015.788913
1015.788913
1015.788913
1015.788913
1015.788913
1015.788913
693.747997
428.951979
190.417767
94.173551
32.914877
20.172596
22.267699
29.478669
44.073462
58.894753
80.991983
97.979903
116.834641
124.810934
126.685500
121.268630
108.283758
93.716979
73.725581
61.369538
49.361587
42.851567
37.948489
36.073923
35.617948
36.666989
35.383701
35.969615
35.823584
36.212802
35.963655
35.491586
35.679936
34.976602
34.290552
33.785701
33.242702
33.395886
32.434464
31.069517
30.711889
30.308962
29.398799
28.814673
27.889609
27.077794
26.631951
25.509000
25.022626
##ZVALUE=310
1.138449
1.102686
1.207590
1.145601
1.117587
1.167655
1.191497
1.193881
1.256466
1.184940
1.135468
1.406670
1.080632
1.249909
1.343489
1.314878
1.351833
1.231432
1.378655
1.393557
1.422763
1.497865
1.476407
1.648664
1.551509
1.552701
1.640916
1.861453
1.772642
1.828671
2.004504
2.259612
2.365708
2.535582
2.697706
2.970695
3.465414
16.108751
53.777695
175.232887
342.159867
691.694021
994.527936
1015.789509
1015.789509
1015.789509
1015.789509
1015.789509
1015.789509
912.158489
609.525442
300.817490
158.765912
56.225657
25.189519
17.721653
21.498799
29.127598
38.745999
57.003498
71.429610
93.625784
107.989907
118.529797
120.665431
116.246939
107.405782
89.960694
75.889826
59.498549
48.926473
42.004585
37.397742
34.453869
33.012629
33.634901
33.301711
33.744574
33.014417
33.003688
33.424497
33.348799
32.794476
32.369494
32.288432
32.027960
31.273961
30.857921
30.663610
28.338432
28.646588
28.342605
27.677417
27.018785
26.470423
24.809837
##ZVALUE=315
1.042485
1.118779
1.217723
1.114607
1.243949
1.156926
1.092553
1.156926
1.181960
1.258850
1.263618
1.347661
1.267791
1.347661
1.324415
1.166463
1.430511
1.394749
1.267791
1.148582
1.486540
1.260638
1.533628
1.328588
1.420975
1.533628
1.609921
1.509786
1.600981
1.632571
1.897812
1.856685
2.019405
2.206564
2.174973
2.453923
2.554655
2.728701
2.977848
7.393956
28.951764
115.526915
251.992941
561.016798
880.139470
1015.807986
1015.807986
1015.807986
1015.807986
1015.807986
1015.807986
1015.807390
782.669783
413.068533
221.473575
81.190467
34.346581
17.656684
17.930865
21.697879
27.029514
38.851500
51.244497
68.414807
83.879828
101.915598
110.460520
114.232898
110.793710
98.675489
85.695982
68.889856
56.641698
44.980645
38.493872
33.264756
31.374693
30.880570
30.196905
30.427575
30.557513
30.912757
31.200647
30.765533
30.699968
30.085444
29.542446
29.620528
29.689670
28.009415
28.108954
27.608871
26.588440
25.797486
25.982857
24.946928
##ZVALUE=320
1.345873
1.269579
1.180768
1.159906
1.121759
1.115799
1.078844
1.235604
1.119971
1.174808
1.154542
1.200438
1.326799
1.094937
1.169443
1.129508
1.277924
1.382828
1.324415
1.177788
1.340508
1.456738
1.350641
1.430511
1.473427
1.425743
1.546741
1.468658
1.700521
1.754761
1.754761
1.812577
1.745820
2.007484
1.877546
2.170801
2.383590
2.329946
2.608895
2.708435
3.069639
3.769994
17.930865
58.255792
190.822482
372.516513
725.131035
1009.073853
1015.838981
1015.838981
1015.838981
1015.838981
1015.838981
1015.838981
932.732821
604.996681
276.742578
143.575668
53.268671
23.379922
15.214682
16.245842
19.243956
23.989677
34.682751
45.031905
62.286854
75.831413
94.191432
103.105903
105.695724
102.628469
92.013478
80.688000
63.756704
53.448677
41.744709
34.823418
30.241609
27.994514
26.759505
27.616620
27.536750
27.460456
27.572513
27.428865
26.958585
26.543736
26.470423
26.880503
25.621653
25.200844
25.475621
24.236441
24.370551
24.087429
##ZVALUE=325
1.112819
1.210570
1.131892
1.144409
1.051426
0.990629
1.057982
1.075864
0.971556
1.100898
0.995994
1.040697
0.980496
1.176596
1.104474
1.113415
1.096725
1.024604
1.108646
1.124740
1.181960
1.211762
1.301765
1.322627
1.200438
1.246929
1.389980
1.270771
1.433492
1.522899
1.530647
1.639724
1.551509
1.713634
1.748800
1.874566
1.756549
2.034903
1.974702
2.179742
2.499819
2.552867
2.729893
3.301501
7.607937
44.992566
117.630959
296.871662
517.221689
911.516547
1015.788913
1015.788913
1015.788913
1015.788913
1015.788913
1015.788913
1008.774638
640.857816
392.609835
173.587799
80.954432
24.867654
14.713407
13.626814
14.846921
17.875433
22.487640
32.463670
42.651892
59.283972
71.564913
87.478757
94.791651
97.895861
94.100833
83.151460
70.968866
57.336688
47.364831
36.691427
31.099916
27.114749
25.535822
24.376512
24.268627
24.394989
24.418831
24.262667
24.650693
23.941994
23.552775
22.902489
22.457838
22.676587
22.332668
22.205710
##ZVALUE=330
1.002550
1.084805
1.036525
0.968575
0.970960
1.005530
0.831485
1.054406
0.991821
0.962615
1.080632
1.061559
1.048446
1.060963
1.143813
1.143813
0.937581
1.108646
1.089573
1.204610
0.999570
1.162887
1.164675
1.128912
1.274943
1.274943
1.163483
1.322627
1.230836
1.303554
1.368523
1.261830
1.378655
1.387596
1.327991
1.644492
1.715422
1.826882
1.733899
1.984835
1.941919
2.022982
2.323985
2.516508
2.632737
3.048778
4.330873
22.333860
67.521930
201.925635
376.103520
731.897950
1006.591916
1015.740037
1015.740037
1015.740037
1015.740037
1015.740037
1015.740037
803.998709
511.204004
240.143538
118.680000
41.462779
18.368959
12.312531
12.549758
13.655424
16.191602
22.460818
29.097795
40.509701
52.456856
68.865418
80.528855
88.790655
90.968609
86.482763
78.608990
65.174699
54.732561
41.409731
34.728646
29.134750
25.889874
23.215413
22.557974
22.082925
21.611452
21.574497
21.336675
21.353960
20.789504
20.550489
20.035505
20.327568
##ZVALUE=335
0.934601
0.881553
1.021624
0.948906
0.966787
0.948906
1.083612
1.004934
0.958443
0.816584
0.905991
1.085997
1.149774
1.080632
1.166463
1.014471
1.001954
1.019835
0.790954
1.108646
1.109838
1.301765
1.093745
1.237988
1.259446
1.322627
1.355410
1.221895
1.375675
1.196861
1.366735
1.290441
1.391768
1.482964
1.438856
1.493692
1.655817
1.530647
1.688600
1.865625
1.844764
1.695752
1.881719
2.180934
2.144575
2.218485
2.618432
2.870560
3.061891
11.047721
38.251877
131.561756
261.675715
558.581948
876.868963
1015.788913
1015.788913
1015.788913
1015.788913
1015.788913
1015.788913
952.790976
639.906526
336.645842
177.260637
60.465932
24.428964
12.323856
11.998415
12.233853
13.566613
16.636848
20.393729
29.189587
37.106872
52.574873
62.771440
75.131655
82.296729
83.752871
80.367923
71.098804
62.445998
50.038695
41.950941
32.261610
27.858615
23.325682
21.598935
20.161867
19.542575
18.856525
18.877983
18.577576
18.672943
18.430948
##ZVALUE=340
1.008511
0.947714
0.895858
0.896454
0.998974
1.126528
0.946522
1.092553
0.998974
0.993609
1.005530
1.082420
0.977516
0.958443
1.107454
1.242757
1.078844
0.957847
0.989437
1.057982
1.084805
0.962615
1.205802
1.238585
1.102686
1.268983
1.084805
1.229644
1.268983
1.197457
1.119971
1.272559
1.387596
1.344681
1.453757
1.540780
1.449585
1.568794
1.516938
1.336932
1.667738
1.641512
1.648664
1.946688
1.846552
1.971722
2.003908
2.351999
2.364516
2.783537
2.757907
5.493760
20.445585
88.388920
198.820829
456.974506
738.255978
1015.825868
1015.825868
1015.825868
1015.825868
1015.825868
1015.825868
1015.825868
814.915895
422.523618
232.568979
92.142820
36.479831
13.446808
11.573434
11.420846
12.014508
13.267994
15.210509
20.233989
26.269555
37.331581
46.304464
61.088800
69.934726
77.273846
77.963471
74.967742
69.113970
57.730675
48.552752
38.143992
31.240582
24.867654
21.368861
18.842816
17.681718
16.517639
16.867518
17.137527
##ZVALUE=345
0.898838
0.935793
0.979900
0.951886
0.951886
0.965595
1.149774
0.932813
0.901818
0.982881
1.073480
1.090765
1.087785
1.000762
1.113415
1.018643
1.026988
0.985861
1.161695
0.980496
0.951886
1.008511
0.982881
1.073480
1.093745
1.168847
1.118779
1.213551
1.060963
1.311898
1.223683
1.306534
1.288652
1.200438
1.387596
1.476407
1.216531
1.349449
1.265407
1.655817
1.498461
1.598597
1.601577
1.775622
1.839995
1.742840
1.870990
2.163649
2.077818
2.349615
2.380610
2.672672
2.909899
3.427863
9.162426
52.400827
129.993558
318.514705
553.775430
967.379808
1015.800834
1015.800834
1015.800834
1015.800834
1015.800834
1015.800834
977.988839
593.351722
339.241028
133.796930
58.665872
18.425584
11.960864
11.264682
10.715723
11.526942
12.026429
14.503598
17.233491
24.314523
31.734705
43.324828
52.657723
63.540936
69.399476
71.969628
69.286823
62.505603
55.938959
45.802593
37.496686
28.375983
23.241639
19.320846
17.099977
15.896559
##ZVALUE=350
0.981688
0.920892
0.971556
1.033545
0.994802
0.827909
0.837445
1.004934
0.930429
0.989437
1.114607
1.149774
1.223683
1.098514
0.970960
1.122952
1.099706
0.914931
1.147985
1.129508
1.211762
1.026988
1.068711
1.023412
1.188517
1.098514
1.093745
1.168847
1.125932
1.209974
1.226664
1.221895
1.116991
1.330972
1.201630
1.269579
1.253486
1.429915
1.457930
1.490712
1.368523
1.513958
1.450777
1.597404
1.534820
1.678467
1.637936
1.871586
1.905560
1.913905
2.082586
2.239943
2.107620
2.399683
2.466440
2.934933
4.870892
29.249787
84.190965
232.612491
421.929955
791.355968
1015.788913
1015.788913
1015.788913
1015.788913
1015.788913
1015.788913
1015.788913
646.250844
388.121605
174.748898
80.158710
22.907853
11.863708
10.007620
9.914637
9.677410
10.036826
11.172891
12.147427
16.421676
20.958781
28.526783
36.381483
46.343803
54.433942
62.333941
64.521432
63.340664
59.207678
50.108433
42.921901
33.280849
27.356744
21.196604
##ZVALUE=355
1.029968
0.945926
0.964999
0.977516
0.941753
1.034737
1.101494
1.027584
0.962615
1.040697
1.043677
0.867844
1.050830
0.928640
1.075864
1.020432
0.952482
1.009703
1.163483
1.026988
1.031756
1.220703
1.051426
1.243949
1.063943
1.006722
1.166463
1.219511
1.178980
1.176596
1.112819
1.236796
1.130700
1.229644
1.154542
1.183748
1.238585
1.379848
1.519918
1.408458
1.489520
1.406670
1.473427
1.392961
1.513958
1.686811
1.639724
1.717806
1.523495
1.904964
1.828671
1.770854
2.104640
2.344847
2.157688
2.477765
2.530813
2.855659
3.362894
13.786554
48.038960
158.649683
304.380655
605.993867
915.745497
1015.796661
1015.796661
1015.796661
1015.796661
1015.796661
1015.796661
808.352828
507.465601
218.485594
101.403594
29.835701
13.204813
9.278655
9.158850
8.826852
8.842945
9.394884
10.026693
11.388659
13.823509
18.761754
24.105906
32.778978
40.209889
48.647523
54.181814
57.892799
57.459474
52.871704
46.877861
39.058924
##ZVALUE=360
1.095533
0.975728
1.054406
1.066923
1.028776
1.003742
1.101494
1.051426
0.938773
0.989437
0.908971
0.878572
0.891685
1.120567
1.009703
1.039505
1.056790
0.997782
1.274943
1.221895
1.072884
1.193881
1.279712
1.200438
1.147985
1.200438
1.238585
1.139641
1.216531
1.136661
1.275539
1.348853
1.341701
1.238585
1.267791
1.335740
1.431704
1.393557
1.217723
1.434684
1.233816
1.229644
1.452565
1.415610
1.535416
1.666546
1.475811
1.599789
1.685619
1.669526
1.882911
1.888871
1.823902
1.892447
2.021790
2.241731
2.481937
2.454519
2.648830
2.889633
3.092885
5.981922
22.577643
92.813969
202.714801
461.557508
746.563673
1015.788913
1015.788913
1015.788913
1015.788913
1015.788913
1015.788913
936.034918
613.597035
294.905901
148.018003
51.166415
19.875765
9.430647
8.436441
8.381605
8.553863
8.268952
8.711815
8.915663
9.881854
12.159944
14.632940
20.833611
26.828647
35.524964
41.818619
48.860908
51.930547
52.628517
##ZVALUE=365
0.873804
0.813603
0.725985
0.837445
0.800490
0.955462
0.974536
0.786781
0.949502
0.948906
0.932813
0.989437
0.894666
0.943542
0.906587
0.793934
0.949502
0.843406
0.932813
0.841618
0.856519
0.969768
0.946522
0.871420
0.969768
0.885725
1.013875
0.980496
1.021624
1.104474
1.141429
0.958443
1.055598
1.139641
1.077652
0.989437
1.054406
1.064539
1.027584
1.066923
1.198649
1.248717
1.273751
1.277924
1.267791
1.215935
1.266599
1.342893
1.431704
1.457930
1.554489
1.615882
1.504421
1.566410
1.653433
1.715422
1.619458
1.853704
2.062917
2.242923
2.443790
2.677441
2.880692
3.448725
8.606911
51.482916
126.648545
304.157734
535.830855
945.758820
1015.637517
1015.637517
1015.637517
1015.637517
1015.637517
1015.637517
788.574815
425.543785
226.349831
76.720715
28.668642
9.723902
7.992983
7.750988
7.424951
7.424951
7.327795
7.643700
7.862449
8.585453
9.828806
13.056993
16.621947
22.643805
29.289722
36.488771
##ZVALUE=370
0.932813
0.994802
1.012683
1.027584
1.070499
0.949502
1.058578
0.929832
0.986457
1.004934
0.972748
1.020432
1.012683
0.835657
0.861883
0.998974
0.928640
0.968575
1.021624
1.110435
0.978708
1.166463
1.085997
1.059771
1.077652
1.038909
1.055598
1.031756
1.066923
1.039505
0.989437
1.258850
1.157522
1.144409
1.126528
1.146793
1.148582
1.214743
1.344681
1.228452
1.213551
1.106858
1.350641
1.440644
1.330972
1.274943
1.393557
1.453757
1.399517
1.303554
1.457930
1.574755
1.483560
1.579523
1.312494
1.593828
1.766682
1.815557
1.800656
1.893640
1.920462
2.219677
2.408624
2.624989
2.482533
2.725720
4.443526
24.669766
76.271892
226.076841
411.551595
766.969919
1015.788913
1015.788913
1015.788913
1015.788913
1015.788913
1015.788913
904.597640
493.130684
273.392797
104.022622
44.952631
15.003681
8.249879
7.237792
7.058978
7.029772
7.280707
6.951690
7.019639
7.123947
7.905960
9.321570
11.463761
15.501976
##ZVALUE=375
1.028776
0.981688
1.073480
0.901818
0.997782
0.980496
0.948906
1.018643
0.926852
0.862479
0.834465
0.867844
1.159906
0.960827
1.030564
1.061559
1.113415
1.151562
1.073480
1.077652
0.984669
1.111627
1.065731
1.091957
1.164675
0.972748
1.052618
1.161695
1.083612
1.197457
1.108646
1.218915
1.275539
1.176596
1.060963
1.262426
1.125932
1.174808
1.403689
1.212955
1.323819
1.286864
1.234412
1.361966
1.227856
1.158714
1.265407
1.505613
1.292825
1.335740
1.303554
1.350641
1.464486
1.496673
1.460910
1.487732
1.547933
1.544952
1.572967
1.641512
1.798868
1.841784
1.765490
2.110600
2.191663
2.326965
2.434850
2.787709
3.415942
12.072921
41.517615
137.959719
283.975601
607.660413
929.661989
1015.846729
1015.846729
1015.846729
1015.846729
1015.846729
1015.846729
656.926036
408.306718
197.872519
94.909668
27.187467
11.194944
7.063746
6.880760
6.595850
6.563663
6.634593
6.491542
6.562471
6.689429
7.441640
##ZVALUE=380
0.949502
0.867844
0.879765
0.996590
0.917912
0.910759
0.822544
0.923872
0.991821
0.908971
0.890493
0.940561
0.930429
0.777841
0.836849
0.972748
1.030564
0.959635
1.114607
1.049638
0.956655
0.725985
0.944734
1.109838
0.933409
0.898838
0.831485
1.000762
0.955462
0.964999
1.134872
1.117587
0.967979
1.033545
1.119971
1.133680
1.225471
1.202822
1.381636
1.096725
1.046658
1.089573
1.165867
1.151562
1.173615
1.278520
1.075864
1.360774
1.284480
1.381636
1.417994
1.434684
1.341701
1.391768
1.386404
1.385808
1.403689
1.400709
1.467466
1.454949
1.614690
1.696944
1.735687
1.686811
1.746416
1.961589
2.145767
2.258420
2.364516
2.890825
3.027916
6.335974
22.884607
99.895597
222.730637
498.424768
784.962773
1015.788913
1015.788913
1015.788913
1015.788913
1015.788913
1015.788913
854.664445
563.288927
272.960663
134.491920
43.418407
16.734600
7.143617
6.323457
6.233454
6.185770
5.869865
5.913973
6.190538
##ZVALUE=385
0.697970
0.821948
1.000762
0.752807
0.978708
0.913739
0.892878
0.818968
0.930429
0.747442
0.942945
0.941753
0.918508
0.918508
1.022816
0.902414
0.993609
0.930429
0.921488
0.691414
0.853539
0.786781
0.916719
0.810623
1.032948
0.807643
0.878572
1.037717
1.121759
1.135468
1.048446
1.180768
1.044869
1.240969
1.180768
1.314878
1.331568
1.402497
1.459718
1.380444
1.426935
1.170635
1.390576
1.317859
1.401901
1.236796
1.350641
1.432896
1.234412
1.410842
1.266599
1.255870
1.435876
1.444817
1.292825
1.341701
1.351833
1.490712
1.390576
1.467466
1.546741
1.457930
1.593828
1.546741
1.682639
1.627803
1.818538
2.049804
2.102852
2.528429
2.746582
2.887845
3.081560
3.825426
11.469722
58.386922
141.389966
347.598791
606.801510
1007.318497
1015.788913
1015.788913
1015.788913
1015.788913
1015.788913
1015.788913
745.024681
391.620994
214.986801
84.055662
32.330751
9.213686
6.632805
5.919933
5.798936
5.919933
##ZVALUE=390
0.762939
0.921488
0.743866
0.905991
0.788569
0.895858
0.992417
0.807643
0.852942
0.878572
0.843406
0.909567
0.937581
0.905991
0.801682
0.900626
0.925660
0.947714
0.854731
0.877976
1.007915
1.082420
0.849962
0.761747
1.079440
0.822544
0.873804
1.026988
1.111627
1.131892
1.061559
1.203418
1.298785
1.039505
1.286864
1.301765
1.311898
1.352429
1.510978
1.396537
1.302958
1.416802
1.354814
1.458526
1.486540
1.540780
1.416802
1.514554
1.480579
1.404881
1.464486
1.244545
1.471639
1.488924
1.536608
1.402497
1.462698
1.533628
1.331568
1.453757
1.530647
1.627803
1.460910
1.554489
1.495481
1.680851
1.778603
2.016425
1.998544
2.368689
2.430677
2.549887
2.707839
2.556443
2.848506
3.292561
5.549788
31.558871
90.934634
264.597535
490.493774
898.572803
1015.788913
1015.788913
1015.788913
1015.788913
1015.788913
1015.788913
968.204737
578.715801
332.853794
132.083893
59.615970
16.751885
7.549524
5.830526
##ZVALUE=395
0.808835
0.878572
0.945926
0.933409
0.813603
0.877976
0.746846
0.821948
0.756979
0.780821
0.889897
0.759959
0.854731
0.845790
0.961423
0.929832
0.946522
0.930429
0.889897
1.056790
0.888705
0.804663
0.888705
0.824928
0.860691
0.868440
1.029968
1.030564
1.188517
1.088977
1.205802
1.162887
1.374483
1.251698
1.322627
1.353621
1.530647
1.333952
1.442432
1.438856
1.391768
1.484752
1.653433
1.565814
1.589656
1.521707
1.529455
1.632571
1.555681
1.541972
1.622438
1.453757
1.422763
1.492500
1.468658
1.362562
1.538992
1.493692
1.618862
1.712441
1.573563
1.622438
1.686811
1.498461
1.677871
1.743436
1.784563
1.930594
2.015829
2.224445
2.273917
2.351999
2.331734
2.184510
2.493858
2.476573
2.660751
3.009439
3.615618
18.214583
61.635971
199.383497
370.971560
691.331625
987.643003
1015.788913
1015.788913
1015.788913
1015.788913
1015.788913
1015.788913
735.975504
454.165936
195.905566
89.922547
27.153492
##ZVALUE=400
1.012683
0.840425
0.859499
0.841618
0.844598
0.816584
0.744462
0.720620
0.903606
0.694990
0.871420
0.892878
0.835657
0.952482
0.850558
0.712872
0.794530
0.888705
0.841618
0.808835
0.913739
0.848770
0.846982
0.821948
0.947714
0.860691
0.897646
1.057982
1.159906
1.038909
1.144409
1.265407
1.108646
1.259446
1.401901
1.372695
1.408458
1.307726
1.521707
1.396537
1.443624
1.373887
1.489520
1.418591
1.344681
1.643896
1.678467
1.471639
1.357794
1.486540
1.531839
1.452565
1.403689
1.383424
1.488924
1.442432
1.484752
1.522899
1.520514
1.484752
1.471639
1.548529
1.610518
1.565814
1.596808
1.685619
1.847744
2.037883
2.106428
2.147555
2.142787
2.289414
2.285838
2.196431
2.189875
2.217889
2.213717
2.297759
2.507567
2.801418
3.121495
9.891987
34.699440
113.986731
232.339501
499.010682
778.416991
1015.788913
1015.788913
1015.788913
1015.788913
1015.788913
1015.788913
842.924714
552.215576
277.669430
##END
