##TITLE=FAAI0502
##FORMAT=SPECTACLE-ASCII V-1.2
##DATA TYPE=ULTRAVIOLET SPECTRUM
##SECOND TYPE=ULTRAVIOLET SPECTRUM
##DATE=11/28/17
##TIME=17:13:23
##SPECTROMETER/DATA SYSTEM=SPECTACLE
##XUNITS=NM EM
##YUNITS=ENERGY
##YFACTOR=1
##FIRSTX=220
##LASTX=410
##NPOINTS=96
##3DDATA=Equidistant
##ZUNITS=NM EX
##FIRSTZ=210
##LASTZ=400
##ZPOINTS=39
##XYDATA=(Y..Y)
##ZVALUE=210
6.991625
6.617904
6.022453
6.686449
5.241632
5.640984
6.397963
5.416870
4.959702
5.278587
4.512668
3.839731
4.536510
3.486872
4.497766
4.380941
4.853606
5.370975
5.247593
5.359650
6.022453
5.967617
6.855726
6.930828
7.413626
7.565618
7.576942
8.542538
8.141994
8.559823
9.188652
9.089708
11.634827
9.544492
10.170937
10.276437
11.030436
10.850430
10.680556
11.816621
10.620952
9.969473
9.906888
10.595918
10.062456
10.772943
10.597706
11.317730
11.195540
10.445714
11.521578
11.195540
11.477470
11.103749
11.274815
11.283755
11.551976
10.653734
11.139512
11.330843
11.667609
10.973811
11.595488
11.884570
10.763407
11.709929
13.020635
13.511777
16.893744
18.512607
23.173690
25.190711
29.802918
31.711459
35.084486
37.726760
39.132833
37.859678
35.611987
32.185912
29.856563
24.894476
21.978617
16.151667
14.679432
12.352467
10.588765
10.575652
9.905696
9.924769
10.838509
11.225939
10.931492
12.476444
12.409687
13.448596
##ZVALUE=215
25.029778
24.055839
19.947886
15.668869
13.135672
10.610819
10.126829
10.148883
11.075735
10.563731
8.958578
8.097887
7.118583
6.211996
5.504489
5.054474
5.108714
5.461574
5.589724
6.255507
6.955862
7.093549
6.814599
8.111000
8.058548
8.276701
7.640719
8.679628
9.315610
9.814501
10.037422
10.414720
11.492968
11.400580
12.174845
11.533499
11.845827
11.187792
11.077523
12.124777
11.914968
12.072921
12.025833
10.737777
11.826754
11.304617
11.078715
13.149977
11.218786
12.513995
11.808872
12.838840
11.696815
11.799932
13.266802
12.204647
11.341572
12.475848
12.871623
11.976957
11.336803
11.381507
12.427568
11.202693
12.001991
12.072921
13.190508
13.772845
15.097857
18.189549
20.599961
23.963451
26.496649
31.852722
32.751560
34.657717
36.209822
34.934878
34.378767
28.081536
26.829839
22.772551
18.415451
16.688704
14.319420
11.822581
11.383891
10.614991
9.521842
9.860992
9.486675
9.610653
8.669496
10.328889
9.492636
10.417700
##ZVALUE=220
72.680712
75.975657
74.789524
67.512989
57.261586
45.450926
36.180615
23.580790
19.648671
18.736720
19.162893
19.165874
19.220710
17.086864
12.919903
10.948777
9.239912
6.722808
6.973743
6.415844
5.978942
6.764531
8.348823
7.900596
8.555651
8.625984
9.203553
9.980798
10.418892
11.256933
12.064576
12.636781
12.582541
12.036562
14.052987
13.739467
12.624860
12.703538
13.333559
12.426972
13.940930
13.496876
15.044808
13.652444
12.319684
13.501644
14.107823
12.482405
13.253689
13.399720
13.751984
12.519956
12.425780
13.932586
12.582541
12.573600
13.518929
12.983680
12.755990
14.178753
13.403893
13.012886
12.744665
12.727976
13.578534
13.339520
14.835000
13.809800
16.947985
18.381476
21.264553
26.629567
27.110577
29.852986
32.610893
33.808947
35.294890
34.296513
32.711625
30.173659
26.630759
25.041699
18.593669
16.630888
15.050769
13.012886
11.829734
10.730624
11.100769
10.508895
10.229945
8.685589
10.240674
9.747744
10.367632
9.594560
##ZVALUE=225
116.149783
127.049685
157.898664
183.165669
190.824866
165.833831
140.160918
103.053451
71.729422
53.712726
36.663413
31.371713
31.059980
33.066869
32.070875
30.718446
24.215579
21.304488
16.079545
11.629462
10.473728
9.663701
9.124875
8.799434
8.002520
9.219646
8.808970
10.122657
10.754466
10.895729
12.066960
12.664795
12.973547
12.476444
13.581514
13.798475
12.784600
14.453530
14.540553
13.997555
14.203787
13.477802
12.511611
13.777614
14.073849
14.158487
14.009476
14.401674
15.202761
14.779568
13.746619
15.529990
16.698837
14.077425
14.812946
13.867617
14.515519
15.392900
14.993548
14.451742
14.745593
14.421940
14.009476
14.267564
15.658736
16.259551
14.982820
16.047955
19.891858
20.433664
24.231672
25.798678
29.398799
29.962659
31.425953
31.483769
31.207800
33.005476
29.565692
28.216839
24.509430
20.756721
18.898845
18.121600
14.449954
14.516711
13.089776
13.774633
12.588501
11.814833
12.229681
10.361671
11.884570
12.261868
10.198951
11.540651
##ZVALUE=230
86.795688
97.083449
158.925653
269.910693
342.458487
398.149490
416.197777
379.427671
314.402580
245.443583
151.296854
102.356672
64.136982
54.978728
50.702691
55.231452
55.739880
53.851604
48.756599
40.488839
32.445788
22.635460
16.104579
12.471676
11.469722
10.393858
11.192560
12.346506
10.760427
12.564659
12.569427
12.065768
12.325644
13.162494
12.918711
12.853742
13.395548
13.094544
14.585853
14.791489
15.391707
14.252663
14.776587
15.878677
17.124414
15.743971
15.467405
16.508698
15.204549
16.761422
15.845895
17.219782
17.215610
15.887618
15.109777
17.435551
17.107725
18.299818
17.033815
16.922951
17.374754
16.708970
18.290877
17.242432
18.138885
18.057823
18.206835
20.635724
22.362471
22.542477
25.728941
28.787851
31.265616
33.424497
33.943653
35.020709
33.384562
33.612847
32.360554
28.830767
28.333664
22.215843
21.900535
19.324422
18.656850
14.764667
16.220808
15.385747
14.050603
14.521480
15.504956
13.944507
14.690757
14.952421
14.164448
13.458729
##ZVALUE=235
25.112629
30.689836
70.748925
173.942447
293.416977
477.305651
599.878430
729.748011
741.992593
701.067448
553.688407
427.293777
262.165666
184.649825
115.509629
82.949996
73.671937
78.796744
84.571838
85.760951
82.576871
67.402720
56.349635
39.874911
30.383468
20.672679
16.711950
13.690591
13.202429
11.667609
11.866689
12.634993
11.811852
13.083816
13.612509
12.350678
15.586615
14.867783
14.155507
15.083551
16.879439
16.508698
16.175508
16.843677
16.168952
16.190410
17.478466
18.983483
19.597411
19.152761
20.024776
20.476580
18.572807
21.275878
19.920468
20.619631
20.619631
20.595789
20.604730
20.606518
21.219850
20.154715
21.042824
21.308661
20.414591
20.987988
23.321509
24.626851
24.625659
26.510954
30.680895
33.582449
36.707520
38.337708
36.772490
38.895607
40.567517
39.407611
37.392974
33.531785
31.333566
25.560856
26.481748
22.959709
21.943450
20.513535
20.416975
18.546581
20.072460
19.080639
19.449592
17.310977
17.424822
17.308593
17.632842
18.939972
##ZVALUE=240
3.838539
3.834963
11.565685
35.647750
112.071633
216.078758
434.447527
650.066733
927.314758
1015.786529
1015.786529
1015.786529
882.972479
647.923946
477.112532
284.727812
188.513994
121.974945
102.611780
100.231767
107.315779
111.690760
107.677579
101.072788
82.420707
66.899657
51.409602
36.060810
26.280880
19.404888
16.416907
14.599562
15.764832
14.355779
14.649630
14.643669
14.895797
15.584826
15.413761
15.153885
15.463829
16.014576
17.773509
18.740892
19.892454
18.967986
20.651817
19.075871
20.643473
21.791458
22.647977
23.186803
22.587776
22.783875
22.656918
24.697781
23.828745
23.075938
22.949576
23.577809
22.169948
23.605824
22.858977
23.661852
24.405718
25.847554
25.044680
26.671886
29.260516
31.114817
33.544898
35.278797
38.125515
41.015744
41.010976
42.365789
40.587783
41.290522
37.323833
35.829544
34.116507
29.845834
26.959777
24.583936
23.722649
23.536682
22.191405
23.305416
22.747517
19.903779
21.465421
18.786788
18.726587
20.630956
20.506978
19.008517
##ZVALUE=245
2.980828
2.839565
3.088713
2.963543
6.327629
29.560924
85.739493
247.775912
448.918939
779.092908
1002.128720
1015.788913
1015.788913
1015.788913
1015.788913
911.118984
634.332895
443.974733
260.257721
167.957544
110.503435
99.335909
111.196637
121.593475
127.556920
125.813484
109.961629
95.327497
78.459978
56.605935
41.722655
27.602911
20.877719
17.082691
14.194846
14.387965
14.417768
13.972521
14.717579
15.790462
16.306639
16.727448
16.824603
18.460751
18.236637
18.470883
20.561814
19.584894
21.308661
21.481514
21.802783
24.161935
22.127628
23.571849
24.041533
23.534894
23.501515
22.978783
23.303628
23.436546
21.875501
21.648407
23.194551
22.527575
22.573471
23.183823
23.887753
24.594665
26.539564
28.458834
29.030442
31.638741
32.214522
36.828518
36.037564
35.746694
36.630630
34.252405
31.845570
32.308698
29.873848
26.481748
24.044514
21.924973
22.771955
21.243691
21.527410
21.264553
20.035505
20.349622
19.786954
19.025803
19.405484
18.498898
19.410849
18.527508
##ZVALUE=250
2.504587
2.675653
2.584457
2.669692
2.684593
3.762841
5.045533
17.688870
95.315576
219.184756
497.962832
780.296922
1015.788913
1015.788913
1015.788913
1015.788913
1015.788913
1015.788913
902.940631
580.711961
382.433534
236.078501
130.383968
99.746585
104.930997
116.034746
134.105682
134.712458
132.214427
117.498636
106.260777
82.016587
63.101649
40.399432
28.320551
20.848513
17.375946
14.459491
14.584661
15.335679
15.564561
15.900731
16.544461
17.742515
17.790794
19.054413
19.513965
19.719601
20.931959
22.035837
21.581650
20.627975
22.907853
23.167729
22.304654
21.686554
22.297502
22.303462
22.647977
21.777749
22.120476
20.712614
20.139813
20.347834
21.760464
18.871427
20.733476
22.575855
22.028685
24.080873
24.948716
26.478767
29.060841
29.718876
30.857921
30.150414
30.285716
29.797554
27.262568
24.790764
22.800565
21.515489
21.392703
19.873977
19.779801
18.580556
18.857718
16.431808
17.773509
18.559694
16.087890
17.041564
17.477870
17.782450
16.803741
16.711950
##ZVALUE=255
2.354980
2.209544
2.328753
2.805591
2.574921
2.693534
2.929568
3.105998
3.931522
10.903478
73.050857
196.994543
398.265719
774.980783
1015.789509
1015.789509
1015.789509
1015.789509
1015.789509
1015.789509
1015.790105
845.500827
500.591993
305.872560
154.279470
106.516480
93.512535
101.032853
120.042562
135.158896
144.181848
136.701465
128.928423
102.009773
85.382462
59.060454
43.068528
28.631687
20.104647
16.468763
15.145540
14.469624
16.099811
17.352700
16.622543
16.547441
18.127561
19.538999
19.384623
19.057989
19.389987
18.766522
20.052791
20.381808
19.868612
20.759702
19.661784
19.304752
18.306971
18.698573
18.965602
16.935468
18.681884
18.036962
17.853975
17.363429
19.411445
18.501878
19.599795
20.609498
21.135807
21.836758
24.861693
24.424791
24.603605
25.807619
24.713874
22.702813
22.749901
19.778609
19.890666
18.117428
17.592907
16.707778
16.072989
15.810728
14.963746
15.876889
14.878511
14.873743
15.271902
13.708472
15.569925
14.868975
13.922453
14.348626
##ZVALUE=260
2.189875
1.992583
2.348423
2.340674
2.206564
2.471805
2.593994
2.698898
3.098845
3.294945
3.497601
7.144809
33.609867
170.331597
360.533595
749.771595
1015.796661
1015.796661
1015.796661
1015.796661
1015.796661
1015.796661
1015.796661
1015.796661
684.247613
447.897911
243.116617
140.353441
87.828636
83.549619
102.325678
118.997693
135.332942
147.090554
145.727992
127.969980
111.021996
85.707903
64.221621
43.372512
30.366778
21.269917
16.354918
16.360879
15.639663
15.907884
16.526580
16.716719
17.696619
17.931461
17.877817
18.150806
17.891526
17.366409
16.469955
16.192794
17.345548
17.638803
17.676950
15.828609
16.151667
16.402602
15.339851
15.665889
15.471578
15.644431
15.378594
16.101599
15.765429
17.636418
18.172860
18.943548
19.369721
20.422935
20.333529
20.568967
19.866824
19.515753
18.930435
16.362667
16.159415
16.754866
15.010834
14.607906
14.018416
13.356805
13.325810
12.949705
13.356805
14.288425
13.545752
12.916923
12.480617
12.392998
12.106895
12.804866
##ZVALUE=265
1.933575
1.867414
2.048612
1.962781
2.111793
1.913905
2.604723
2.332926
2.502799
2.835989
3.101826
3.440976
3.598928
4.492998
16.359687
121.704936
307.363868
677.537918
1004.493833
1015.788913
1015.788913
1015.788913
1015.788913
1015.788913
1015.788913
1015.788913
903.447866
608.732700
323.949456
192.349553
100.756884
74.732900
80.221891
105.991960
126.286745
143.826604
148.614645
143.903494
130.532980
106.494427
85.899830
60.520768
43.722987
28.811693
21.979809
17.457604
16.246438
15.871525
16.509891
16.413927
16.022921
16.380548
15.677810
16.325712
15.608668
14.449954
15.076995
14.965534
14.818907
13.914704
13.878942
13.724566
13.108850
13.491511
13.585687
13.277531
12.862682
14.117956
15.525818
15.828609
15.837550
17.203689
18.858910
18.468499
18.244982
18.736720
18.681884
17.414689
15.540719
14.952421
14.024973
13.063550
13.645887
12.835860
12.091994
11.709929
12.638569
12.496710
12.376904
11.891723
11.615753
12.078881
11.970997
12.395978
11.570454
12.392998
##ZVALUE=270
1.945496
2.018809
2.170801
2.140999
1.956820
2.260804
1.828671
2.335906
2.618432
2.585649
2.530813
2.927780
2.858639
3.316998
3.680587
4.141927
9.625554
51.276684
178.444982
556.936860
957.929492
1015.788913
1015.788913
1015.788913
1015.788913
1015.788913
1015.788913
1015.788913
1015.788913
800.179839
525.298715
256.918669
144.088864
75.040460
65.482855
81.015825
101.659894
126.849413
139.964819
150.613785
148.520470
131.725669
115.901828
85.146427
64.522624
42.396784
30.854940
21.505952
17.108917
15.781522
14.744997
14.764667
14.371872
14.153719
13.885498
13.621449
13.677478
13.448000
13.018847
12.903810
13.595819
13.003945
12.236834
11.597872
12.601614
12.874603
12.843609
12.979507
13.464689
14.697909
14.694929
16.212463
16.522408
17.218590
17.281771
16.489625
16.375780
15.840530
15.209913
13.938546
13.377666
12.163520
12.248755
12.041926
12.546778
11.836886
11.327863
11.845827
11.588931
11.507869
11.346936
11.379719
11.174679
10.444522
11.602640
11.058450
##ZVALUE=275
1.739860
1.702905
1.900792
1.963973
1.744628
1.968741
2.202988
2.045631
2.143979
2.257824
2.440810
2.573729
2.653599
2.903938
2.925992
3.298521
3.745556
3.947616
4.595518
26.184916
137.740970
394.190550
947.944522
1015.789509
1015.789509
1015.789509
1015.789509
1015.789509
1015.789509
1015.789509
1015.789509
1015.789509
737.825632
376.051664
210.275650
91.101527
58.076978
59.717894
77.077746
104.017854
125.303864
143.307447
151.309967
145.509839
133.479834
105.101466
87.717772
63.265562
45.908689
30.114651
23.241639
16.683936
15.049577
13.900995
13.376474
13.091564
13.025999
12.261868
12.860894
12.724996
12.355447
12.466908
11.603832
11.725426
11.536479
11.559725
11.733770
12.503862
12.706518
13.894439
14.028549
15.011430
15.599728
16.589761
16.234517
16.455650
15.995502
14.929771
14.297962
13.895631
12.891889
11.605620
12.166500
11.081696
10.582805
10.692477
10.815859
10.841489
10.841489
10.794997
10.442734
10.087490
10.064840
10.698438
10.277629
10.411739
##ZVALUE=280
1.696944
1.838803
1.688600
1.804829
1.878738
1.759529
1.896620
1.851916
1.958609
2.298951
2.378821
2.375841
2.426505
2.676845
2.637506
2.824664
3.065467
3.245473
3.817677
3.972650
4.835725
12.326837
79.902411
387.095809
801.257491
1015.788913
1015.788913
1015.788913
1015.788913
1015.788913
1015.788913
1015.788913
1015.788913
1015.788913
849.608779
469.430685
272.407532
116.194487
64.354539
45.737624
54.933429
80.854893
101.293921
125.307441
140.656829
145.592690
140.349865
127.109885
109.048486
84.019899
63.681602
42.644739
31.244755
20.141602
16.002655
13.571978
12.305975
12.187958
11.595488
11.807680
11.532903
11.296868
11.596680
11.135936
11.194944
11.359453
11.416674
12.239814
12.345910
12.722611
13.920665
14.264584
14.595985
15.155673
15.651584
14.336705
14.195442
14.098883
13.540983
12.423992
12.449622
11.596680
11.567473
11.434555
10.623932
10.941625
10.913610
10.609627
10.712743
10.147691
10.070801
9.704828
10.148883
10.448694
9.510517
9.628534
##ZVALUE=285
1.741648
1.687407
1.628995
1.749992
1.780987
1.824498
1.895428
1.976490
1.934767
1.928806
2.233982
2.170801
1.946688
2.437830
2.434850
2.427697
2.419949
2.599955
2.958775
3.480911
3.295541
4.108548
4.671812
5.654693
46.332479
191.186666
588.499904
992.195606
1015.791893
1015.791893
1015.791893
1015.791893
1015.791893
1015.791893
1015.791893
1015.791893
1015.791893
646.014810
392.601490
179.974437
92.184544
42.195916
37.492514
53.760409
71.953535
98.261833
117.116570
133.026838
140.808821
136.006474
126.203895
105.896592
87.765455
61.588883
45.069456
28.313994
19.983649
13.971925
11.756420
10.969639
10.913610
10.541677
10.665655
10.489821
10.975599
10.971427
11.103749
11.212826
11.523962
12.605786
12.636781
12.812614
13.528466
13.717413
13.818741
14.382601
13.287663
13.120770
12.358427
11.875629
11.430979
11.589527
10.704994
10.510683
10.556579
10.496974
10.465980
10.732412
10.291934
10.488629
10.311604
9.946823
10.039806
10.041595
9.623766
9.833574
##ZVALUE=290
1.411438
1.655817
1.551509
1.701713
1.789927
1.693964
1.755953
1.919866
1.849532
1.926422
1.825690
1.993775
2.087951
1.951456
2.315640
2.276897
2.276897
2.584457
2.522469
2.839565
2.978444
3.145933
3.916621
3.768802
4.918575
5.398989
12.766719
78.193545
379.077792
786.601901
1015.779972
1015.779972
1015.779972
1015.779972
1015.779972
1015.779972
1015.779972
1015.779972
1015.779972
827.934742
531.885624
258.892775
137.181878
53.087473
31.229854
35.133958
47.004819
68.458915
86.782575
111.046433
125.531554
133.847594
133.458972
120.868683
105.417967
79.697967
60.535669
40.200949
28.854609
17.926693
13.928413
10.652542
9.965897
10.039806
9.554625
9.661913
9.897947
10.171533
10.674000
11.314750
11.660457
12.438893
12.359619
12.679696
12.981892
12.647510
11.707544
12.203455
11.407733
10.734797
11.168718
10.450482
10.341406
10.221601
10.323524
10.563731
10.214448
10.615587
9.596944
9.860992
9.949803
9.525418
9.488463
9.732842
9.630919
9.406805
##ZVALUE=295
1.612902
1.681447
1.626611
1.599789
1.639724
1.621842
1.702905
1.822710
1.792908
1.496673
1.864433
1.778603
1.724958
1.924634
1.995564
1.925826
2.131462
2.219677
2.332926
2.582669
2.653599
2.877712
3.016591
3.209710
3.532767
3.999472
4.517436
5.180836
6.009936
38.251877
174.520612
620.905757
1015.788913
1015.788913
1015.788913
1015.788913
1015.788913
1015.788913
1015.788913
1015.788913
1015.788913
985.767841
687.027574
355.464816
193.509459
72.060823
34.875870
23.521781
30.210614
45.006871
60.875416
85.260868
101.994872
120.374560
126.703978
125.469565
116.935968
94.304681
79.223514
56.784749
41.269660
25.423765
18.651485
12.693405
10.471940
9.321570
9.370446
9.601712
9.835958
10.984540
11.230707
11.345744
11.584759
11.875629
11.777878
11.155605
11.645555
10.926723
10.658503
10.689497
10.412931
10.341406
9.852648
10.135770
10.256767
9.953976
9.807944
10.173917
9.638667
9.808540
9.764433
9.526610
9.538531
9.576678
9.350777
9.706616
##ZVALUE=300
1.511574
1.485944
1.430511
1.649857
1.570582
1.493692
1.577735
1.779795
1.725554
1.427531
1.816750
1.790524
1.830459
1.843572
1.901984
1.802444
1.764894
2.075434
2.156496
2.144575
2.380610
2.601743
2.554655
2.939701
2.718568
3.150702
3.427863
3.544688
4.207492
4.804730
5.499721
8.542538
95.000863
329.595804
895.800591
1015.788913
1015.788913
1015.788913
1015.788913
1015.788913
1015.788913
1015.788913
1015.788913
1015.788913
828.343034
528.614521
259.279609
139.286518
50.936937
24.273992
20.398498
26.710629
39.750934
54.637790
76.085925
94.251633
113.610625
119.396448
119.057894
111.612678
94.117522
78.076720
54.546595
42.014718
26.549697
18.293858
12.827516
10.480881
9.959936
9.880662
10.883808
10.948777
11.557937
11.340976
11.381507
10.965466
11.156797
10.437965
10.380745
9.844899
9.856820
10.250807
9.970665
10.388494
9.709597
9.964705
9.651780
9.633899
9.737611
9.810925
9.906888
9.692907
9.221435
9.227991
9.388924
9.259582
##ZVALUE=305
1.300573
1.444817
1.368523
1.528859
1.546741
1.509786
1.571774
1.553893
1.567602
1.442432
1.707673
1.637936
1.662970
1.985431
1.810789
2.060533
1.859665
1.855493
1.748800
1.982450
2.043843
2.038479
2.326965
2.572536
2.847910
2.944469
3.147721
3.185868
3.477931
3.777742
3.897548
4.756451
5.208850
6.847978
30.282736
241.828561
580.718517
1015.788913
1015.788913
1015.788913
1015.788913
1015.788913
1015.788913
1015.788913
1015.788913
1015.788913
1015.788913
637.491941
390.987992
182.058811
88.227987
30.060410
17.223954
18.282533
24.517775
39.024949
52.540898
72.970986
88.907480
105.026960
112.803578
112.386942
105.548501
90.559721
74.528456
53.517818
39.811730
25.506616
18.429756
13.691783
11.650920
11.227727
10.798573
10.889769
10.814667
10.685921
10.784864
10.229945
10.041595
10.157824
9.959936
9.975433
9.752512
9.797812
10.063648
9.857416
10.257959
9.918809
9.828806
9.746552
9.866953
9.735823
9.824634
9.827614
9.631515
9.475946
##ZVALUE=310
1.445413
1.488924
1.388788
1.478791
1.645684
1.419783
1.504421
1.575947
1.570582
1.547933
1.628995
1.510978
1.575947
1.692772
1.631975
1.737475
1.821518
1.796484
1.949668
2.028942
2.010465
2.244711
2.199411
2.275705
2.409816
2.475977
2.442598
2.536774
2.794862
2.815723
3.305674
3.450513
3.944635
4.294515
4.502535
5.857944
9.076595
111.032724
352.254510
909.485817
1015.788913
1015.788913
1015.788913
1015.788913
1015.788913
1015.788913
1015.788913
1015.788913
1015.788913
893.412828
581.123829
284.908414
150.113702
50.888658
21.876693
14.084578
16.570687
23.095608
32.091737
48.514605
62.065721
83.744526
95.106959
105.899572
107.280612
98.543763
88.634491
71.078539
56.855679
37.798882
28.301477
19.723773
15.597939
12.028813
11.317730
10.742545
10.599494
10.046959
9.923577
10.042787
9.723902
10.119677
9.910464
9.806752
10.020733
10.140538
10.225773
10.140538
10.274649
10.051727
9.883642
9.804964
9.670854
9.587407
9.432435
9.469986
##ZVALUE=315
1.419783
1.459718
1.481771
1.389980
1.426935
1.385808
1.456738
1.504421
1.407862
1.428723
1.555681
1.647472
1.512766
1.444817
1.511574
1.608729
1.514554
1.925826
1.851916
1.769662
1.822710
1.992583
2.022982
2.040863
2.029538
2.068877
2.305508
2.353787
2.516508
2.529621
2.706647
3.137589
3.269911
3.376603
3.759861
4.395843
4.432797
5.260706
6.215572
44.851899
203.239918
665.246844
1015.788913
1015.788913
1015.788913
1015.788913
1015.788913
1015.788913
1015.788913
1015.788913
1015.788913
1015.788913
771.010518
403.248668
216.786861
76.384544
30.695796
13.932586
12.700558
15.503764
20.676851
30.759573
41.759610
60.018897
74.571967
91.369748
99.404454
100.716949
96.167922
82.943439
69.587827
52.985549
40.800571
27.211905
19.876957
14.518499
12.020469
10.266900
10.232925
10.021925
9.506941
9.598732
9.979606
9.773970
9.789467
9.849668
10.158420
10.433793
10.052919
9.980798
9.717941
9.635687
9.768605
9.892583
9.409785
9.535551
##ZVALUE=320
1.487732
1.371503
1.334548
1.372695
1.401901
1.486540
1.310706
1.460910
1.569986
1.499653
1.670718
1.433492
1.552701
1.549721
1.567602
1.501441
1.658797
1.633763
1.640916
1.762509
1.829863
1.786947
1.822710
2.023578
1.896620
2.186894
1.934767
2.223849
2.372861
2.418756
2.528429
2.504587
2.942681
2.980828
2.934933
3.393888
3.576875
3.998876
4.271865
4.868507
5.521774
13.398528
92.592835
432.044864
877.501965
1015.788913
1015.788913
1015.788913
1015.788913
1015.788913
1015.788913
1015.788913
1015.788913
1015.788913
945.075750
514.472723
290.181637
123.893619
54.959655
16.834736
11.534691
11.753440
13.607740
19.027591
25.164485
40.310621
52.848458
70.953965
83.855987
94.648004
96.306801
92.075467
82.925558
65.722466
51.977634
35.526752
26.697516
18.857718
14.255643
11.737943
10.549426
10.426641
10.233521
10.062456
9.944439
10.079741
10.137558
10.258555
10.191798
9.897947
9.738803
9.728670
10.057688
9.839535
9.464622
9.528995
##ZVALUE=325
1.301765
1.314878
1.417994
1.400709
1.374483
1.375675
1.402497
1.308918
1.534820
1.481771
1.558661
1.497865
1.509786
1.382828
1.439452
1.449585
1.479983
1.546741
1.626611
1.631975
1.728535
1.731515
1.922846
1.780987
1.819730
1.936555
1.964569
2.076626
2.133846
2.085567
2.264977
2.328753
2.375841
2.504587
2.581477
2.978444
2.999902
3.149509
3.480911
3.755689
4.145503
4.666448
5.142689
7.507801
42.023659
310.464501
662.539005
1015.788913
1015.788913
1015.788913
1015.788913
1015.788913
1015.788913
1015.788913
1015.788913
1015.788913
1007.564664
634.260774
381.654501
165.795684
77.470541
23.911595
12.661815
10.864735
11.018515
14.035702
18.126965
27.203560
38.311481
54.976940
67.420602
81.476569
87.783933
90.286732
85.064769
73.040724
62.156916
46.828985
34.945607
23.782849
17.483830
13.424754
11.606812
10.834932
9.928942
10.007620
9.887815
10.093451
10.040998
9.905696
9.606481
9.229779
9.440780
9.349585
9.278655
9.632707
##ZVALUE=330
1.358986
1.411438
1.318455
1.369715
1.238585
1.349449
1.395941
1.350641
1.244545
1.448989
1.355410
1.411438
1.402497
1.529455
1.501441
1.484752
1.490712
1.434684
1.537800
1.628995
1.459718
1.561642
1.675487
1.529455
1.833439
1.859665
1.874566
2.051592
1.827478
2.088547
1.991987
2.133846
2.195835
2.375841
2.335906
2.371669
2.641678
3.003478
2.960563
3.087521
3.285408
3.469586
3.875494
4.350543
4.816651
5.810857
14.014840
141.451955
403.512716
955.284834
1015.787721
1015.787721
1015.787721
1015.787721
1015.787721
1015.787721
1015.787721
1015.787721
1015.787721
791.136622
504.684448
236.315727
118.332505
40.913820
16.845465
10.690689
10.149479
11.092424
13.280511
19.336939
25.635958
37.496686
49.112439
65.578818
75.259805
83.770752
83.860755
79.939961
71.525574
56.315660
45.508742
31.829476
24.472475
17.379522
14.224648
11.584759
10.882616
10.250807
9.718537
9.778738
9.403825
9.287000
9.593964
9.155869
9.369850
9.212494
##ZVALUE=335
1.148582
1.172423
1.193881
1.355410
1.200438
1.308918
1.195669
1.277924
1.264811
1.351833
1.405478
1.262426
1.347661
1.412630
1.443624
1.306534
1.405478
1.358986
1.513958
1.470447
1.612902
1.493692
1.565814
1.699924
1.513958
1.654625
1.639724
1.708865
1.613498
1.897812
1.913905
1.913905
2.061725
2.081990
2.179742
2.164841
2.362728
2.506971
2.499819
2.640486
2.983809
2.812743
3.049970
3.407598
3.600717
3.987551
4.724860
5.239844
6.455779
58.735609
232.075453
685.340762
1015.788913
1015.788913
1015.788913
1015.788913
1015.788913
1015.788913
1015.788913
1015.788913
1015.788913
943.886042
632.578731
327.563882
173.025727
58.024526
23.231506
11.215806
10.206699
10.429621
11.389852
13.856888
17.334819
25.290847
33.889413
47.541857
58.448911
71.689487
76.792836
78.479648
74.583888
63.688755
54.908991
42.434931
33.931732
23.369789
18.328428
13.338923
11.666417
10.354519
9.700656
9.230971
9.447932
9.296536
9.280443
8.880496
##ZVALUE=340
1.111627
1.167655
1.212955
1.199841
1.080632
1.198649
1.234412
1.349449
1.216531
1.243949
1.378655
1.399517
1.229644
1.404881
1.398921
1.404881
1.397729
1.362562
1.376867
1.362562
1.416802
1.519918
1.573563
1.434684
1.438856
1.612902
1.484752
1.595616
1.820922
1.782775
1.956820
1.706481
1.853704
1.919866
1.865625
2.107620
2.015829
2.065897
2.061725
2.268553
2.230406
2.529621
2.587438
2.974868
3.328919
3.305674
3.489852
4.037619
4.359484
4.967451
5.485415
20.330548
117.329359
464.606881
886.736512
1015.788913
1015.788913
1015.788913
1015.788913
1015.788913
1015.788913
1015.788913
1015.788913
1015.788913
752.647519
389.776826
214.575529
85.966587
34.544468
12.938976
10.646582
10.429621
10.422468
10.923743
12.579560
17.077923
22.274852
32.836795
43.149590
55.817962
64.634681
72.621703
72.653890
69.599748
63.244700
51.709414
42.548776
31.116605
24.418831
17.341971
13.716817
10.810494
10.084510
9.186864
9.193420
8.797646
##ZVALUE=345
1.247525
1.102686
1.160502
1.300573
1.216531
1.393557
1.211762
1.259446
1.294613
1.356602
1.397729
1.400709
1.141429
1.369715
1.387596
1.341701
1.269579
1.343489
1.315475
1.356602
1.473427
1.473427
1.417994
1.505613
1.566410
1.619458
1.759529
1.593828
1.455545
1.630783
1.645684
1.792908
1.752973
1.859665
1.765490
1.820922
1.944900
2.073646
2.016425
2.247691
2.143979
2.342463
2.247691
2.483726
2.593994
2.705455
2.837777
3.179908
3.148913
3.550649
3.730655
4.450679
5.106926
7.349849
44.785738
288.943648
619.448423
1015.788913
1015.788913
1015.788913
1015.788913
1015.788913
1015.788913
1015.788913
1015.788913
1015.788913
908.010602
506.132841
288.848877
121.610761
52.456856
18.120408
11.542439
9.897947
9.651780
9.254813
9.616613
11.241436
14.239550
21.294951
28.508902
41.237473
49.744844
59.916973
65.568686
67.710876
65.952539
58.581829
51.235557
40.287971
32.052994
22.298694
17.444491
13.178587
10.957718
9.580851
##ZVALUE=350
1.365542
1.501441
1.357794
1.413822
1.454949
1.436472
1.271963
1.397729
1.496673
1.157522
1.314878
1.332760
1.464486
1.502633
1.559854
1.535416
1.495481
1.625419
1.409650
1.498461
1.420975
1.494884
1.547933
1.453757
1.537800
1.506805
1.416802
1.680851
1.680851
1.736879
1.725554
1.778603
1.784563
1.688600
1.768470
1.950860
1.793504
1.824498
2.102852
2.250671
2.027750
2.000928
1.953840
2.518892
2.321601
2.534986
2.678633
2.700686
2.792478
3.017783
3.273487
3.472567
3.788471
4.243851
4.694462
5.638003
16.310811
151.470304
398.715734
906.014442
1015.788913
1015.788913
1015.788913
1015.788913
1015.788913
1015.788913
1015.788913
1015.788913
1003.961563
604.790449
364.843607
163.186789
75.793862
21.726489
11.153817
9.225607
9.054542
8.418560
8.505583
9.154677
10.742545
14.423728
18.648505
27.334690
34.223795
44.813752
52.789450
59.744716
62.237978
60.259700
55.981874
47.311783
39.772987
30.132532
23.366809
16.768575
##ZVALUE=355
1.349449
1.273751
1.439452
1.208782
1.354814
1.336932
1.485944
1.425743
1.293421
1.474619
1.236796
1.540780
1.452565
1.456738
1.505613
1.468658
1.493692
1.593828
1.478791
1.460910
1.637936
1.624823
1.755953
1.469851
1.692772
1.573563
1.829863
1.620650
1.668930
1.771450
1.734495
1.771450
1.882911
1.951456
1.942515
1.919866
2.124906
1.964569
1.948476
2.032518
2.147555
2.203584
2.234578
2.232790
2.380610
2.308488
2.404451
2.783537
2.553463
2.642870
2.972484
3.135800
3.331900
3.548861
3.798604
4.104972
4.239678
5.101562
7.104874
71.501732
243.377686
658.725500
1008.743644
1015.788913
1015.788913
1015.788913
1015.788913
1015.788913
1015.788913
1015.788913
1015.788913
744.541883
470.394492
208.437443
98.949671
29.665828
13.134480
9.072423
8.485913
8.076429
7.891655
7.910728
8.505583
9.975433
12.296438
17.007589
22.454858
31.476617
38.560629
47.258735
52.588582
56.031942
55.246949
51.178932
45.148730
36.187768
##ZVALUE=360
1.383424
1.461506
1.381636
1.295805
1.246929
1.341701
1.462698
1.411438
1.486540
1.504421
1.502633
1.333952
1.636744
1.447797
1.424551
1.541972
1.450777
1.490712
1.479983
1.581907
1.561642
1.623631
1.657605
1.609921
1.626611
1.720786
1.599789
1.667738
1.732707
1.686811
1.809597
1.805425
1.826882
1.887679
1.888871
2.002716
1.864433
1.902580
2.018809
2.157688
2.029538
2.082586
2.046824
2.280474
2.330542
2.259612
2.282858
2.235770
2.626777
2.677441
2.691746
2.921820
2.900958
2.883673
3.033876
3.271699
3.434420
3.871918
4.618764
5.684495
6.654859
21.836758
109.561682
391.473770
735.808015
1015.782952
1015.782952
1015.782952
1015.782952
1015.782952
1015.782952
1015.782952
1015.782952
886.553526
585.268736
286.347866
149.167776
54.660439
20.740628
9.210706
8.355975
7.861853
7.561445
7.262826
7.141829
7.358789
8.471608
10.526776
13.365746
18.691421
24.760962
33.806562
40.221810
47.472715
49.984455
50.826669
##ZVALUE=365
1.349449
1.410842
1.437664
1.296997
1.215935
1.434684
1.227856
1.236796
1.400709
1.296997
1.322627
1.345873
1.283884
1.473427
1.329780
1.305938
1.390576
1.430511
1.308918
1.285672
1.471639
1.414418
1.592636
1.545548
1.432896
1.554489
1.535416
1.592636
1.529455
1.616478
1.705885
1.746416
1.619458
1.689792
1.924634
1.903772
1.842976
1.750588
1.776814
1.784563
1.990795
1.779795
1.921654
1.992583
2.072453
1.896620
1.889467
2.092719
2.215505
2.261996
2.304912
2.338886
2.487898
2.307892
2.690554
2.791882
2.876520
3.307462
3.927946
4.451871
4.565716
5.277991
5.629659
8.122921
40.129423
244.480968
515.621901
969.707966
1015.772820
1015.772820
1015.772820
1015.772820
1015.772820
1015.772820
1015.772820
995.907784
727.557540
398.463011
215.517879
77.324510
29.232502
9.749532
7.567406
7.011890
6.912947
6.727576
6.674528
6.468892
6.551743
7.067919
8.325577
11.785626
15.232563
22.057891
27.580857
35.893917
##ZVALUE=370
1.296997
1.303554
1.290441
1.288652
1.277924
1.341701
1.216531
1.404881
1.271963
1.192689
1.313686
1.319647
1.197457
1.313686
1.253486
1.339912
1.335740
1.333952
1.522899
1.313686
1.301765
1.369715
1.455545
1.458526
1.414418
1.427531
1.475811
1.334548
1.605749
1.487732
1.438856
1.484752
1.580715
1.386404
1.414418
1.491904
1.686811
1.618862
1.692772
1.601577
1.688600
1.710653
1.687407
1.648664
1.731515
1.754761
1.882911
1.796484
1.873970
1.949668
2.071857
1.883507
1.986623
2.259612
2.271533
2.231598
2.371669
2.529621
2.732873
3.012419
2.940893
3.265738
3.543496
3.984571
4.482865
5.335808
15.338659
140.625834
361.828804
788.547993
1015.788913
1015.788913
1015.788913
1015.788913
1015.788913
1015.788913
1015.788913
1015.788913
854.799747
481.683016
273.696780
108.247399
46.815872
13.698936
7.951856
6.710887
6.540418
6.244779
6.071925
5.707741
5.982518
5.819798
6.293654
7.734895
9.390712
13.335943
##ZVALUE=375
1.249909
1.244545
1.242757
1.225471
1.134872
1.193881
1.174808
1.047850
1.169443
1.151562
1.039505
1.181960
1.195669
1.126528
1.290441
1.263618
1.212955
1.470447
1.206994
1.315475
1.264811
1.018643
1.094937
1.338720
1.085997
1.302958
1.281500
1.199841
1.321435
1.357794
1.276731
1.347661
1.351833
1.422763
1.200438
1.482964
1.292825
1.446605
1.433492
1.415610
1.384616
1.564622
1.497865
1.532435
1.562834
1.667738
1.712441
1.668930
1.708865
1.680851
1.819730
1.761913
1.737475
1.844764
1.845956
1.935959
2.242923
2.010465
2.274513
2.228618
2.234578
2.521873
2.595782
2.738833
2.965927
3.583431
3.826022
4.726648
6.760955
61.997771
209.019780
560.253859
932.448506
1015.788913
1015.788913
1015.788913
1015.788913
1015.788913
1015.788913
1015.788913
988.970995
608.238578
384.146571
190.771818
93.336701
28.048754
10.953546
6.405711
5.939603
5.868673
5.675554
5.383492
5.542636
5.158782
5.448461
5.666614
##ZVALUE=380
1.095533
1.043677
1.031756
1.194477
1.040697
1.081824
1.235604
1.029968
1.124740
1.028776
1.017451
1.041889
1.132488
1.140833
1.002550
0.960827
1.134872
1.103878
1.061559
1.116991
1.114607
1.036525
1.195669
1.228452
1.124740
1.178980
1.283884
1.300573
1.369715
1.404881
1.512766
1.321435
1.255870
1.525879
1.337528
1.171827
1.369715
1.353621
1.423955
1.326799
1.436472
1.370907
1.480579
1.467466
1.559854
1.501441
1.571774
1.464486
1.531839
1.641512
1.581907
1.644492
1.618862
1.740456
1.723766
1.815557
1.898408
1.837611
1.953840
2.243519
2.168417
2.188683
2.265573
2.490878
2.541542
3.069639
3.177524
3.429651
4.004836
4.745722
5.188584
25.189519
122.600794
426.871777
767.005682
1015.818715
1015.818715
1015.818715
1015.818715
1015.818715
1015.818715
1015.818715
1015.818715
776.907802
514.090657
251.518488
128.199458
42.814612
16.562939
7.073879
5.929470
5.389452
5.373955
5.128980
4.999638
4.610419
##ZVALUE=385
0.943542
1.033545
0.944734
0.853539
0.997782
0.947714
0.870824
0.999570
1.205802
1.082420
1.003742
1.052618
1.071692
1.088977
1.020432
0.952482
1.019835
1.077652
0.940561
1.059771
1.048446
1.027584
1.019835
1.075864
1.045465
1.170635
1.274943
1.269579
1.250505
1.073480
1.155734
1.184940
1.259446
1.171827
1.275539
1.341701
1.320839
1.323819
1.241565
1.366735
1.355410
1.343489
1.338720
1.441836
1.404881
1.518726
1.400709
1.449585
1.475811
1.508594
1.578927
1.503825
1.697540
1.657605
1.577735
1.616478
1.722574
1.830459
1.787543
1.824498
1.846552
1.851916
2.062917
2.088547
2.159476
2.499819
2.721548
2.830625
3.151894
3.546476
3.704429
3.765821
4.342794
8.659959
54.810643
268.406868
540.591478
979.754925
1015.788913
1015.788913
1015.788913
1015.788913
1015.788913
1015.788913
1015.788913
971.097946
680.977702
366.999507
208.825469
83.699822
32.693744
8.839965
5.770922
5.435944
5.193949
4.602671
##ZVALUE=390
0.974536
1.118779
0.876784
1.043677
1.178980
1.098514
0.970960
1.161695
1.151562
1.027584
1.088977
1.096725
1.109838
1.112819
1.117587
1.084805
1.041889
1.131892
1.054406
1.064539
0.987649
1.137853
1.086593
1.123548
1.077652
1.176596
1.064539
1.084805
1.348853
1.277924
1.149774
1.317859
1.125932
1.308918
1.258850
1.236796
1.251698
1.343489
1.415610
1.357794
1.475811
1.533628
1.502633
1.324415
1.289845
1.533628
1.408458
1.526475
1.414418
1.566410
1.649857
1.475811
1.651645
1.509786
1.627803
1.697540
1.650453
1.627803
1.885891
1.686811
1.824498
1.869798
1.999736
2.173781
2.277493
2.099872
2.411604
2.823472
2.846718
3.196597
3.297925
3.324747
3.527999
3.677607
3.805757
5.052686
21.804571
155.918598
379.582644
831.002593
1015.820503
1015.820503
1015.820503
1015.820503
1015.820503
1015.820503
1015.820503
1015.820503
872.961879
525.494814
306.010842
124.692917
53.676963
13.473630
6.524920
5.139709
##ZVALUE=395
1.009703
1.096725
1.107454
1.044869
0.988841
1.079440
1.101494
0.995994
1.043677
1.092553
0.977516
1.086593
1.021624
0.980496
1.051426
0.941753
1.172423
1.027584
0.967979
1.107454
0.922680
1.065731
1.116991
1.052618
1.155734
1.077652
1.087785
1.113415
1.214743
1.267791
1.408458
1.240969
1.237988
1.377463
1.360774
1.166463
1.278520
1.413822
1.309514
1.341701
1.379848
1.249909
1.247525
1.427531
1.323819
1.413822
1.569986
1.464486
1.375675
1.528859
1.382828
1.596808
1.466870
1.461506
1.650453
1.688600
1.791716
1.747608
1.797676
1.694560
1.858473
1.685619
1.714826
1.751781
2.015829
2.138615
2.346635
2.663732
2.754927
2.810955
2.969503
3.126860
2.914667
3.029704
3.067851
3.261566
3.603697
4.206896
8.470416
88.767409
268.425345
669.438839
998.829007
1015.788913
1015.788913
1015.788913
1015.788913
1015.788913
1015.788913
1015.788913
991.702676
618.981719
391.086936
194.432735
90.236664
26.487708
##ZVALUE=400
1.001954
1.037717
0.934601
1.121759
1.005530
1.042485
1.012683
1.050830
1.089573
1.173615
1.055598
1.116991
1.088977
1.021624
1.022816
1.164675
1.037717
0.962615
1.078844
1.023412
1.186728
1.039505
1.144409
1.143813
1.193881
1.096725
1.098514
1.185536
1.118779
1.377463
1.135468
1.134872
1.222491
1.347661
1.303554
1.253486
1.287460
1.389980
1.343489
1.244545
1.280904
1.278520
1.421571
1.320839
1.287460
1.454949
1.425743
1.308918
1.502633
1.391768
1.462698
1.453757
1.290441
1.471639
1.491904
1.458526
1.498461
1.617670
1.751781
1.767874
1.906753
1.869798
2.040863
1.985431
1.910925
2.128482
2.260804
2.430677
2.543926
2.526641
2.781749
2.812743
2.730489
2.595782
2.786517
2.917647
2.800822
3.323555
3.461838
4.282594
5.400777
47.271848
168.640614
460.170507
794.593692
1015.795469
1015.795469
1015.795469
1015.795469
1015.795469
1015.795469
1015.795469
1015.795469
729.557872
476.711988
240.743756
##END
