##TITLE=FQP00602
##FORMAT=SPECTACLE-ASCII V-1.2
##DATA TYPE=ULTRAVIOLET SPECTRUM
##SECOND TYPE=ULTRAVIOLET SPECTRUM
##DATE=11/28/17
##TIME=14:18:38
##SPECTROMETER/DATA SYSTEM=SPECTACLE
##XUNITS=NM EM
##YUNITS=ENERGY
##YFACTOR=1
##FIRSTX=220
##LASTX=410
##NPOINTS=96
##3DDATA=Equidistant
##ZUNITS=NM EX
##FIRSTZ=210
##LASTZ=400
##ZPOINTS=39
##XYDATA=(Y..Y)
##ZVALUE=210
8.422732
9.149909
7.873774
6.498694
5.602837
5.650520
6.209612
6.559491
5.642772
6.031990
6.688833
6.329417
6.576777
6.825924
6.712675
7.067919
7.942915
9.471774
9.965897
9.942651
11.020899
10.953546
14.054775
12.533665
14.554858
15.105605
16.229749
17.482638
19.207597
19.545555
19.955635
19.283891
22.956729
20.687580
21.199584
20.580888
22.006631
21.616817
22.145510
23.309588
24.285913
23.883581
24.533868
26.210546
26.094913
27.054548
24.562478
25.559664
28.582811
27.569532
28.656721
28.173923
32.077432
27.592778
29.237866
28.817654
31.811595
31.826496
32.110810
30.594468
31.722784
30.642748
32.673478
31.330585
33.854842
36.692619
36.822557
38.686991
42.225718
50.484538
59.827566
72.636604
91.097951
95.080733
112.399459
113.907456
121.274590
123.155713
115.479827
111.586452
105.257630
99.630952
88.446736
78.609586
67.937970
56.152940
44.728518
41.103959
33.719540
32.332540
30.709505
30.916929
30.530691
31.321645
33.062696
34.422874
##ZVALUE=215
34.381747
31.744838
28.701425
20.305514
17.075539
13.254881
9.685755
9.333491
9.641647
9.715557
9.445548
8.564591
7.781982
7.373691
7.039905
7.050633
7.831454
6.898642
8.075833
7.712841
8.619428
10.196567
9.558797
9.617805
11.041760
13.535619
13.047457
13.867617
15.542507
15.835762
15.756488
15.721917
17.824769
17.405748
16.124845
17.245412
18.117428
18.631816
18.776655
18.622875
18.383861
17.501712
19.840598
19.580722
18.907785
20.975471
20.274520
20.119548
19.826889
20.306706
19.753575
20.713806
21.350980
23.541451
23.973584
22.376776
23.256540
22.006631
24.440885
22.688508
22.952557
22.143722
23.323894
23.842454
23.227930
25.233626
26.880503
28.513670
30.093789
36.229491
39.379001
49.084425
54.298639
63.870549
69.934726
73.314905
72.378516
72.505474
72.386861
69.184899
66.607594
61.272979
52.363873
48.696995
42.663813
33.161640
33.452511
28.155446
26.764870
23.815632
24.744868
22.325516
22.417903
22.838712
22.044778
22.273660
##ZVALUE=220
88.293552
87.190866
95.676780
91.652870
80.255866
63.365698
51.101446
30.026436
22.762418
18.020868
17.806888
17.386675
17.469525
15.921593
13.038516
11.550784
9.360909
8.313656
7.357597
7.847548
7.068515
8.445978
10.349751
9.507537
10.150671
11.904836
12.617707
12.244582
12.345910
14.206767
13.811588
15.912652
15.053749
14.430881
16.126633
15.358925
17.094612
16.224980
17.385483
16.846657
16.980767
16.315579
17.236471
16.979575
17.716885
18.921494
20.076632
17.610788
17.856956
19.443631
19.297600
19.076467
21.294951
21.338463
21.082759
20.522475
21.007657
19.918680
23.222566
21.787882
22.358894
22.440553
22.614598
22.184849
23.273826
23.363829
24.974942
24.759769
26.450753
31.562448
36.536455
41.403770
46.032667
55.248737
60.891509
65.350533
69.121718
69.482923
70.055723
65.766573
63.795447
64.149499
59.618950
53.275824
50.059557
37.674904
32.644868
26.134849
24.712682
24.262667
22.954941
22.502542
22.441745
22.953749
22.602677
19.844770
##ZVALUE=225
114.776492
120.765567
160.546899
219.416618
240.801573
241.702795
223.613977
166.342854
121.304989
82.257986
47.905445
36.291480
31.417608
31.546950
30.617714
28.612614
25.881529
20.227432
17.687678
13.277531
11.787415
9.802580
9.385943
9.157658
9.722710
10.830760
12.169480
12.210608
14.514923
14.095902
14.407635
14.456511
15.315413
16.495585
16.937852
16.969442
17.343760
18.145442
17.684698
18.579960
19.447803
17.883778
19.043684
17.410517
18.636584
19.422770
20.861626
20.340681
20.145774
21.636486
20.925999
21.014810
21.515489
22.315979
22.476912
21.852851
23.238659
23.743510
23.805499
24.016500
25.441647
26.396513
25.173426
26.738644
25.373697
27.604699
26.898980
27.767420
31.539798
34.938455
39.970875
42.990446
50.667524
57.824850
61.893463
69.628954
73.070526
76.012611
73.373914
72.282553
71.660876
68.261623
61.053634
53.496957
48.942566
41.581988
39.202571
32.851696
31.112432
26.854873
26.347637
26.664734
24.408698
24.937987
25.686622
26.212931
##ZVALUE=230
67.245960
78.767538
137.999654
254.924893
353.447795
487.151742
542.191863
568.532944
519.927740
437.796712
293.961763
196.991563
99.765658
69.490671
53.148866
53.073764
53.707957
52.918792
51.862001
42.280555
33.013821
24.766922
19.518733
14.832616
13.266802
12.197495
13.233423
14.041662
15.065670
16.161799
16.535521
16.665459
17.354488
17.392635
17.764568
18.354654
18.141866
20.111799
21.637678
21.469593
20.292997
20.843744
21.564960
22.497773
21.858811
23.139715
25.177598
23.712516
23.988485
25.184751
27.105808
25.843978
27.738810
29.355884
29.431581
27.017593
29.872656
26.833415
30.243993
30.650496
29.811859
30.136704
32.791495
29.699802
30.815601
33.926964
34.810901
37.278533
38.372874
42.333603
45.443773
55.372715
60.893893
71.116686
75.163841
84.013939
87.439418
88.919997
90.047717
81.081986
83.652735
76.270700
73.882937
62.818527
57.427883
48.959851
44.364929
40.104985
37.360787
35.351515
34.184456
32.891631
32.699704
31.028986
33.213496
31.958818
##ZVALUE=235
15.411973
18.686652
46.462417
130.503774
242.233872
440.653563
629.167557
893.380642
1015.788913
1015.788913
1015.788913
880.304575
609.646440
437.215567
255.705714
155.872703
92.601776
82.883835
87.785721
92.532635
81.566572
71.801543
55.642724
43.862462
33.410788
25.992990
20.633936
18.906593
17.461777
15.871525
18.903613
18.226504
18.035769
19.136667
18.974543
18.026829
19.424558
21.028519
21.242499
21.329522
23.093820
24.389625
23.190975
24.761558
24.832487
26.091933
27.537942
26.833415
27.021766
28.394461
29.343963
31.020641
30.533671
31.027794
32.318830
33.389926
32.590628
34.629703
33.167601
34.976602
34.706593
33.790469
35.189986
35.801530
35.485625
36.605000
36.926866
40.957928
41.720867
45.964718
48.899651
56.208968
61.826706
73.805451
79.814792
83.304644
85.150599
88.045597
86.526871
83.203912
82.486868
73.281527
71.125627
61.474442
57.580471
51.907897
45.672655
44.746995
42.847991
39.556623
39.705634
39.035678
40.613413
40.986538
38.244724
38.358569
##ZVALUE=240
3.570914
3.804564
7.841587
25.139451
59.706569
162.350535
302.687883
598.650575
913.916826
1015.788913
1015.788913
1015.788913
1015.788913
1015.788913
990.049839
723.804832
409.487486
255.953670
138.119459
107.984543
107.300878
118.823647
115.884542
102.610588
89.978576
70.589781
55.579543
38.111806
29.159784
23.159981
20.118952
20.441413
18.118620
19.334555
19.504428
19.645691
20.942688
21.131635
19.588470
22.182465
24.192929
24.389625
23.295879
24.168491
26.442409
25.579929
28.945804
29.523969
31.374693
31.901598
30.743480
32.238960
31.791925
34.184456
34.910440
35.444498
33.165812
34.504533
34.326911
34.754872
37.255883
36.504865
37.636757
39.628744
39.573908
38.143992
39.174557
41.147470
45.615435
49.883723
51.480532
56.821704
63.276887
71.032643
77.740550
79.605579
82.041621
82.292557
79.062581
76.536536
74.468851
66.746473
63.142776
57.586432
53.829551
52.577853
47.070980
46.241879
46.961904
44.824481
42.468905
43.769479
43.375492
40.544868
42.970777
40.407777
##ZVALUE=245
3.267527
3.505945
3.054738
3.069639
6.380677
15.714765
55.405498
125.852823
327.926874
561.752915
975.499749
1016.008854
1016.008854
1016.008854
1016.008854
1016.008854
1016.008854
931.204557
641.077757
328.595638
188.343525
130.293965
114.107728
121.668577
127.822757
128.072500
114.240646
98.769665
76.554418
60.572624
48.241615
31.779408
23.312569
19.252896
18.627644
18.916726
19.178987
18.934608
18.697977
19.797683
21.323562
20.352602
21.302700
23.044944
25.060773
26.462674
28.274655
28.000474
28.316975
28.872490
31.532645
31.357408
32.000542
32.842755
33.142567
32.044649
32.905936
32.203794
31.875968
32.977462
34.412742
33.107996
32.387972
34.855604
33.177733
35.641789
35.436749
36.310554
37.453771
41.394830
44.986606
46.414733
52.311420
58.521628
60.469508
64.704418
62.548518
65.186620
62.539577
59.259534
57.673454
54.668784
52.513480
46.814680
46.085715
41.062832
41.590929
41.399598
40.386915
39.416552
39.979815
39.118528
37.612915
37.295818
37.747622
37.087798
##ZVALUE=250
2.491474
2.643466
2.843738
2.772808
2.689958
2.948642
4.113913
11.071563
35.804510
87.714791
240.696669
453.864932
862.685442
1015.788913
1015.788913
1015.788913
1015.788913
1015.788913
1015.788913
1015.788913
891.174674
480.417609
273.176432
141.339898
109.032989
118.453503
130.722523
136.879683
135.443807
117.462873
106.044412
78.704953
61.205626
40.561557
29.174685
22.345781
18.457770
16.392469
16.774535
16.397834
17.061830
19.699931
18.892884
20.303726
21.639466
23.296475
23.620725
25.199652
25.227666
26.797652
26.536584
26.128888
27.390718
26.728511
28.604865
28.461814
27.152896
28.862953
28.623939
28.893948
27.899742
28.117895
28.686523
29.599667
29.826760
28.423667
29.199719
28.620958
30.867457
32.718778
35.309792
40.029883
40.148497
45.237541
47.455430
49.472451
49.618483
47.732592
49.106479
47.376752
42.877793
43.480992
40.087700
40.028691
36.318898
35.114884
34.849644
34.273863
34.164786
32.858849
32.102466
33.266544
32.684803
31.556487
32.538772
31.617880
##ZVALUE=255
2.450943
2.204776
2.162457
2.908707
2.449751
2.883673
2.654791
2.840757
3.153682
6.917715
30.065775
78.301430
168.394446
387.365818
633.324981
1015.698910
1015.788913
1015.788913
1015.788913
1015.788913
1015.788913
1015.788913
942.528844
597.636700
289.448500
171.005726
106.514692
104.049444
120.500922
136.633515
143.855810
141.173601
128.200650
104.687810
84.950924
59.260726
43.686628
29.746890
21.844506
17.071962
16.762614
16.644597
16.778708
18.073916
18.653870
20.275712
18.714666
21.308661
22.163987
22.818446
22.656918
22.808909
23.782849
23.380518
23.976564
23.793578
24.622679
23.702979
24.378896
23.563504
23.461580
21.845698
23.285747
23.958683
22.472739
23.982525
23.752451
24.536848
25.233626
28.322935
28.464794
31.545758
33.119917
35.562515
35.059452
36.704540
36.834478
38.401484
36.613941
35.243630
35.716891
34.160614
33.332705
31.636953
31.737685
31.825900
31.025410
29.674768
30.003786
30.242801
29.299855
29.080510
28.392673
28.098822
28.068423
29.790998
##ZVALUE=260
1.874566
2.130866
2.103448
2.155900
2.090931
2.440810
2.031922
2.406836
2.482533
2.714992
2.845526
3.897548
15.230775
43.123960
122.559667
245.741606
522.602797
803.623796
1015.788913
1015.788913
1015.788913
1015.788913
1015.788913
1015.788913
1015.788913
739.774108
461.548567
216.571689
125.024915
89.228749
98.198652
123.010874
137.001872
148.363709
145.524740
130.982995
111.875534
81.268549
64.245462
41.948557
31.458735
20.772815
17.586946
16.246438
15.867949
17.032623
17.743707
17.687678
18.399954
18.532872
18.750429
18.928647
19.346476
19.110441
19.660592
20.621419
19.504428
20.183921
19.257665
19.587874
18.694997
19.445419
18.970966
19.056797
18.898845
18.885732
20.173788
20.184517
20.124912
22.671819
22.729635
24.633408
25.595427
27.558804
28.758645
28.850436
30.086637
30.653477
29.407740
29.115677
29.799938
27.922988
28.506517
26.405454
25.163889
25.528669
26.324987
25.238991
26.128888
24.773479
25.952458
26.204586
24.272799
26.417971
24.905801
25.645494
##ZVALUE=265
1.892447
1.849532
1.850724
1.917481
1.967549
2.078414
2.048612
2.049804
2.389550
2.649426
2.499819
2.845526
2.903938
3.410578
6.559491
34.182668
82.731843
208.145976
374.916792
747.689009
1015.788913
1015.788913
1015.788913
1015.788913
1015.788913
1015.788913
1015.788913
959.215760
525.002480
309.366584
180.140734
92.096925
83.276629
107.987523
124.110579
143.873692
151.311755
145.171881
132.198930
108.067989
87.970495
60.772896
43.869615
28.660893
21.913648
17.317533
16.980767
16.400814
15.744567
16.334653
16.899705
16.462803
17.245412
17.092824
16.514659
17.226934
16.982555
16.312599
17.202497
15.825629
15.943646
15.601516
16.025901
15.667677
16.408563
15.990734
16.578436
17.119646
18.147826
19.214749
19.929409
21.746755
22.301674
24.812818
25.285482
25.178790
26.200414
26.119947
25.897622
25.189519
24.194717
24.499893
24.150610
23.923516
23.862720
23.077726
23.418665
22.941828
23.421645
22.369623
22.991896
23.582578
23.476481
23.440719
23.332834
22.403598
##ZVALUE=270
1.852512
2.103448
1.751781
1.958609
2.011657
2.024770
2.058744
1.988411
2.085567
2.281666
2.389550
2.649426
2.576709
2.508759
2.703667
3.181696
3.735423
17.090440
50.280690
159.952641
298.879743
508.333445
929.984450
1015.934944
1015.934944
1015.934944
1015.934944
1015.934944
1015.934944
1015.934944
712.822080
429.167747
233.348608
102.830529
71.220994
81.457496
101.999640
128.948689
143.950582
150.521994
145.503879
129.852891
113.995671
84.810853
63.619614
43.471456
31.042695
20.948648
17.953515
15.905499
14.980435
15.070438
15.218854
15.019774
14.849901
14.873743
14.936924
14.885664
14.589429
15.244484
14.848709
14.615655
14.713407
15.672445
15.053749
15.410781
16.505718
15.846491
16.899705
17.534494
18.944740
19.726753
20.876527
21.327734
22.833943
22.536516
23.571849
22.701621
22.872686
23.476481
22.434592
22.749901
22.016764
22.152662
21.891594
21.748543
21.284819
23.050904
22.095442
22.035837
22.281408
22.582412
22.434592
22.282600
22.037625
22.150874
##ZVALUE=275
1.573563
1.504421
1.698732
1.734495
1.818538
1.575947
1.693964
1.949668
1.777411
2.029538
1.890659
2.115965
2.147555
2.228618
2.208948
2.330542
2.561808
2.459884
2.915859
7.409453
31.560659
89.500546
246.454477
436.160564
798.603892
1015.788913
1015.788913
1015.788913
1015.788913
1015.788913
1015.788913
1015.788913
907.730460
493.071675
287.861824
125.164986
71.821809
58.781505
76.284409
104.419589
122.390985
144.698620
148.081779
143.744946
132.278800
105.311871
86.903572
62.567592
46.915412
30.128956
22.768974
17.032623
14.966726
13.538599
13.550520
13.734698
13.170838
13.475418
12.905598
14.591813
14.126897
14.642477
13.606548
14.445782
14.294982
14.698505
14.549494
15.882850
15.664697
16.405582
17.771721
18.054843
19.674897
20.343661
20.608902
20.624995
21.159649
21.015406
21.396875
21.552444
21.417737
20.796657
20.892620
20.636916
20.852685
20.758510
19.935966
20.205975
20.574927
19.979477
20.339489
19.958615
20.299554
20.627975
20.775795
19.750595
##ZVALUE=280
1.460910
1.339912
1.523495
1.521707
1.482964
1.430511
1.499653
1.591444
1.569986
1.501441
1.782775
1.790524
1.733899
1.996756
2.201796
2.023578
1.994967
2.370477
2.453923
2.619624
2.754927
3.696680
23.766756
74.182749
143.116713
365.042686
580.799580
923.634768
1015.788913
1015.788913
1015.788913
1015.788913
1015.788913
1015.788913
929.217935
547.385812
331.290960
149.380565
78.587532
45.938492
52.043796
77.046752
97.129941
121.617913
137.169957
144.978762
139.279962
126.695633
110.732913
81.170797
63.769817
41.727424
30.517578
20.727515
16.042590
13.184547
12.760758
13.150573
13.077855
12.912750
13.448000
13.102889
13.691783
14.518499
14.045835
14.369488
14.981627
15.110970
15.601516
16.269684
16.768575
17.254949
18.732548
18.622875
19.518733
19.599795
20.453930
19.658804
19.829869
19.979477
20.273924
19.877553
19.354820
19.472837
20.113587
20.301938
19.128919
19.697547
19.286871
19.797683
20.069480
19.501448
19.767880
19.639730
19.770861
19.105673
##ZVALUE=285
1.351833
1.438856
1.433492
1.425743
1.296997
1.356602
1.312494
1.601577
1.431704
1.704693
1.532435
1.456738
1.603961
1.685619
1.669526
1.699924
1.784563
2.044439
1.834631
2.024770
2.382994
2.309680
2.772808
2.959967
9.259582
34.811497
117.161870
234.058499
477.091670
704.542994
926.007032
1015.788913
1015.788913
1015.788913
1015.788913
1015.788913
999.060869
669.479966
428.267717
207.871795
110.876560
47.214627
36.058426
53.452849
69.843531
96.960664
114.467740
131.606460
138.478875
137.951970
126.949549
105.518699
87.874532
62.271953
45.949817
28.567910
20.669699
16.081929
13.368726
12.876987
12.914538
13.042688
13.564825
13.127923
13.647676
13.893843
14.555454
14.825463
15.026927
16.683936
16.542673
16.918778
18.134713
17.987490
18.558502
19.285679
19.021630
19.607544
19.348860
19.034743
19.300580
18.838644
19.596815
19.283891
19.011497
19.950867
18.982887
18.711686
18.755794
19.142628
19.038916
18.546581
18.778443
18.631816
18.526912
18.791556
##ZVALUE=290
1.328588
1.330972
1.410842
1.275539
1.177788
1.382828
1.179576
1.407862
1.402497
1.462698
1.272559
1.477599
1.558661
1.826882
1.475811
1.477599
1.629591
1.718998
1.849532
1.583695
1.703501
1.820922
2.080798
2.318621
2.396703
2.634525
3.763437
14.143586
70.303679
155.892968
283.041596
552.835464
805.115700
1015.790701
1015.790701
1015.790701
1015.790701
1015.790701
1015.790701
742.930770
503.789783
259.980559
140.551925
55.992603
30.613542
32.860637
44.574738
66.449642
85.548759
110.503435
123.332739
133.556724
132.690668
120.630860
105.694532
79.562664
61.645508
43.085814
30.761957
20.572543
15.791655
13.645887
12.971759
13.079643
12.599826
13.642907
13.895631
14.465451
15.095472
15.983582
16.228557
16.383529
17.031431
18.197894
18.458962
18.988848
18.546581
18.493533
19.066930
19.379854
18.853545
19.022822
18.379688
19.460917
19.083619
19.327998
19.639730
18.724799
19.491911
18.348694
18.106699
19.084811
18.915534
18.965602
18.070936
18.374920
##ZVALUE=295
1.150966
1.184940
1.290441
1.221895
1.351833
1.198649
1.216531
1.345873
1.332760
1.237988
1.331568
1.272559
1.469851
1.280904
1.375675
1.423955
1.547933
1.589656
1.560450
1.349449
1.507998
1.587868
1.758933
1.828671
1.867414
2.022982
2.201796
2.342463
2.735853
5.531907
24.408698
100.649595
217.991471
468.316674
709.753633
1006.563902
1015.779972
1015.779972
1015.779972
1015.779972
1015.779972
793.560743
562.862754
306.503773
172.308683
66.785812
32.732487
21.550655
27.850866
43.467879
57.793856
83.029866
101.818442
118.608475
127.380490
125.943422
116.473436
98.230839
81.973672
57.894588
43.247938
29.141903
21.822453
16.666651
14.025569
13.729930
13.098717
13.629794
14.677644
15.357733
15.661716
16.591549
17.092824
17.857552
18.245578
17.494559
18.423796
19.050837
18.182993
19.154549
18.858910
19.011497
19.591451
18.524528
18.974543
19.058585
19.085407
19.308925
18.870831
19.313693
18.825531
19.090772
18.569827
18.157959
17.856956
17.764568
##ZVALUE=300
1.120567
1.330972
1.203418
1.318455
1.221895
1.213551
1.307726
1.198649
1.207590
1.145601
1.102686
1.291633
1.280904
1.257658
1.336932
1.428723
1.365542
1.436472
1.379848
1.401901
1.492500
1.575947
1.598597
1.702905
1.907945
1.820922
1.994967
2.084970
2.160668
2.430677
2.642870
3.295541
16.013980
57.536960
179.924965
322.915912
605.739951
857.344866
1015.788913
1015.788913
1015.788913
1015.788913
1015.788913
943.141580
618.859529
405.329466
209.120512
114.519000
43.816566
21.221638
19.355416
24.672747
39.915442
52.427649
76.634884
93.416572
114.262700
121.002793
120.828748
113.851428
95.601678
80.308914
59.300661
45.296550
30.031800
23.128986
17.756820
15.439987
15.148520
15.096664
15.662909
15.972853
17.420650
17.323494
17.621517
18.317699
18.723607
18.560886
19.067526
19.002557
19.177794
19.372702
19.093752
19.232631
19.575953
19.324422
19.127727
19.477606
19.008517
19.348860
19.393563
19.323826
18.578768
18.322468
18.025637
18.564463
##ZVALUE=305
1.171827
0.931621
0.984669
0.927448
1.075864
1.103878
1.165867
1.172423
1.214743
1.282692
1.263618
1.236796
1.280904
1.185536
1.320839
1.295805
1.315475
1.264811
1.271963
1.369715
1.460910
1.499653
1.525879
1.483560
1.520514
1.731515
1.676679
1.870990
1.828671
2.044439
2.058744
2.258420
2.443790
2.920628
6.273985
39.786696
107.532740
283.550620
482.011437
803.110600
1012.341976
1015.788913
1015.788913
1015.788913
1015.788913
982.740521
748.671889
451.375842
278.452635
130.118728
64.329505
24.562478
14.849901
17.342567
24.151802
38.264990
52.298903
73.669553
89.760423
107.328892
113.768578
115.724802
107.055902
92.680454
77.807903
57.521462
44.180751
29.876828
23.480654
18.782616
17.024875
16.988516
16.864538
17.445683
17.500520
18.460751
18.382668
18.623471
18.731952
19.163489
19.519925
20.235777
20.016432
19.982457
20.025969
20.344853
20.178556
20.138621
19.559860
19.843578
19.143820
19.508600
18.744469
18.692613
18.669963
18.645525
##ZVALUE=310
1.090765
1.185536
1.225471
0.992417
1.111627
1.169443
1.096725
1.115799
1.005530
1.067519
1.082420
1.075864
1.138449
1.157522
1.224875
1.206994
1.302958
1.276731
1.309514
1.375675
1.343489
1.320839
1.266599
1.686811
1.550913
1.661777
1.593828
1.671910
1.791716
1.739860
2.151728
1.918674
1.887679
2.314448
2.247691
2.502799
3.129840
17.472506
58.966875
187.140703
342.465043
639.247894
891.548991
1015.791893
1015.791893
1015.791893
1015.791893
1015.791893
936.321616
610.017776
399.900675
197.538733
103.162527
37.646890
17.893910
13.065934
16.029477
23.173690
31.864643
48.902631
64.466000
84.849596
99.258423
109.155774
110.453963
103.012919
93.201995
75.374842
60.938597
43.142438
33.627748
25.276542
21.393895
18.392801
18.213987
18.179417
18.215775
19.013882
18.884540
19.099712
19.638538
19.903779
20.277500
20.413995
20.498633
20.296574
20.639896
21.016598
20.458698
20.082593
20.110607
19.726753
19.602776
19.623637
19.477606
19.168854
##ZVALUE=315
1.077652
0.963807
1.075864
0.918508
0.925660
1.088977
0.963807
0.933409
1.077652
1.160502
1.165867
1.117587
1.119971
1.025796
1.026988
1.159906
1.009703
1.131892
1.223683
1.149774
1.235604
1.222491
1.383424
1.399517
1.393557
1.362562
1.503825
1.488924
1.408458
1.599789
1.574755
1.729727
1.763701
1.791716
1.881719
1.963973
2.121925
2.205968
2.952814
6.153584
39.346814
103.502870
269.532800
457.288623
780.850649
1002.488732
1015.730500
1015.730500
1015.730500
1015.730500
993.415713
780.241489
481.458902
297.647715
134.060979
63.161850
20.733476
12.051463
11.962652
14.625788
21.955967
30.302405
45.549870
58.988929
80.532432
92.726946
103.544593
105.189681
98.959804
88.267922
71.590543
59.599876
44.025779
34.216642
25.709867
22.160411
19.907951
19.345880
19.077659
19.277930
19.908547
19.922853
21.163821
20.707846
20.857453
21.117926
20.741820
20.792484
21.431446
21.358728
20.758510
20.297766
20.613670
20.259619
20.576715
19.831657
##ZVALUE=320
1.012683
1.032948
1.042485
0.982881
1.092553
1.255870
0.911951
0.965595
1.142621
1.058578
1.035929
1.112819
1.160502
1.174808
1.104474
1.088977
1.075864
1.099706
1.206994
1.248717
1.145601
1.081824
1.145601
1.271963
1.034737
1.396537
1.448989
1.400709
1.415610
1.498461
1.531839
1.559854
1.672506
1.708865
1.636744
1.811981
1.858473
1.919866
2.180934
2.352595
2.576709
3.545880
14.438629
73.724985
170.135498
394.836664
604.683757
901.921988
1015.788913
1015.788913
1015.788913
1015.788913
1015.788913
892.855525
647.915602
352.406502
198.794603
83.924532
38.592815
14.303923
11.104941
12.224913
14.181733
20.385981
27.906895
42.124987
55.660605
72.660446
86.369514
97.146630
100.903511
95.702410
86.617470
71.681738
58.031678
43.205619
34.541488
26.997924
23.419857
20.871758
19.810796
20.140409
20.664930
21.023750
20.783544
20.798445
21.067858
20.534992
21.132827
20.867586
21.284819
20.847917
20.473599
20.744801
20.025969
19.803643
##ZVALUE=325
1.076460
1.106858
0.992417
0.979900
1.032948
0.975728
1.051426
1.001954
0.947714
1.049638
1.066923
1.078844
0.983477
0.986457
1.142621
1.073480
1.119971
1.260638
1.100898
1.098514
1.120567
1.097918
1.159906
1.290441
1.131892
1.228452
1.366735
1.255870
1.334548
1.456738
1.460910
1.411438
1.456738
1.298785
1.614690
1.690984
1.791716
1.775622
1.746416
2.106428
2.078414
2.380610
2.309680
2.734661
7.834435
50.193667
121.319890
279.113650
464.133620
785.340667
999.890566
1015.790701
1015.790701
1015.790701
1015.790701
966.903567
726.637840
439.214706
262.548923
113.634467
53.546429
19.372702
11.733770
10.716915
11.387467
14.575720
19.682646
28.892756
39.622784
57.442784
70.318580
84.828734
92.223883
94.811916
91.230869
80.341697
68.986416
53.427815
44.304729
32.421947
27.239919
23.469925
21.459460
20.718575
20.664930
20.324588
20.800829
20.594597
20.771623
20.701885
20.624995
20.144582
19.823909
20.267963
19.916892
20.486712
##ZVALUE=330
0.898838
1.010895
0.918508
1.091957
0.978708
1.055598
1.004934
0.798702
0.966787
0.973940
0.895858
0.984669
1.057982
1.048446
1.091957
1.133680
0.982881
1.119971
0.984669
1.208782
1.098514
1.204610
1.037717
0.857711
1.201630
1.269579
1.183748
1.160502
1.496673
1.270771
1.368523
1.341701
1.293421
1.547933
1.392961
1.416802
1.434684
1.625419
1.472831
1.729727
1.825690
1.856685
2.054572
2.083778
2.325773
2.522469
8.748770
21.844506
123.094916
178.943872
584.769845
618.761778
921.651721
1015.788913
1015.788913
1015.788913
1015.788913
1015.788913
703.928471
545.027852
247.829556
159.450769
34.601688
32.073855
12.033582
10.538697
11.097789
12.192726
15.876889
20.500422
28.717518
38.888454
54.942966
67.711473
81.354976
88.430643
89.658499
85.386634
76.244473
65.871477
52.126646
42.514801
32.572746
27.591586
23.677945
22.006631
20.773411
20.360947
20.096898
20.305514
20.048618
19.844770
19.642711
19.473433
19.606948
19.914508
##ZVALUE=335
0.944734
0.885725
0.941753
0.982881
1.056790
0.749826
0.868440
1.018643
0.920892
0.842810
1.041889
0.981688
1.011491
0.908971
1.026988
1.099706
1.148582
1.191497
1.176000
1.180768
1.050830
0.973940
1.031756
1.340508
1.104474
1.277924
1.230836
1.133680
1.357794
1.355410
1.289845
1.271963
1.361966
1.328588
1.245737
1.485944
1.318455
1.540780
1.612902
1.436472
1.409650
1.736879
1.646876
1.935959
1.843572
2.122521
2.117753
2.551675
3.040433
10.255575
37.085414
129.264593
250.207782
498.763919
735.100508
1015.788913
1015.788913
1015.788913
1015.788913
1015.788913
973.090529
648.764968
435.522795
230.160952
121.560693
44.201612
19.687414
11.152625
10.746717
11.596680
12.759566
15.541911
20.044446
28.986931
38.244724
53.151846
64.331889
76.321959
83.017945
85.749626
81.357956
71.972609
63.756704
50.998926
41.968822
33.659935
27.978420
24.117827
21.853447
20.360947
19.397736
19.016862
19.263625
18.818974
19.398928
19.296408
##ZVALUE=340
0.995994
0.882745
0.920892
0.856519
1.066923
0.867844
0.922680
1.037717
0.966787
1.073480
1.055598
0.903606
1.006722
1.041889
1.013875
1.039505
0.879765
1.032948
0.834465
0.997782
1.006722
1.185536
1.062751
1.094937
0.990629
1.063943
1.300573
1.167655
1.105666
1.286864
1.248717
1.090765
1.272559
1.265407
1.201630
1.339912
1.295805
1.381636
1.568794
1.553893
1.379848
1.541972
1.484752
1.370907
1.620650
1.869798
1.906753
1.948476
2.067685
2.288818
2.521873
4.634857
18.842816
84.470510
185.624957
409.771800
633.816719
936.537981
1015.788913
1015.788913
1015.788913
1015.788913
1015.788913
776.124597
544.086695
286.201835
156.562924
59.224963
25.616884
12.330413
11.420846
11.591911
11.858940
13.479590
15.455484
20.616651
27.002692
37.375689
47.651529
62.402487
70.927739
78.528523
80.779791
77.630877
71.402788
59.652925
51.462650
40.838718
33.709407
26.514530
22.501945
19.929409
19.309521
18.483996
18.143654
18.142462
##ZVALUE=345
0.930429
0.949502
0.792742
1.018643
0.882745
0.830889
0.953674
0.972748
0.948906
0.838637
1.037717
0.908971
0.878572
1.030564
1.176596
0.916719
0.955462
1.043677
0.965595
1.016855
1.025796
1.116991
1.137853
1.097918
1.128912
1.002550
0.990629
1.041889
1.153946
1.105666
1.017451
1.152754
1.101494
1.354814
1.197457
1.227856
1.250505
1.234412
1.341701
1.302958
1.489520
1.372695
1.448989
1.515746
1.380444
1.507998
1.462698
1.620650
1.662970
1.833439
1.932979
2.098680
2.316833
2.890825
8.534789
51.088929
125.871897
293.455720
482.690930
790.662766
996.636748
1015.775800
1015.775800
1015.775800
1015.775800
869.343877
638.426542
372.830629
210.583806
83.955526
38.744807
15.758872
11.638999
11.356473
11.596680
11.867881
13.072491
15.436411
18.952489
26.197433
34.193993
47.221780
55.421591
66.059828
70.634484
74.694753
73.350668
65.850616
59.609413
49.210787
40.506721
31.513572
25.847554
21.128654
19.865632
18.255711
##ZVALUE=350
0.956655
1.041889
0.956655
0.984669
1.069903
0.929832
0.981688
0.946522
0.963807
1.071692
1.036525
1.021624
0.952482
1.075864
0.956655
0.953674
1.038909
1.015663
1.135468
0.983477
1.076460
1.045465
1.075864
1.133680
1.181960
1.050830
1.102686
1.041889
0.991821
1.141429
1.020432
1.219511
1.149774
1.067519
1.137853
1.344681
1.164675
1.296997
1.287460
1.265407
1.392961
1.286864
1.354814
1.382828
1.582503
1.391768
1.473427
1.658797
1.662970
1.459718
1.690984
1.973510
1.836419
2.047420
2.172589
2.642870
4.410744
26.655793
75.318813
206.264853
360.365510
634.153485
858.382583
1015.795469
1015.795469
1015.795469
1015.795469
960.673690
728.351474
441.361666
265.242457
117.732882
56.328773
18.391609
11.421442
10.930896
10.623932
11.193752
11.568666
12.667775
14.596581
18.830895
23.582578
32.177567
39.710999
50.938725
57.984591
65.993667
68.566799
67.140460
62.548518
53.348541
46.560764
37.384629
30.687451
24.910569
##ZVALUE=355
0.959635
0.935793
0.854731
0.935793
1.011491
0.875592
0.820756
0.851750
0.953674
0.976920
0.959635
1.002550
1.051426
0.942945
1.043677
0.937581
1.045465
1.095533
1.034737
0.929832
1.088977
1.020432
0.980496
1.058578
1.117587
0.996590
1.047850
0.912547
1.170635
0.983477
1.104474
1.079440
1.046658
1.168847
1.061559
1.260638
1.253486
1.137853
1.298785
1.291633
1.111627
1.290441
1.316667
1.304746
1.311898
1.342893
1.449585
1.442432
1.446605
1.439452
1.550913
1.719594
1.741648
1.950860
1.952648
1.881719
2.217889
2.548695
2.982616
13.342500
44.944882
143.901706
268.381834
504.895449
728.127956
1004.263759
1015.788913
1015.788913
1015.788913
1005.962491
820.459723
533.883572
337.879658
149.655938
71.740746
24.149418
12.430549
10.169744
10.393858
10.679960
10.619760
11.183619
12.138486
13.807416
16.440749
21.861792
27.665496
36.245584
43.598413
52.320957
58.281422
61.783791
61.447620
56.815743
51.646829
43.083429
##ZVALUE=360
0.992417
0.966787
0.875592
0.841618
0.831485
0.870824
0.991821
0.898838
0.955462
0.989437
0.987649
0.988841
1.100898
1.086593
1.020432
0.881553
0.945926
0.930429
1.134872
1.124740
1.013875
1.022816
1.074672
1.081824
1.135468
1.077652
1.090765
1.072884
1.181960
1.160502
0.967979
1.145601
1.165867
1.236796
1.018643
1.201630
1.217723
1.165867
1.064539
1.300573
1.240969
1.280904
1.260638
1.421571
1.377463
1.219511
1.481771
1.263618
1.445413
1.561642
1.588464
1.617670
1.507998
1.668930
1.634955
1.928806
1.955628
2.080798
2.247691
2.590418
2.741814
5.405545
20.202994
79.786777
172.704458
379.636884
577.211976
854.460597
1015.795469
1015.795469
1015.795469
1015.795469
943.162441
630.211830
415.195823
199.443698
102.282763
38.445592
17.398596
9.759665
9.474754
9.762645
9.903908
9.890795
10.253787
10.983944
12.363791
14.641881
17.772913
23.120642
29.203892
38.936734
45.069456
51.954985
55.518746
56.781769
##ZVALUE=365
0.843406
0.892878
0.978708
0.937581
1.056790
1.048446
0.797510
0.971556
1.064539
0.866652
1.073480
1.073480
0.929832
0.973940
0.924468
0.979900
0.987649
0.920892
0.865459
0.937581
1.014471
1.151562
1.095533
1.131892
1.059771
1.179576
0.944734
1.128912
1.070499
1.075864
0.938773
1.060963
1.081824
1.192689
1.105666
1.145601
1.190901
1.205802
1.141429
1.165867
1.180768
1.298785
1.302958
1.225471
1.287460
1.211762
1.318455
1.408458
1.268983
1.376867
1.427531
1.456738
1.522899
1.603961
1.514554
1.703501
1.677871
1.613498
2.098680
2.044439
1.981854
2.470613
2.580881
3.107786
8.444786
46.451688
113.655925
278.939009
462.895036
746.763945
959.364772
1015.788913
1015.788913
1015.788913
998.160839
727.492571
506.977439
274.237990
151.115656
55.511594
23.803711
10.372996
8.937716
9.058714
9.128451
9.135604
9.197593
9.368658
9.754896
11.144876
12.511611
16.037822
19.586682
25.784969
32.173991
39.662719
##ZVALUE=370
0.970960
0.921488
0.897646
0.928640
0.794530
0.871420
0.815988
0.998974
0.997782
0.946522
0.873804
0.846982
1.059771
0.892878
0.989437
0.887513
0.938773
1.004934
0.946522
0.914931
0.995994
0.907779
0.976920
1.002550
1.014471
0.780821
0.974536
0.895858
0.927448
1.052618
0.956655
1.084805
1.081824
1.041889
0.998974
1.131892
1.042485
1.054406
0.921488
0.942945
1.124740
1.017451
1.108646
1.236796
0.983477
1.266599
1.100898
1.151562
1.194477
1.170635
1.283884
1.374483
1.406670
1.292825
1.381636
1.430511
1.298785
1.477599
1.568794
1.620650
1.658797
1.731515
1.852512
1.945496
2.118945
2.324581
4.378557
25.865436
75.522661
207.427740
360.756516
618.232489
833.699703
1015.728712
1015.728712
1015.728712
1015.728712
843.846798
613.871813
337.680578
187.627673
73.780417
33.655763
12.871623
8.781552
8.087754
7.945895
8.353591
8.553863
8.475780
8.805990
8.959770
9.654760
11.405945
13.133883
17.480850
##ZVALUE=375
0.794530
0.821948
0.737906
0.995994
1.071692
0.890493
0.848770
0.918508
0.922680
1.008511
0.785589
0.865459
1.015663
0.892878
0.921488
0.836849
1.040697
0.977516
0.905991
1.035929
0.990629
0.926852
0.970960
1.023412
0.858903
1.031756
0.896454
1.008511
0.853539
0.913739
0.859499
1.068711
1.080632
1.178980
1.072884
0.893474
1.033545
0.927448
1.077652
0.950694
0.964999
1.065731
1.047850
0.964999
1.158714
1.163483
1.000762
1.087785
1.267791
1.191497
1.201630
1.194477
1.136661
1.279712
1.168847
1.259446
1.360774
1.345873
1.392961
1.508594
1.547933
1.539588
1.566410
1.696944
1.658797
1.754761
2.003908
2.300739
2.781749
13.096929
43.582916
134.714842
257.997513
506.275892
724.219680
992.915034
1015.788913
1015.788913
1015.788913
949.949622
728.456974
435.427427
271.954536
133.314729
65.435767
21.729469
10.489821
7.660985
7.452965
7.370710
7.678866
7.473826
7.770658
8.060932
8.371472
9.077787
##ZVALUE=380
0.787973
1.024604
0.882745
0.852942
0.804663
0.910759
0.995994
0.830889
0.812411
0.848770
0.848770
0.914931
0.861883
0.904799
0.868440
0.919700
1.074672
0.868440
0.923872
0.850558
0.766516
0.986457
0.973940
0.826716
0.945926
0.879765
0.820756
0.925660
0.856519
0.938773
0.997782
0.983477
0.907779
1.147985
1.107454
1.035929
1.235604
0.941753
1.033545
1.101494
0.868440
0.910759
1.001954
0.992417
0.959635
1.070499
0.966787
1.145601
1.151562
1.134872
1.129508
1.043677
1.053810
1.062751
1.150966
1.395941
1.389980
1.319647
1.316667
1.289845
1.261830
1.264811
1.421571
1.453757
1.488924
1.726747
1.805425
1.863837
2.114773
2.314448
2.633929
6.237626
24.706721
98.091960
202.868581
420.547724
625.475645
904.029012
1015.788913
1015.788913
1015.788913
1009.899974
841.959715
574.988723
380.418897
182.666779
92.788935
31.823516
14.086962
7.775426
7.037520
6.939769
7.221699
7.022619
7.120967
7.464886
##ZVALUE=385
0.807643
0.944734
0.801682
0.800490
0.791550
0.848770
0.863671
0.840425
0.851750
0.895858
0.695586
0.886917
0.898838
0.918508
0.793934
0.885725
0.905991
0.763535
0.815988
0.900626
0.878572
0.883937
0.946522
0.908971
0.928640
0.910759
0.875592
0.852942
0.975728
0.992417
1.092553
1.017451
0.917912
1.085997
0.992417
1.038909
1.103878
0.952482
1.034737
0.907779
1.028776
1.204610
1.027584
1.038909
0.985861
1.005530
1.018643
1.042485
1.040697
1.040697
1.113415
1.108646
1.076460
1.128912
1.128912
1.232624
1.254678
1.230836
1.104474
1.157522
1.221895
1.181960
1.478791
1.460910
1.340508
1.484752
1.409650
1.689792
1.945496
1.849532
2.102852
2.349615
2.328753
3.346801
11.979938
59.839487
136.502385
307.608843
505.738854
822.520852
1014.252901
1015.788913
1015.788913
1015.788913
1009.716988
737.093687
510.584712
270.474553
150.359869
59.926510
24.423599
8.407831
6.540418
6.553531
6.552935
6.425977
##ZVALUE=390
0.935793
0.776649
0.766516
0.774860
0.931621
0.916719
0.740886
0.780821
0.767708
0.754595
0.857711
0.889897
0.766516
1.107454
0.894666
0.780821
0.925660
0.905991
0.946522
0.946522
0.985861
0.737906
0.939965
0.731945
0.786781
0.974536
0.876784
0.737906
1.001954
0.898838
0.916719
0.994802
0.842810
0.968575
0.925660
1.045465
1.008511
0.944734
1.019835
0.996590
1.042485
1.098514
0.986457
0.974536
0.955462
0.914931
0.991821
1.106858
1.148582
1.104474
1.100898
1.031756
1.217723
1.202822
1.136661
1.305938
1.293421
1.183748
1.161695
1.206994
1.264811
1.201630
1.410842
1.238585
1.316667
1.399517
1.484752
1.453757
1.699924
1.811981
1.817942
1.911521
2.047420
2.227426
2.399683
2.681613
5.707741
34.316778
90.595484
235.354900
410.356522
718.274713
961.381793
1015.788913
1015.788913
1015.788913
1015.788913
949.489474
705.108643
412.034988
230.853558
90.277791
41.303635
13.416409
7.229447
6.167889
##ZVALUE=395
0.764728
0.858903
0.758767
0.761747
0.815988
0.757575
0.906587
0.755787
0.797510
0.832677
0.891685
0.790954
1.044869
0.907779
0.882745
0.889897
0.848770
0.938773
0.861883
0.908971
0.842810
0.724792
0.843406
0.923872
0.664592
1.006722
0.880957
0.791550
0.913739
1.045465
1.070499
1.122952
1.047850
0.868440
0.878572
0.936985
1.042485
0.919700
0.852942
1.089573
0.948906
1.004934
1.075864
0.988841
1.010895
1.068711
0.966787
1.131892
1.118779
1.168847
1.259446
1.013875
1.219511
1.116991
1.138449
1.104474
1.149774
1.147985
1.104474
1.250505
1.218915
1.112819
1.290441
1.426935
1.293421
1.461506
1.527667
1.516938
1.701713
1.889467
1.972914
2.020597
1.883507
1.967549
2.114773
2.038479
2.051592
2.352595
3.163815
18.624663
59.809685
177.273750
321.654677
593.363643
844.759941
1015.769839
1015.769839
1015.769839
1015.769839
1015.769839
867.109895
510.934591
313.460827
139.891505
65.320730
20.551682
##ZVALUE=400
0.775456
0.779629
0.726581
0.879765
0.819564
0.765920
0.918508
0.880957
0.898838
0.920892
0.962615
0.841618
0.835657
0.913739
0.646710
0.807643
0.796914
0.908971
0.870824
0.875592
0.768900
0.885725
0.890493
0.898838
0.903606
0.837445
0.891685
0.891685
0.994802
0.879765
0.997782
0.940561
0.838637
0.853539
1.112819
1.008511
0.891685
1.002550
0.949502
1.037717
1.110435
1.027584
1.054406
1.106858
0.921488
1.160502
1.091957
1.130700
1.024604
1.027584
1.028776
1.162887
1.011491
1.087785
1.035929
1.035929
1.156926
1.165867
1.157522
1.100898
1.086593
1.273751
1.276731
1.125932
1.307726
1.229644
1.437664
1.309514
1.422763
1.662970
1.602769
1.632571
1.748800
1.658797
1.662970
1.780987
1.796484
1.815557
1.972914
2.130866
2.517700
9.713769
35.409927
117.253661
225.422978
443.846583
653.159618
932.418704
1015.788913
1015.788913
1015.788913
1015.788913
882.205963
597.678423
389.326811
193.969607
##END
