##TITLE=FQP00302
##FORMAT=SPECTACLE-ASCII V-1.2
##DATA TYPE=ULTRAVIOLET SPECTRUM
##SECOND TYPE=ULTRAVIOLET SPECTRUM
##DATE=11/28/17
##TIME=16:32:20
##SPECTROMETER/DATA SYSTEM=SPECTACLE
##XUNITS=NM EM
##YUNITS=ENERGY
##YFACTOR=1
##FIRSTX=220
##LASTX=410
##NPOINTS=96
##3DDATA=Equidistant
##ZUNITS=NM EX
##FIRSTZ=210
##LASTZ=400
##ZPOINTS=39
##XYDATA=(Y..Y)
##ZVALUE=210
7.923841
6.641746
6.377697
6.373525
5.383492
5.928874
6.198883
6.861687
6.654859
7.270575
6.660819
7.283688
7.466674
7.696748
7.681847
8.020997
8.610487
10.165572
9.775758
12.163520
11.091828
12.675524
14.882684
13.025999
16.091466
16.409755
15.643835
17.211437
19.423962
19.971728
19.824505
22.016764
21.787882
20.294785
22.563934
21.535754
21.840930
21.246672
24.289489
23.114681
24.390817
23.689866
25.072694
23.964643
24.094582
26.161671
26.057959
27.000904
27.410984
27.625561
28.189421
27.570724
26.970506
29.403567
28.964877
28.215647
29.346943
28.390884
29.989481
28.598905
30.722618
26.876926
30.332804
30.278563
31.624436
32.914877
32.501817
39.269924
42.682886
55.618882
61.149001
72.214603
83.269477
101.631880
113.219619
125.528574
133.012533
140.085816
143.526793
139.751434
134.630799
118.458867
109.377503
87.637901
74.816942
55.366755
44.982433
35.313964
30.593872
28.929710
26.764870
28.038621
27.572513
27.783513
27.973652
28.971434
##ZVALUE=215
28.456450
27.252436
23.624897
18.278956
13.888478
10.355711
8.995533
9.508729
9.974837
10.032654
10.905862
10.105968
8.166432
7.740855
7.917881
7.200837
7.879734
8.615851
8.660555
9.860992
10.338426
11.589527
11.373758
13.689995
12.040734
14.211535
15.948415
14.939904
16.870499
16.765594
17.597675
17.362833
18.732548
20.021796
20.336509
19.676685
19.373894
21.469593
19.030571
20.643473
20.843744
20.027757
20.408630
21.210909
18.472672
21.060705
21.041632
21.958947
22.833943
22.522807
21.744967
23.918748
23.876429
22.125840
23.363829
22.425652
22.107959
23.542643
22.514462
23.198724
23.557544
23.059845
23.978949
23.126602
23.554564
24.633408
25.514960
30.246973
31.606555
37.814975
41.829944
50.282478
55.335760
64.550638
72.049499
77.503920
82.039833
83.471537
82.440972
79.001784
73.329806
65.235496
57.498813
49.024820
41.086674
33.198595
30.006766
26.062727
22.092462
21.734834
20.169616
21.408796
20.033717
19.993782
19.206405
21.266937
##ZVALUE=220
74.779987
74.747801
75.927973
74.039698
66.047907
49.224496
38.374662
27.241707
21.372437
16.675591
17.409921
16.274452
16.149879
16.663671
13.757944
11.996627
9.300709
8.350611
8.541942
8.665919
9.808540
9.480715
10.006428
11.097789
9.215474
11.181831
12.461543
12.205839
14.685988
13.705492
15.887618
16.573668
16.670823
17.482638
17.856956
17.072558
19.156933
18.273592
19.728541
18.049479
18.702745
18.138885
18.377900
20.121932
18.327832
16.999841
19.358993
15.704632
18.031597
18.132925
19.198656
18.218756
18.769503
19.604564
18.444657
20.142794
18.997788
18.711686
19.603968
20.902753
20.568967
20.054579
20.887852
21.007657
18.582940
20.563602
21.706820
21.684766
23.732781
30.044913
34.212470
37.614703
41.927695
49.925447
50.991774
54.498911
58.799982
59.624910
54.948926
54.559708
51.631927
47.948956
43.676496
34.821630
29.845834
26.392937
20.965934
19.045472
19.835830
20.428896
17.609596
17.755628
17.860532
17.347932
16.702414
16.817451
##ZVALUE=225
107.661486
113.635659
148.061514
187.173486
192.759633
184.012651
164.203644
132.198930
96.565485
71.603656
42.118430
33.144951
28.970838
32.679439
30.736923
29.894710
24.407506
22.303462
17.759800
13.911724
11.777878
9.425879
10.005832
9.754896
11.105537
10.228753
12.203455
13.243556
13.060570
14.858842
14.306903
15.595555
16.401410
16.383529
16.892552
17.410517
18.463731
19.108653
16.969442
18.010736
19.184947
20.050406
18.641949
20.013452
19.372702
19.589663
20.675659
20.026565
18.633604
19.162893
19.812584
19.988418
20.265579
19.181967
20.581484
21.608472
21.201968
22.005439
20.944476
22.433996
22.150874
21.758676
22.778511
22.087693
21.957755
23.959875
25.052428
23.617744
27.657747
30.480623
36.537647
37.579536
41.310787
48.536658
50.871968
54.589510
53.582788
53.947568
54.236650
48.970580
47.830939
41.281581
39.761662
34.591556
32.117963
28.698444
26.710629
25.750995
23.786426
23.239851
22.938848
23.254752
21.614432
21.583438
19.945502
21.144748
##ZVALUE=230
84.752440
94.540715
160.298944
273.699760
361.369848
442.564487
480.628610
465.553999
417.067409
338.131785
239.655972
155.241489
88.357925
66.943765
55.408478
51.546693
56.650639
54.018497
48.923492
39.702654
34.800768
25.585890
18.495917
15.190840
15.247464
13.355613
14.451742
13.999939
16.517639
15.957952
16.753674
17.532706
18.397570
18.019676
17.742515
20.738840
20.848513
21.160841
22.124648
22.417903
21.995902
21.507740
22.713542
25.950670
24.490952
25.668740
25.653839
26.390553
24.599433
29.017925
27.036667
27.055740
28.675795
28.609633
27.779937
30.329823
31.242967
30.513406
31.486750
31.464696
30.448437
32.731891
33.249855
32.159686
33.144951
33.066869
35.590529
39.459467
41.255951
46.881437
50.821900
54.258704
64.735413
68.641901
75.422525
77.996850
82.119703
77.402592
76.007843
76.991916
71.285963
66.180825
60.823560
54.173470
50.438643
44.173598
40.422678
35.787821
37.187934
35.991669
37.543774
33.500791
35.057664
32.136440
33.050776
32.426715
##ZVALUE=235
34.880638
40.231943
92.377663
229.169726
396.509767
634.953976
842.884779
1015.788913
1015.788913
1015.788913
1015.788913
829.398632
616.724491
347.961783
212.884545
133.653879
86.872578
81.147552
88.503957
90.149641
80.805421
72.823763
57.523847
44.234991
34.121871
25.910735
23.072958
18.920898
20.245910
20.875931
20.839572
19.076467
20.145774
21.416545
21.840930
22.741556
24.138689
24.122596
23.675561
23.298860
25.878549
26.444793
28.338432
28.496981
30.996799
30.457973
32.744408
33.282638
35.091639
35.662651
37.574768
35.190582
39.972663
38.051605
39.111972
42.061806
41.145682
40.600896
42.030811
42.105913
41.293502
42.836666
41.846633
46.280622
44.388771
48.576593
50.271749
52.714944
56.414604
61.890483
68.071485
74.679852
81.079602
88.840723
96.656680
102.955699
103.851557
104.746819
102.592707
102.212429
97.360611
87.755919
81.130862
70.308447
64.719915
56.903958
53.035617
48.183799
45.718551
47.097802
45.711994
45.357943
44.206977
44.722557
44.079423
42.548776
##ZVALUE=240
3.959537
4.131794
17.073750
51.143765
167.366862
318.728685
643.149018
958.796740
1015.788913
1015.788913
1015.788913
1015.788913
1015.788913
1015.788913
989.052653
610.789657
401.334763
214.819908
144.970417
108.544827
116.617680
121.388435
120.819807
109.296441
92.966557
77.208877
59.774518
47.430992
35.331845
28.121471
24.150610
22.823811
22.453666
24.301410
23.772717
23.638606
24.152994
25.886893
26.572943
29.761791
28.084517
29.938817
31.855702
31.796694
35.457611
35.034418
33.506751
38.728714
39.198995
39.236546
39.967895
41.884780
43.026805
43.113828
44.366717
47.863722
45.391917
46.120882
46.862960
48.276782
48.508644
47.754645
47.775507
50.945878
52.603483
51.105618
52.588582
55.316687
57.423711
61.128736
67.086816
71.700811
80.202818
87.216496
89.130998
94.197989
97.640753
95.694661
98.202825
92.409849
94.295740
85.050464
82.670450
75.067878
66.180825
61.104894
56.309700
52.787662
52.715540
49.088597
49.370527
46.903491
47.356486
46.023726
47.928691
44.821501
##ZVALUE=245
2.929568
2.936721
2.953410
3.360510
8.137822
48.602819
131.773949
347.849727
605.558753
1000.873446
1015.496850
1015.496850
1015.496850
1015.496850
1015.496850
1015.496850
1015.496850
763.166547
483.793616
239.344835
150.543451
112.860799
113.893747
125.240684
132.179856
129.314661
116.033554
102.347732
77.049732
61.258674
45.003891
35.208464
27.599931
21.894574
19.228458
20.476580
20.765662
20.865798
20.910501
22.361875
24.041533
25.661588
25.150776
29.033422
29.901862
27.980804
30.539632
33.081770
34.539700
34.882426
37.209988
39.175749
42.082667
39.846897
40.490627
40.838718
41.698813
41.461587
43.282509
42.104721
42.902827
42.382479
44.015646
45.004487
45.989752
43.021441
45.290589
47.168732
46.700835
50.825477
51.822662
59.662461
61.668754
70.443749
70.342422
72.684884
71.999431
73.823929
70.787668
68.783760
63.774586
59.936643
57.385564
54.710507
51.486492
47.715902
46.697855
45.993924
43.445826
45.431852
43.031573
43.315887
42.605996
43.624640
40.063858
41.949749
##ZVALUE=250
3.155470
2.832413
3.320575
3.474951
3.711581
3.874898
7.272959
31.113625
151.777864
325.214863
719.857812
1015.788913
1015.788913
1015.788913
1015.788913
1015.788913
1015.788913
1015.788913
1015.788913
1015.788913
704.285502
432.910919
204.411745
128.444433
109.816790
124.159455
133.819580
141.468644
136.304498
125.333667
107.436776
85.130930
66.218972
46.844482
36.307573
25.308728
22.442937
20.384789
21.909475
21.183491
22.493601
22.781491
24.258494
27.080774
26.850700
28.929710
30.140877
32.074451
31.534433
33.516884
36.079884
37.406683
37.913918
38.882494
37.864447
37.964582
37.784576
38.057566
38.040876
39.705634
39.655566
37.911534
39.123893
39.548874
37.982464
38.791895
40.444732
40.954947
42.039752
45.813918
47.216415
50.432682
56.411624
57.328939
59.514642
60.381889
63.447952
59.042573
59.839487
58.465600
56.936741
53.275824
49.538612
46.092868
45.015812
42.356849
40.709972
39.626956
40.740967
39.003491
39.708614
38.514733
38.572550
37.162900
36.633611
38.000941
##ZVALUE=255
2.829432
2.668500
2.797842
2.742410
3.183484
3.279448
3.246665
4.331470
4.266500
21.683574
92.706680
251.679420
625.726581
970.745683
1015.788913
1015.788913
1015.788913
1015.788913
1015.788913
1015.788913
1015.788913
1015.788913
901.309848
575.399399
356.515646
180.089474
124.755502
109.836459
123.583674
139.865875
147.990584
143.056512
132.406950
110.354424
91.332793
63.655972
49.160719
33.950806
25.780797
21.866560
21.889806
22.587776
23.571849
24.341941
25.932789
26.620626
26.836991
28.255582
29.666424
30.957460
31.374693
32.270551
33.355951
33.763647
32.397509
33.401847
33.211708
34.116507
34.139752
32.305717
34.129620
33.872724
31.314492
32.685995
32.863617
32.915473
33.102632
34.351945
34.669638
35.660863
37.533641
41.625500
43.452978
45.129657
46.481490
45.564771
47.613978
46.722889
47.161579
44.036508
41.391850
41.785836
39.737821
37.883520
36.383867
35.254955
33.923984
34.137964
34.820437
35.809875
34.086704
34.502745
33.223629
33.435822
33.504963
32.677650
##ZVALUE=260
2.358556
2.164841
2.645850
2.473593
2.289414
2.642870
2.905726
3.136992
3.630519
3.937483
4.299879
7.554889
40.393472
202.853680
447.227955
936.842561
1015.788913
1015.788913
1015.788913
1015.788913
1015.788913
1015.788913
1015.788913
1015.788913
1015.788913
782.381892
442.370772
263.448954
138.114691
101.744533
99.429488
127.000809
143.547654
152.612925
151.119828
136.066675
117.050409
91.112852
69.831610
46.810508
36.602616
27.711987
23.274422
22.116899
22.736788
23.724437
23.823977
24.151802
24.362803
26.079416
27.272701
27.385950
27.342439
28.002858
27.473569
28.061867
27.015805
27.113557
26.736856
27.675629
26.664734
26.769638
27.375817
26.963949
27.026534
27.198792
28.716922
28.235912
28.870702
30.171871
32.978654
34.762621
34.344792
37.059784
37.612915
38.247705
38.631558
38.091540
37.220716
35.264492
35.959482
32.565594
31.799674
31.708479
31.246543
32.170415
30.754805
30.681491
30.804873
30.443668
31.281710
30.300617
31.628609
30.831695
30.626655
31.497478
##ZVALUE=265
2.340674
2.490878
2.456903
2.545714
2.851486
2.417564
2.734661
2.998710
3.330708
3.122687
3.675818
4.164577
3.969669
5.462766
21.283627
154.411793
371.340513
814.880729
1015.933752
1015.933752
1015.933752
1015.933752
1015.933752
1015.933752
1015.933752
1015.933752
1015.933752
870.829821
475.520492
275.650620
153.566599
88.835955
86.247921
110.676885
132.626891
148.119926
155.753493
146.522522
134.922862
114.308000
92.083812
65.499544
50.989985
34.982562
28.049946
24.115443
23.097992
22.373796
22.105575
24.278760
24.340749
24.772882
24.614930
24.268627
23.875833
25.284886
23.820996
23.774505
24.047494
24.979711
24.467707
23.619533
24.680495
23.523569
23.821592
25.202632
24.423599
23.907423
26.164651
27.252436
29.549599
29.282570
30.709505
33.296943
32.352805
31.822920
32.444000
31.594634
32.131672
30.736923
30.789971
30.046701
28.837919
28.587580
28.581619
28.314590
27.971864
27.707815
28.434992
26.894808
27.287602
27.915835
27.565956
27.601719
27.318597
27.949810
##ZVALUE=270
2.139807
1.874566
2.046824
2.168417
2.206564
2.425909
2.327561
2.257824
2.346635
2.441406
2.639890
2.936721
3.319979
3.639460
3.807545
4.283786
7.384419
67.269802
222.024322
630.804896
1008.918881
1015.787721
1015.787721
1015.787721
1015.787721
1015.787721
1015.787721
1015.787721
1015.787721
891.895890
584.523678
292.179585
162.155628
79.236627
68.196654
85.314512
106.338859
133.328438
148.474574
157.053471
152.398944
136.029720
119.367838
90.979934
71.204901
48.080683
37.680864
28.382540
24.567842
22.362471
22.391677
21.874905
22.192597
22.410750
22.711754
22.964478
22.803545
22.940636
23.040771
23.204684
22.311807
23.758411
22.511482
23.202896
22.758842
23.533702
23.200512
23.929477
24.272799
25.349855
27.055740
26.816726
29.331446
28.989911
29.610991
29.692650
28.656721
28.705001
27.651787
26.904941
27.024746
26.862621
25.743842
25.852919
26.406646
26.870966
24.879575
25.119781
24.593472
26.367903
25.820732
26.019812
26.416779
25.600791
25.614500
25.686622
##ZVALUE=275
1.726747
1.935959
1.729727
2.002716
1.993775
2.031922
2.244711
2.152920
2.358556
2.383590
2.352595
2.674460
2.853870
2.961755
2.978444
3.467798
3.609657
4.062653
4.914999
26.790500
136.672854
396.301746
953.547955
1015.788913
1015.788913
1015.788913
1015.788913
1015.788913
1015.788913
1015.788913
1015.788913
1015.788913
724.998713
367.632508
203.718543
91.547966
60.246587
62.568784
81.182718
106.521845
127.640963
150.208473
154.403448
150.768757
138.100982
114.844441
93.316436
70.473552
53.554773
38.309693
29.706955
23.749471
22.867918
21.957755
22.479892
22.341609
22.392869
22.691488
21.986961
22.227764
22.318959
22.817850
23.100972
22.756457
22.400618
23.635626
24.105906
24.179816
25.977492
25.414824
26.738644
27.785897
28.489828
29.215813
28.841496
29.444695
30.222535
29.562712
27.987957
27.449727
25.823712
26.340485
26.306510
25.317669
24.680495
25.196671
24.848580
24.508834
25.313497
24.963617
24.534464
23.712516
24.402738
24.252534
25.317669
24.508834
##ZVALUE=280
1.809597
1.683831
1.758933
1.955628
1.901984
1.810789
1.859665
2.090931
2.175570
2.449751
2.186894
2.331734
2.296567
2.706647
2.539754
2.827644
2.930760
3.346801
3.543496
3.895760
4.965663
10.317564
70.962906
353.780389
760.995746
1015.788913
1015.788913
1015.788913
1015.788913
1015.788913
1015.788913
1015.788913
1015.788913
1015.788913
820.480585
517.875552
249.977708
130.643845
60.418844
47.885776
57.786703
81.681609
103.501678
129.023790
142.189860
151.822567
148.162842
134.294629
116.183758
95.176697
69.822669
53.259730
37.335753
29.504895
23.871660
22.208691
21.641850
22.074580
22.234917
23.570657
22.348762
23.180842
22.827983
23.484826
22.939444
23.615956
23.923516
24.880767
25.382638
26.297569
26.864409
27.210712
28.758645
28.861761
28.823614
28.815866
28.970838
27.842522
26.574731
26.775599
26.426911
25.192499
25.616884
24.810433
24.883747
24.278760
23.846626
23.830533
23.853779
24.343729
23.708940
24.287701
23.812652
23.062825
23.401976
23.534894
##ZVALUE=285
1.992583
1.687407
1.652837
2.018809
1.647472
1.682639
1.824498
1.862645
2.027750
1.907945
2.132654
2.125502
2.115965
2.520680
2.317429
2.438426
2.637506
2.722740
2.935529
3.049970
3.359914
3.713965
4.446507
5.539656
36.503673
159.220099
501.127839
918.726921
1015.771031
1015.771031
1015.771031
1015.771031
1015.771031
1015.771031
1015.771031
1015.770435
1015.770435
667.837858
396.745801
178.258419
90.547800
43.709874
39.241910
56.082606
73.245764
102.652907
120.789409
136.756897
145.328641
143.527985
134.624839
112.496614
94.600916
71.241856
53.804517
37.301779
29.688478
24.401546
23.249984
22.747517
22.964478
23.537874
22.349954
23.155808
24.568439
24.217963
24.067760
26.057959
24.986863
25.669932
26.725531
27.506948
27.704835
27.462840
28.064847
27.547479
27.209520
27.416945
26.840568
26.182532
26.827455
25.342703
25.150776
24.403930
25.263429
24.597645
23.898482
24.291873
23.872852
23.361444
23.047924
22.749901
23.241639
22.384524
21.935701
22.650957
##ZVALUE=290
1.693964
1.730919
1.486540
1.716614
1.676679
1.707673
1.884699
1.717806
2.056956
1.807809
1.886487
2.036691
2.140999
1.889467
2.108812
2.116561
2.106428
2.470613
2.810955
2.881885
2.861619
3.518462
3.451705
3.741980
4.674792
5.013943
10.051727
62.085390
321.469903
665.169954
1015.788913
1015.788913
1015.788913
1015.788913
1015.788913
1015.788913
1015.788913
1015.788913
1015.788913
841.236711
529.347658
250.949860
127.080679
50.797462
31.699538
37.860870
50.180554
71.827769
91.644526
115.936995
132.782459
141.501427
140.976906
129.308701
115.490556
89.241862
70.387721
50.821900
40.449500
30.165911
26.046634
24.470687
23.612976
23.232698
23.288727
23.724437
23.677945
24.354458
24.859905
25.937557
26.457906
26.485920
27.053952
27.375817
27.324557
26.761889
26.927590
26.858449
26.036501
26.080608
25.149584
25.362968
25.553703
24.868846
24.173856
24.288893
24.648905
24.765730
24.334788
23.652911
23.390651
23.181438
22.457838
23.076534
22.030473
22.398829
##ZVALUE=295
1.615882
1.480579
1.552701
1.620650
1.673698
1.553893
1.616478
1.681447
1.876950
1.743436
1.853704
1.849532
1.747608
1.965761
1.989603
2.179742
2.163649
2.154708
2.198815
2.469420
2.716780
2.299547
2.879500
3.249645
3.477931
3.375411
4.229546
4.725456
6.051660
19.798875
93.429685
435.040593
864.790678
1015.788913
1015.788913
1015.788913
1015.788913
1015.788913
1015.788913
1015.788913
1015.788913
982.861519
670.406818
337.809920
179.931521
68.625808
34.785867
25.773644
32.157898
48.740506
65.545440
89.306831
108.484626
127.668977
136.472583
134.673715
126.482844
105.419755
90.076923
68.707466
54.436922
39.551854
32.024980
27.048588
24.345517
22.977591
23.833513
24.258494
24.065971
25.377870
25.652647
25.557876
26.296973
27.332902
26.486516
27.074814
26.049614
26.203990
25.533438
25.487542
25.121570
24.645925
24.431944
23.645759
24.776459
24.166703
24.713874
24.439692
23.464561
23.899674
24.105906
22.654533
23.102760
22.520423
22.305846
22.297502
##ZVALUE=300
1.535416
1.706481
1.448989
1.359582
1.719594
1.614690
1.559854
1.636744
1.595616
1.682639
1.759529
1.842976
1.781583
1.683831
1.825690
1.728535
1.920462
2.057552
1.987815
2.055764
2.469420
2.366900
2.467632
2.587438
2.908707
3.031492
3.571510
3.367662
4.039407
4.454851
5.128980
7.262826
68.264008
252.881646
723.626018
1015.788913
1015.788913
1015.788913
1015.788913
1015.788913
1015.788913
1015.788913
1015.788913
1015.788913
804.629922
507.115722
252.517462
135.189891
50.643682
26.549697
24.517775
31.935573
46.320558
61.099529
83.851814
102.409720
122.989416
131.080747
130.624771
123.043656
106.337667
91.065764
69.636703
55.773854
40.897727
32.944679
27.349591
24.748445
25.031567
24.663806
25.592446
25.627613
25.528669
26.135445
26.358962
25.603771
26.068687
25.964975
25.670528
25.330782
24.853945
25.175810
25.055408
25.215745
24.499893
24.620891
24.634600
24.771690
24.410486
23.506880
23.629665
23.358464
22.905469
22.338629
22.334456
21.880865
##ZVALUE=305
1.314878
1.291633
1.311898
1.347661
1.359582
1.523495
1.505613
1.532435
1.483560
1.501441
1.737475
1.799464
1.824498
1.828671
1.790524
1.607537
1.836419
1.810789
2.143979
1.842976
1.873970
2.236962
2.478957
2.307892
2.637506
2.591610
2.705455
2.685785
3.415942
3.294945
3.785491
3.977418
5.036592
6.122589
21.579862
175.295472
449.866652
981.438756
1015.788913
1015.788913
1015.788913
1015.788913
1015.788913
1015.788913
1015.788913
1015.788913
992.656946
604.676604
373.423696
172.081590
87.536573
32.893419
21.883845
24.772882
30.767918
46.359897
60.465932
81.499815
97.711682
116.032958
123.613477
124.780536
117.748976
103.083849
87.212920
66.667795
52.603483
39.244890
32.544732
28.666854
26.080608
25.166869
26.040673
25.676489
25.996566
25.595427
25.747418
25.680661
25.606751
25.702715
25.870800
25.490522
24.675727
25.249720
25.147796
25.348663
24.343729
25.209785
24.838448
24.214983
24.144650
23.951530
23.343563
23.276806
22.727847
22.965670
##ZVALUE=310
1.430511
1.407862
1.489520
1.417994
1.479983
1.539588
1.443624
1.607537
1.526475
1.474619
1.640916
1.636744
1.699924
1.574755
1.625419
1.751781
1.760721
2.150536
1.961589
1.911521
2.082586
2.009869
1.929998
2.463460
2.338886
2.473593
2.668500
2.486706
2.794862
2.897978
3.188848
3.350973
3.770590
3.965497
4.242659
5.097985
7.156730
72.894692
248.463750
698.543787
1015.870571
1015.870571
1015.870571
1015.870571
1015.870571
1015.870571
1015.870571
1015.870571
1015.870571
831.012726
540.602803
268.617868
143.101811
52.936673
25.935769
19.621849
22.463799
30.480623
40.435791
56.770444
72.097778
94.178915
106.841922
116.933584
120.158792
112.068653
101.751685
85.697770
68.915486
51.469803
41.923523
33.714771
29.305816
26.408434
25.042892
25.130510
24.288893
25.254488
24.895668
25.049448
25.118589
25.490522
25.717616
25.700927
25.531650
25.762916
25.436878
25.479794
25.184751
25.126934
24.668574
23.793578
23.462772
23.574829
23.400784
23.322701
##ZVALUE=315
1.385808
1.356602
1.390576
1.363754
1.326799
1.406670
1.542568
1.441836
1.385808
1.556873
1.482964
1.732707
1.695752
1.511574
1.655817
1.509786
1.501441
1.727939
1.658797
1.866817
1.670718
2.065897
1.866817
2.048612
1.908541
2.116561
2.276897
2.414584
2.292991
2.532601
2.723932
2.745986
2.924800
3.052950
3.279448
3.867745
4.374981
4.791617
5.718470
30.470490
138.705969
497.081876
928.030014
1015.788913
1015.788913
1015.788913
1015.788913
1015.788913
1015.788913
1015.788913
1015.788913
989.803672
695.988536
363.107920
197.471976
72.852969
33.597946
18.963814
18.571615
21.823645
26.797652
39.544702
50.325990
68.142414
83.967447
101.455450
110.146999
111.217499
108.161569
94.561577
82.504749
65.147877
52.699447
39.612651
33.112764
27.536750
25.696754
25.009513
24.350882
24.797916
24.805665
25.099516
25.105476
24.898648
25.409460
26.023984
25.835633
25.080442
24.818778
24.898648
24.387836
24.243593
24.943948
24.239421
24.377704
23.034811
##ZVALUE=320
1.328588
1.399517
1.241565
1.360774
1.366735
1.355410
1.413822
1.490712
1.389980
1.435876
1.379848
1.427531
1.319647
1.604557
1.508594
1.621842
1.649857
1.608729
1.573563
1.687407
1.714826
1.745820
1.721978
1.799464
1.954436
1.834631
1.991987
2.122521
2.219677
2.044439
2.305508
2.409816
2.473593
2.759695
2.843738
2.829432
3.256798
3.605485
3.888607
4.423857
5.052686
10.550618
60.757995
306.047797
665.997863
1015.788913
1015.788913
1015.788913
1015.788913
1015.788913
1015.788913
1015.788913
1015.788913
1015.788913
883.034468
481.047630
272.796750
117.756724
53.460002
20.712614
15.702844
16.345978
18.687844
25.248528
33.057928
47.493577
61.250925
80.268979
92.785954
104.563832
106.472969
103.617907
94.002485
76.629519
63.722730
49.007535
39.370656
31.747818
27.470589
25.425553
24.535656
24.473667
24.696589
24.465919
24.892688
24.834871
24.919510
24.487972
25.354624
24.766922
24.857521
24.478436
24.226904
24.247766
23.723841
23.526549
##ZVALUE=325
1.231432
1.168847
1.215935
1.140833
1.199841
1.202822
1.359582
1.313686
1.383424
1.453757
1.271963
1.380444
1.415610
1.217723
1.471639
1.488924
1.586676
1.627803
1.699924
1.578927
1.493692
1.696944
1.783967
1.745820
1.922846
1.745820
2.000928
1.898408
1.969934
2.054572
2.109408
2.085567
2.141595
2.348423
2.403855
2.753735
2.735853
2.951622
3.206730
3.328919
3.798604
4.248619
4.943609
6.586909
29.951930
214.802027
487.987399
978.973508
1015.788913
1015.788913
1015.788913
1015.788913
1015.788913
1015.788913
1015.788913
1015.788913
979.025960
593.596697
356.107950
154.631734
73.673725
25.430918
15.082955
14.052987
14.811754
18.014908
22.936463
32.895803
43.547750
61.628819
75.928569
90.477467
98.127723
100.788474
95.999837
83.842874
72.361827
57.977438
46.667457
36.443472
30.544996
26.508570
25.230646
24.597645
24.991632
24.509430
24.886727
24.588704
24.581552
24.349689
24.153590
24.544001
23.611784
23.772717
23.667812
23.623705
##ZVALUE=330
1.164675
1.218915
1.211762
1.259446
1.107454
1.227856
1.421571
1.232624
1.345873
1.276731
1.490712
1.475811
1.272559
1.495481
1.474619
1.230836
1.569986
1.318455
1.474619
1.618862
1.600981
1.601577
1.634955
1.573563
1.529455
1.723766
1.704693
1.633763
1.721978
1.845956
1.955628
2.068877
1.933575
2.001524
2.316833
2.323985
2.324581
2.462864
2.476573
2.783537
2.987981
3.014803
3.592968
4.051924
4.414916
5.061626
11.379719
96.785426
284.241438
760.535002
1015.788913
1015.788913
1015.788913
1015.788913
1015.788913
1015.788913
1015.788913
1015.788913
1015.788913
738.824010
465.734601
215.058923
108.845830
39.709806
18.400550
12.961626
13.247728
15.190840
17.618537
24.074912
30.985475
44.066906
57.023764
73.491931
84.957480
93.772411
94.454885
90.028644
82.567930
68.119764
56.983829
44.100881
37.176609
30.490756
27.181506
24.890900
24.251938
24.201870
23.562908
23.975968
23.544431
23.701787
23.193955
23.271441
23.473501
23.060441
##ZVALUE=335
1.254678
1.245737
1.221895
1.222491
1.033545
1.150966
1.263618
1.266599
1.410842
1.354814
1.423955
1.144409
1.325607
1.419783
1.176000
1.374483
1.432896
1.389980
1.217723
1.533628
1.551509
1.373887
1.404881
1.551509
1.492500
1.635551
1.492500
1.500845
1.797676
1.810789
1.936555
1.910925
1.808405
1.998544
2.021790
1.988411
2.147555
2.254844
2.232790
2.385974
2.455711
2.799630
2.789497
3.167987
3.304482
3.859997
4.039407
4.520416
5.809665
41.504502
159.920454
512.667894
915.562510
1015.788913
1015.788913
1015.788913
1015.788913
1015.788913
1015.788913
1015.788913
1015.788913
894.271731
598.152876
309.515595
163.210630
56.622624
24.957657
14.038682
13.637543
14.617443
15.944839
18.175840
22.366643
31.874776
41.407943
55.997968
67.329407
80.242753
87.347627
89.371800
85.265636
74.949861
66.855550
55.632591
46.269894
36.358833
30.913949
26.476979
24.612546
23.316741
23.040771
22.899508
22.326708
22.364855
22.644997
22.319555
##ZVALUE=340
1.174808
1.157522
1.139641
1.099706
0.992417
1.128912
0.938773
1.065731
1.224875
1.254678
1.275539
1.219511
1.193881
1.283884
1.213551
1.091957
1.077652
1.328588
1.297593
1.331568
1.428723
1.642704
1.472831
1.546741
1.564622
1.565814
1.516938
1.687407
1.534820
1.424551
1.584888
1.680851
1.713634
1.636744
1.816750
1.977682
1.875758
1.867414
1.995564
2.233982
2.272725
2.343655
2.385974
2.658963
2.725720
2.930760
3.335476
3.332496
3.718734
4.384518
4.852414
16.635656
81.457496
342.152715
697.516799
1015.736461
1015.736461
1015.736461
1015.736461
1015.736461
1015.736461
1015.736461
1015.736461
1008.625627
738.615990
387.312770
209.813714
77.546835
33.543706
15.943646
13.845563
14.214516
14.672875
15.920997
18.437505
23.039579
29.465556
40.137768
50.983429
65.061450
75.252652
82.968473
84.445477
80.126524
73.966980
63.189864
54.633617
43.279529
36.376715
29.639602
25.680661
23.277998
22.502542
22.048950
22.058487
21.310449
##ZVALUE=345
1.238585
1.244545
1.253486
1.128912
1.407862
1.135468
1.266599
1.182556
1.276731
1.279712
1.344681
1.240969
1.316667
1.271963
1.372695
1.405478
1.318455
1.424551
1.218915
1.426935
1.353621
1.498461
1.712441
1.482964
1.368523
1.549721
1.439452
1.533628
1.489520
1.671910
1.515746
1.709461
1.819730
1.836419
1.771450
1.837611
1.819730
1.842976
1.993775
1.947880
2.094507
2.022982
2.198815
2.252460
2.326965
2.504587
2.750754
2.817512
2.834797
3.270507
3.341436
3.801584
4.319549
6.464720
32.538772
204.434395
487.046838
986.065865
1015.788913
1015.788913
1015.788913
1015.788913
1015.788913
1015.788913
1015.788913
1015.788913
882.107615
511.308908
289.648771
115.064979
51.953793
20.052791
14.627576
13.873577
13.842583
14.005899
15.093684
17.550588
21.273494
29.369593
37.410855
49.874783
58.846474
69.347620
75.246692
78.293681
76.010823
69.581866
62.720776
52.164793
43.411851
34.298897
29.193759
24.390817
22.522807
20.793676
##ZVALUE=350
1.213551
1.226664
1.331568
1.345873
1.249909
1.226664
1.343489
1.382828
1.361966
1.354814
1.370907
1.312494
1.443624
1.274943
1.447797
1.332760
1.260638
1.496673
1.479983
1.257658
1.541972
1.500845
1.570582
1.545548
1.535416
1.607537
1.641512
1.661777
1.564622
1.745820
1.760721
1.537800
1.717806
1.796484
1.660585
1.831651
1.864433
1.823902
2.028942
2.001524
1.902580
2.147555
2.215505
2.086759
2.322793
2.230406
2.338886
2.582669
2.671480
2.948642
3.055930
3.234744
3.441572
3.685951
4.248619
5.076528
13.925433
108.298659
297.446847
746.997595
1015.788913
1015.788913
1015.788913
1015.788913
1015.788913
1015.788913
1015.788913
1015.788913
986.185670
589.574575
354.909897
160.088539
74.185729
24.213791
14.558434
13.007522
12.899637
12.822747
13.187528
14.999509
16.960502
21.445751
26.143789
34.340620
42.410493
53.440928
61.901808
69.589615
71.997643
71.617961
66.852570
57.923794
50.069690
40.397644
34.283996
27.687550
##ZVALUE=355
1.237988
1.345873
1.257658
1.429915
1.259446
1.397729
1.346469
1.610518
1.419783
1.413822
1.421571
1.368523
1.474619
1.505613
1.228452
1.531839
1.396537
1.342893
1.388788
1.457930
1.586676
1.427531
1.548529
1.565814
1.423955
1.722574
1.648664
1.667738
1.611710
1.573563
1.805425
1.831651
1.797676
1.892447
1.795888
1.810789
1.929998
1.899600
2.012849
2.047420
1.902580
2.009869
2.077818
2.243519
2.340674
2.339482
2.428889
2.433658
2.577901
2.618432
2.836585
2.759695
3.044605
3.159642
3.369451
3.755689
3.871918
4.775524
6.846786
54.795742
179.453492
535.866618
927.447677
1015.788913
1015.788913
1015.788913
1015.788913
1015.788913
1015.788913
1015.788913
1015.788913
741.405487
462.988615
199.935436
93.844533
30.601621
15.695691
12.792945
12.445450
12.681484
12.676716
13.234615
14.206767
16.407967
18.623471
24.439692
29.549599
39.240718
46.358705
56.335926
62.149763
66.085458
65.083504
60.705543
55.454969
46.546459
##ZVALUE=360
1.289845
1.165867
1.417994
1.273751
1.451969
1.451969
1.541972
1.426935
1.183748
1.491904
1.329780
1.543760
1.523495
1.390576
1.374483
1.443624
1.333952
1.498461
1.558661
1.522899
1.513958
1.558661
1.488924
1.560450
1.488924
1.651645
1.729727
1.806617
1.735687
1.687407
1.840591
1.575947
1.567602
2.009869
1.854897
1.965761
1.784563
1.806617
1.952648
1.946688
1.977682
2.086759
1.848936
2.052784
2.291799
2.118945
2.331734
2.295971
2.351999
2.592802
2.587438
2.693534
2.675653
2.882481
2.854466
3.012419
3.374815
3.916621
4.461408
5.215406
6.011724
18.928647
82.352757
307.822824
624.541044
1015.788913
1015.788913
1015.788913
1015.788913
1015.788913
1015.788913
1015.788913
1015.788913
874.372721
572.727919
274.063945
142.310858
52.290559
22.708774
12.338758
11.736751
11.754632
11.525750
11.986494
12.130737
12.930632
13.933778
16.677976
19.958615
25.569797
31.924844
41.314960
47.490597
54.320693
58.688521
59.483647
##ZVALUE=365
1.328588
1.497865
1.289845
1.241565
1.233816
1.360774
1.293421
1.411438
1.376867
1.381636
1.461506
1.527667
1.342893
1.437664
1.436472
1.437664
1.433492
1.411438
1.414418
1.483560
1.450777
1.468658
1.454949
1.616478
1.527667
1.533628
1.468658
1.563430
1.600981
1.488924
1.550913
1.686811
1.651645
1.682639
1.746416
1.776814
1.704693
1.683831
1.749992
1.670718
1.894832
1.877546
1.879930
2.012849
1.853704
1.914501
2.088547
1.914501
2.006888
2.227426
2.054572
2.460480
2.363920
2.644658
2.500415
2.605915
2.794862
3.153682
3.607869
4.112720
4.522800
5.010962
5.253553
7.418990
32.987595
185.859799
421.630740
889.118910
1015.797853
1015.797853
1015.797853
1015.797853
1015.797853
1015.797853
1015.797853
986.976027
705.138445
380.548835
203.113556
73.326826
29.551983
12.146831
10.650754
10.768771
10.575652
10.868907
10.842681
11.333823
11.604428
12.532473
14.026761
17.484426
21.260977
28.585792
34.657717
42.729974
##ZVALUE=370
1.215935
1.161695
1.230836
1.314878
1.184940
1.167655
1.218915
1.102686
1.376867
1.296997
1.283884
1.320839
1.232624
1.263618
1.369715
1.247525
1.194477
1.289845
1.303554
1.427531
1.458526
1.311898
1.368523
1.458526
1.362562
1.402497
1.424551
1.471639
1.376867
1.404881
1.514554
1.367927
1.342893
1.329780
1.399517
1.488924
1.515746
1.514554
1.637936
1.693964
1.655817
1.486540
1.667738
1.648664
1.684427
1.586676
1.723766
1.889467
1.770854
1.854897
1.830459
1.913905
2.109408
2.125502
1.862645
2.277493
2.268553
2.516508
2.589822
2.894998
3.006458
3.352761
3.481507
3.745556
4.179478
4.961491
14.073849
100.319982
279.309750
714.564919
1015.789509
1015.789509
1015.789509
1015.789509
1015.789509
1015.789509
1015.789509
1015.789509
825.801492
445.146561
247.035623
96.201897
44.608712
17.029643
10.801554
9.919405
9.691715
9.854436
10.096431
9.967685
10.284781
10.526776
11.408925
12.890697
15.375614
19.821525
##ZVALUE=375
1.103878
1.239777
1.003742
1.345873
1.162887
1.221895
1.122952
1.225471
1.151562
1.141429
1.078844
1.161695
1.265407
1.188517
1.088977
1.301765
1.145601
1.094937
1.124740
1.112819
1.309514
1.320839
1.202822
1.306534
1.193881
1.297593
1.420975
1.419783
1.389980
1.315475
1.285672
1.341701
1.285672
1.300573
1.350641
1.290441
1.417994
1.470447
1.365542
1.492500
1.503825
1.616478
1.564622
1.412630
1.621842
1.561642
1.595616
1.571774
1.804829
1.596808
1.696944
1.856685
1.821518
1.723766
1.762509
1.876950
1.985431
1.944900
2.273917
2.326965
2.456903
2.513528
2.676845
2.767444
2.938509
3.263950
3.796816
4.378557
6.248951
49.926043
163.310766
477.347970
856.053829
1015.814543
1015.814543
1015.814543
1015.814543
1015.814543
1015.814543
1015.814543
977.880955
585.208535
362.733603
174.587965
86.042881
28.039813
13.083816
9.314418
8.889437
8.977652
9.035468
9.322762
9.275675
9.524822
9.636879
10.508895
##ZVALUE=380
1.290441
1.280904
1.314878
1.294613
1.246929
1.345873
1.394749
1.457930
1.355410
1.244545
1.339912
1.256466
1.385808
1.526475
1.395941
1.333952
1.213551
1.479983
1.363754
1.477599
1.574755
1.611710
1.461506
1.290441
1.306534
1.339912
1.298785
1.452565
1.564622
1.426935
1.508594
1.561642
1.422763
1.420975
1.426935
1.767874
1.589656
1.465678
1.699924
1.708865
1.526475
1.726747
1.664758
1.645684
1.737475
1.687407
1.785755
1.745820
1.932979
1.762509
1.691580
1.805425
1.815557
2.053976
1.941919
1.904964
1.993775
2.109408
1.985431
2.088547
2.314448
2.448559
2.422929
2.569556
2.629757
2.993941
3.101826
3.655553
4.056692
4.597902
5.340576
22.408962
97.178817
356.912017
692.843795
1016.020775
1016.020775
1016.020775
1016.020775
1016.020775
1016.020775
1016.020775
1016.020775
768.304467
503.567457
242.465734
121.545792
41.731000
17.726421
9.397864
8.546710
8.501410
8.487701
8.497834
8.804798
9.006858
##ZVALUE=385
0.972748
1.036525
1.201630
1.069903
0.910759
1.115799
1.004934
1.103878
0.919700
0.859499
1.008511
0.943542
1.007915
1.152754
0.991821
0.986457
1.035929
1.185536
1.101494
1.097918
1.047850
1.054406
1.187921
1.313686
0.935793
1.154542
1.195669
1.198649
1.244545
1.352429
1.176596
1.326799
1.211762
1.168847
1.372695
1.337528
1.302958
1.443624
1.199841
1.346469
1.389980
1.393557
1.384616
1.533628
1.327991
1.319647
1.410842
1.447797
1.570582
1.361966
1.406670
1.588464
1.422763
1.444817
1.616478
1.781583
1.759529
1.619458
1.562834
1.715422
1.788735
1.983643
2.106428
2.080798
2.275705
2.345443
2.547503
2.838969
2.957582
3.489852
3.717542
3.930926
4.471540
8.340478
47.486424
222.505331
477.481484
959.022641
1015.788913
1015.788913
1015.788913
1015.788913
1015.788913
1015.788913
1015.788913
968.469977
668.046474
354.748964
197.931528
79.328418
32.159686
10.575652
7.739663
7.577538
7.788539
7.630587
##ZVALUE=390
1.028776
0.950694
1.026988
0.954866
0.906587
1.052618
1.015663
1.074672
1.140833
1.048446
1.093745
1.140833
0.943542
1.051426
1.085997
1.042485
1.069903
1.084805
1.168847
1.040697
1.039505
1.092553
1.055598
1.144409
1.174808
1.227856
1.295805
1.227856
1.284480
1.248717
1.373887
1.265407
1.300573
1.141429
1.280904
1.540780
1.296997
1.203418
1.294613
1.344681
1.352429
1.377463
1.367927
1.337528
1.468658
1.239777
1.323819
1.350641
1.402497
1.442432
1.488924
1.490712
1.414418
1.564622
1.541972
1.620650
1.778603
1.789927
1.798868
1.668930
1.834631
1.914501
1.816750
2.020597
2.129674
2.201796
2.346635
2.397895
2.955794
3.184676
3.134608
3.324747
3.343821
3.648996
3.987551
5.056858
20.497441
130.049586
331.907868
798.739791
1015.794873
1015.794873
1015.794873
1015.794873
1015.794873
1015.794873
1015.794873
1015.794873
874.724984
515.723825
294.943452
117.053986
51.238537
14.891624
8.466840
7.168651
##ZVALUE=395
0.979900
1.039505
0.862479
1.048446
1.136661
0.977516
1.029968
0.922680
1.116991
1.115799
1.096725
1.091957
0.990629
1.058578
1.028776
1.131892
1.138449
1.100898
1.074672
1.188517
1.115799
1.149774
1.143813
1.102686
1.120567
1.249909
1.221895
1.192689
1.302958
1.317859
1.169443
1.276731
1.166463
0.995994
1.338720
1.345873
1.247525
1.357794
1.162887
1.417994
1.291633
1.402497
1.265407
1.423955
1.430511
1.369715
1.438856
1.397729
1.477599
1.414418
1.464486
1.655817
1.554489
1.462698
1.710653
1.735687
1.730919
1.862645
1.671910
1.661777
1.706481
1.754761
1.897812
1.905560
2.021790
2.181530
2.255440
2.573729
2.614856
2.824664
3.078580
2.982616
2.811551
3.023744
3.057718
3.318787
3.452897
4.078746
8.668900
79.453588
236.765742
632.620454
988.360643
1015.782952
1015.782952
1015.782952
1015.782952
1015.782952
1015.782952
1015.782952
1013.525724
635.722876
385.254622
165.606737
77.584982
24.894476
##ZVALUE=400
0.956655
1.004934
0.930429
0.997782
0.838637
1.125932
1.130700
1.125932
1.013875
1.124740
0.986457
1.103878
1.145601
0.895858
0.896454
0.981688
1.132488
0.993609
1.098514
0.939965
0.977516
1.118779
1.126528
1.130700
1.203418
1.245737
1.197457
1.057982
1.271963
1.207590
1.326799
1.265407
1.244545
1.194477
1.112819
1.347661
1.262426
1.238585
1.387596
1.210570
1.314878
1.399517
1.359582
1.326799
1.384616
1.358986
1.445413
1.491904
1.378655
1.526475
1.371503
1.423955
1.401901
1.528859
1.539588
1.536608
1.631975
1.536608
1.580715
1.774430
1.804829
2.005696
2.000928
1.861453
1.981854
2.273917
2.184510
2.536774
2.655983
2.799630
2.752542
2.658963
2.615452
2.756715
2.539754
2.721548
2.923608
3.280640
3.374815
3.840923
4.967451
40.118694
140.344501
426.890850
770.152807
1015.787721
1015.787721
1015.787721
1015.787721
1015.787721
1015.787721
1015.787721
1015.787721
792.398453
510.232449
249.191523
##END
