##TITLE=FSH701
##FORMAT=SPECTACLE-ASCII V-1.2
##DATA TYPE=ULTRAVIOLET SPECTRUM
##SECOND TYPE=ULTRAVIOLET SPECTRUM
##DATE=11/28/17
##TIME=18:15:54
##SPECTROMETER/DATA SYSTEM=SPECTACLE
##XUNITS=NM EM
##YUNITS=ENERGY
##YFACTOR=1
##FIRSTX=220
##LASTX=410
##NPOINTS=96
##3DDATA=Equidistant
##ZUNITS=NM EX
##FIRSTZ=210
##LASTZ=400
##ZPOINTS=39
##XYDATA=(Y..Y)
##ZVALUE=210
3.067851
3.092885
3.579855
3.514886
3.111959
3.571510
4.092455
4.365444
4.153848
4.033446
4.447699
4.465580
4.622936
4.870892
4.939437
5.690455
6.353855
6.389618
7.425547
6.796718
6.738901
8.994937
8.587837
9.730458
9.929538
10.845661
11.423826
12.217760
11.563897
11.672974
13.262630
12.770891
14.025569
12.522936
15.497804
15.173554
14.595985
14.874935
14.650822
16.282797
16.544461
16.461611
17.175674
16.954541
17.320514
20.156503
18.813610
18.967986
18.374920
19.559860
20.145774
21.464825
21.665692
22.111535
21.704435
22.070408
22.768974
22.642612
24.464726
24.193525
24.164915
23.298860
24.363995
21.637678
24.826527
26.645660
27.673841
27.789474
36.374927
38.788915
46.510696
56.461692
68.190694
76.858997
84.501505
92.532635
100.009441
99.489689
100.500584
99.384785
95.075965
86.065531
74.002743
67.297816
53.315759
45.766830
35.641789
31.594634
28.318763
28.517842
24.898648
23.509860
24.802685
25.590658
23.920536
24.720430
##ZVALUE=215
8.212924
8.357763
8.793473
8.184910
6.042719
5.640984
6.046891
5.947948
6.425977
6.970763
7.377863
7.034540
5.759597
6.157756
6.025434
5.886555
6.890893
6.453991
6.401539
7.197857
7.756948
8.904934
8.065701
8.728504
8.954406
10.057688
11.082888
11.552572
10.449886
11.696815
13.031960
13.478994
13.422966
13.832450
14.318824
14.577508
15.071630
15.514493
16.264915
17.224550
16.709566
18.187761
16.784668
16.611814
18.020868
19.734502
17.332435
18.489957
17.945766
18.537641
21.170974
20.686984
19.529462
19.993782
22.847652
21.599531
23.409724
21.304488
23.009777
22.639632
23.669600
23.632646
22.607446
24.809837
22.977591
25.257468
25.496483
29.575825
31.641722
41.761994
43.118000
49.449801
61.559677
73.519945
76.464415
81.242919
85.711479
87.011456
83.798766
83.409548
78.293681
76.640844
56.964755
60.322881
44.206977
42.590499
32.277703
30.738711
26.377439
25.938749
24.987459
22.770762
25.749803
24.673939
22.855997
21.969676
##ZVALUE=220
25.786757
26.236773
33.151507
34.485459
34.408569
30.951500
24.734735
17.232895
14.487505
12.690425
12.733936
13.335943
12.485981
11.656880
11.394620
9.737611
8.691549
8.207560
7.126927
8.114576
7.981658
8.063912
8.527637
9.756684
10.232925
11.471510
11.702776
11.636615
13.919473
14.071465
14.995933
15.264750
17.636418
17.559528
16.648769
18.120408
16.820431
18.873811
18.000603
18.609762
18.952489
19.300580
18.109679
20.248890
20.086765
19.507408
20.795465
22.482872
20.565987
21.462440
21.660924
22.936463
21.147728
23.627877
23.573637
23.278594
23.812652
25.025606
25.643706
27.599931
23.334622
24.500489
25.029778
24.052858
25.785565
27.471781
30.288696
30.140877
32.508969
37.856698
44.912696
53.504705
59.126616
64.836740
74.094534
76.184869
79.193711
79.942942
80.205798
75.900555
73.648691
71.033835
61.776638
55.871606
46.986938
40.724874
34.417510
31.015873
26.446581
26.719570
27.856827
26.295781
25.055408
24.698973
25.398731
23.530722
##ZVALUE=225
48.309565
47.665834
70.119500
101.187825
113.011599
118.447542
112.367868
98.070502
74.004531
54.163933
37.204623
27.475953
25.592446
25.315881
25.903583
27.195811
22.441745
20.296574
17.672777
11.696815
10.979772
8.690953
9.832978
10.131598
10.568500
10.301471
11.639595
13.899803
13.812780
14.943480
14.759898
15.501976
19.252896
18.565655
18.158555
19.618869
20.508766
18.937588
19.891858
21.195412
20.420551
20.453930
22.265911
21.834970
24.049878
23.289919
23.507476
25.325418
24.732947
27.908683
27.105808
28.790832
27.834773
29.305816
29.835701
28.835535
29.459000
30.099750
30.802488
34.677982
30.244589
32.802820
33.450723
33.510923
32.991767
34.330487
33.693910
37.295818
41.353703
44.341683
49.952865
53.436756
60.659647
65.938830
69.081783
74.054599
73.786974
75.028539
72.355866
68.587661
63.203573
59.877634
55.382848
50.750971
45.927763
42.510629
38.912892
37.484765
34.464598
30.657649
34.847856
31.785965
30.389428
30.413866
30.928850
31.057596
##ZVALUE=230
41.864514
45.090914
79.030991
157.397985
218.149424
295.169950
341.630578
367.893577
334.998965
283.283591
197.629929
133.159757
75.053573
57.646632
46.889782
46.091676
50.885677
49.104691
47.233701
38.180947
31.220913
23.746490
17.286539
14.256835
13.548732
12.101531
11.005998
12.133718
13.380647
14.365911
15.222430
15.973449
15.952587
17.855763
17.958879
18.346906
19.922853
21.131635
22.653937
23.721457
21.537542
24.070740
25.716424
25.796890
27.238727
29.486418
31.330585
31.548738
32.022595
34.966469
37.828684
38.260818
39.678812
39.236546
41.726828
42.066574
43.287873
42.000413
43.874979
46.758652
47.285557
45.089722
47.264695
49.520731
50.373673
49.308538
52.344799
54.720640
60.434937
62.288642
65.123439
70.492625
76.366663
80.748796
84.272623
85.073709
85.965991
84.407926
85.899830
81.069469
76.762438
71.115494
67.384839
65.050721
57.461858
53.709745
53.813457
50.042868
50.291419
49.392581
48.874617
46.163797
47.042966
47.695637
44.689775
46.350956
##ZVALUE=235
13.368726
15.479922
45.555830
93.496442
196.505785
287.322998
460.940599
586.213470
724.517703
745.627880
667.193532
562.879443
431.240797
263.646841
174.699426
102.542639
81.229806
77.273846
83.927512
79.682469
79.314709
66.794753
53.178668
42.550564
29.283762
23.812652
16.968846
14.381409
13.515949
13.951659
14.071465
15.294552
15.974641
17.623901
16.733408
19.893646
20.546913
20.388961
21.589994
23.612976
25.003552
28.547645
30.444860
32.762885
36.727786
38.291812
40.691495
45.200586
46.158433
49.969554
53.440928
55.545568
56.782961
62.167645
61.391592
63.672662
63.075423
63.341856
65.170527
67.922473
66.681504
66.856742
69.960952
71.444511
68.707466
74.073672
73.587894
79.389811
78.067780
83.242655
86.224675
92.592835
97.688437
96.369982
103.104711
104.950666
107.818842
103.662610
100.068450
100.586414
94.725490
91.794729
84.662437
80.290437
79.114437
75.631738
72.327852
72.371960
67.561865
67.751408
64.257979
65.116882
62.296987
62.236786
61.826706
60.581565
##ZVALUE=240
3.048778
2.581477
7.019639
19.820929
63.552856
128.059983
278.086662
449.161530
730.542541
919.698477
1015.798450
1015.798450
1015.798450
863.008499
667.719841
430.743694
281.231999
161.538720
115.372539
100.016594
104.887486
109.178424
107.984543
100.730658
80.952644
69.511533
50.271749
38.674474
25.450587
19.859672
17.206669
16.209483
15.581846
16.049743
17.252564
19.412637
20.241737
20.559430
25.178790
27.343631
30.004978
36.027431
37.830472
40.924549
44.123530
47.746897
55.028796
59.665442
63.999891
68.129897
74.376464
79.991817
81.064701
82.138777
82.875490
88.596940
86.005926
88.754892
91.725588
91.265440
90.557933
90.237856
87.224841
91.869831
93.426704
95.116496
97.680688
97.611547
101.293921
104.485750
107.107759
110.494494
112.633705
118.252635
119.503736
119.955540
120.561719
118.414760
114.638805
112.492442
110.526681
104.445815
103.315711
99.169612
96.784830
90.556741
89.529753
85.498691
83.624721
79.845786
81.937909
78.770518
79.309940
74.564815
76.477528
71.406960
##ZVALUE=245
2.810955
2.800822
2.998710
2.919436
6.030798
16.341805
59.961677
133.956671
322.046876
531.523824
869.324803
1015.709639
1015.709639
1015.709639
1015.709639
1015.709639
956.651568
651.226640
457.471609
246.415734
158.468485
109.447837
108.826756
119.582415
127.471685
124.477744
110.000968
96.834898
72.523952
57.801604
44.487715
27.400851
22.629499
17.781854
17.392635
18.280745
18.349886
22.785664
23.449659
28.196573
29.884577
36.819577
41.605830
48.971772
52.543879
58.138967
62.392950
65.781474
72.510839
79.727769
83.405972
83.664656
91.456771
92.197657
95.694661
96.620917
98.923445
96.532702
98.423958
101.372004
97.494721
99.417567
100.446939
97.007751
99.690557
94.805956
93.644857
99.075437
94.580650
101.062655
100.020766
104.689598
105.832815
108.830929
110.167861
108.993649
110.183954
106.727481
105.847716
103.422999
96.345544
95.642805
92.784762
91.378689
87.155700
85.582733
82.218647
80.589652
80.419779
78.106523
78.717470
75.354576
75.013638
72.796941
70.340633
74.910522
##ZVALUE=250
2.531409
2.778769
2.618432
2.543926
3.030896
2.674460
3.725886
12.692809
41.524768
135.138631
271.260738
557.851791
833.848715
1015.774608
1015.774608
1015.774608
1015.774608
1015.774608
1015.774608
920.878649
560.365915
355.634689
168.632865
111.197829
100.987554
115.729570
127.125978
134.106874
131.100416
119.249821
103.774667
79.217553
62.185526
40.748715
31.660795
23.564696
21.375418
22.263527
22.625923
28.802752
32.778978
38.421750
42.267442
48.252940
53.418875
59.338808
62.201619
69.542527
74.792504
83.276629
84.520578
88.025928
89.592934
94.075799
92.534423
96.282959
94.758868
96.026659
95.882416
92.982650
92.994571
92.297792
89.844465
92.525482
88.604689
89.512467
85.083842
86.605549
87.042451
86.045861
87.250471
90.249777
90.450644
89.792609
91.562867
92.350841
91.581941
89.563727
87.969899
84.326863
83.870888
80.925822
80.990791
77.812672
74.221492
73.597431
74.548721
72.755814
71.549416
70.499778
72.552562
71.301460
67.861676
68.134665
67.337751
67.421794
##ZVALUE=255
2.093911
2.154708
2.201796
2.398491
2.370477
2.750754
2.533793
2.545714
3.168583
6.470680
34.104586
90.956688
195.140839
440.194607
700.056553
1015.788913
1015.788913
1015.788913
1015.788913
1015.788913
1015.788913
1015.788913
729.168653
465.638638
224.149823
134.771466
96.187592
98.966956
120.767951
133.592486
142.222643
138.018727
129.605532
107.577443
87.070465
61.159730
48.065782
36.126971
31.741858
29.806495
32.003522
37.449598
40.714741
47.339797
52.179694
56.830645
60.862899
66.163540
70.979595
74.659586
75.235963
80.019832
82.743764
83.277822
83.218813
84.786415
83.599687
82.574487
80.596805
81.849694
82.399845
80.106854
78.642964
74.818730
74.785948
74.605942
71.596503
69.921613
71.684718
70.632696
70.744753
73.406696
74.469447
75.433850
76.854825
75.222850
75.006485
73.882937
72.643757
73.469877
71.376562
67.000985
66.340566
64.496994
68.531632
64.216852
64.620972
62.135458
62.393546
62.264800
64.312816
60.430765
61.767697
59.911609
61.894655
61.816573
##ZVALUE=260
2.136827
2.147555
2.000928
2.011657
2.334714
2.390742
2.404451
2.355576
2.560616
2.705455
3.218651
3.851652
12.903810
57.308674
136.407614
338.391662
578.051805
966.190696
1015.788913
1015.788913
1015.788913
1015.788913
1015.788913
1015.788913
904.983878
596.894622
330.862999
189.614892
99.196434
87.705851
96.429586
121.794939
140.152574
148.497820
146.830678
130.151510
113.434792
92.094541
74.068904
54.629445
47.088861
40.481687
39.849877
41.535497
44.467449
47.757626
52.346587
56.684613
59.508681
62.675476
67.055821
67.590475
68.581700
70.179701
67.268610
71.084499
71.182847
68.221688
68.025589
68.611503
67.258477
66.312551
66.081882
64.504743
61.449409
62.238574
61.451793
60.030818
60.050488
62.067509
61.202645
63.571930
62.986612
65.908432
64.865947
65.619946
66.054463
63.221455
63.602924
63.709617
60.886741
60.140491
59.864521
59.124827
59.542656
58.769584
57.099462
56.685805
56.604743
56.159496
56.337714
55.189729
55.932999
55.459738
55.519938
55.354834
##ZVALUE=265
2.111793
1.901984
1.988411
2.083778
1.948476
2.133846
2.341866
2.198815
2.765656
2.576709
2.544522
2.866983
3.025532
3.254414
9.514689
32.661557
123.507977
251.422524
441.460609
886.441469
1015.788913
1015.788913
1015.788913
1015.788913
1015.788913
1015.788913
1015.788913
791.932940
503.214598
248.349905
137.258768
81.401467
83.974004
109.910965
130.214691
148.681998
154.801607
149.030685
140.041709
116.372705
101.020932
77.666640
63.227415
50.639510
46.940446
46.846867
47.587752
49.769878
50.936937
52.694678
54.922700
56.738853
59.299469
60.112476
59.584975
59.734583
59.931874
59.173703
57.742000
58.525801
58.142543
57.292581
57.580471
56.985617
55.074692
55.251718
54.896474
54.425001
55.457950
56.072474
56.688786
58.373809
57.708621
59.659481
59.352517
58.888793
59.580803
58.678985
58.228970
57.158470
56.255460
56.362748
54.110885
54.698586
54.485798
55.105686
54.128766
53.522587
53.991675
54.744482
53.151846
51.684976
53.038597
52.644610
50.745606
53.761601
##ZVALUE=270
1.754761
1.750588
1.698732
1.965761
1.751781
1.807809
1.925826
1.972914
2.026558
2.088547
2.291799
2.484918
2.522469
2.750754
2.691746
3.404617
4.272461
18.608570
60.185790
197.457671
393.812656
705.177784
1015.784740
1015.784740
1015.784740
1015.784740
1015.784740
1015.784740
1015.784740
1015.784740
781.777501
394.376516
211.221576
89.981556
67.817569
86.890459
109.630823
134.471655
152.134895
160.434842
158.790946
146.595836
129.595995
107.242465
85.469484
67.156553
58.108568
52.041411
49.636960
49.753785
50.600767
50.009489
52.217841
52.760839
54.234862
54.337978
54.224730
54.025650
55.026412
54.698586
53.511858
53.965449
53.613782
54.496527
52.427649
52.843690
51.603913
54.115653
53.532720
53.814650
54.861903
55.947900
56.637526
57.686567
57.135820
56.876540
58.381557
57.441592
56.443810
55.332780
54.896474
52.672625
51.821470
51.938891
52.248836
52.158833
51.422715
52.296519
50.081611
49.743652
49.472451
50.847530
50.479770
49.560666
49.857497
51.681995
##ZVALUE=275
1.780987
1.589656
1.683831
1.701713
1.763701
1.737475
1.817942
1.797676
1.844764
2.028942
2.191663
1.959801
2.222657
2.277493
2.511740
2.839565
2.807975
2.956986
3.336668
7.834435
31.965971
136.624575
291.957855
642.665029
993.815660
1015.788913
1015.788913
1015.788913
1015.788913
1015.788913
1015.788913
1015.788913
933.166742
496.901870
279.632807
118.910670
70.098639
66.717863
84.164739
113.024712
135.192871
157.122612
163.501501
160.947442
151.170492
129.932761
110.097528
87.745786
73.713660
62.826872
54.807663
51.552653
50.371885
51.660538
50.302744
52.226782
52.134991
53.992867
52.345991
53.634644
54.453611
56.689978
54.197907
54.811835
54.822564
54.026842
54.279566
55.623651
55.020452
55.777431
56.842566
56.991577
57.169795
58.619976
58.850646
58.220625
57.223439
55.605769
55.399537
54.600835
54.012537
51.923990
52.520633
52.119493
50.514936
51.148534
50.973892
50.924420
51.506758
48.786998
49.151778
49.707890
47.527552
46.489835
46.640635
47.697425
##ZVALUE=280
1.579523
1.742840
1.425743
1.554489
1.472831
1.481771
1.693964
1.788735
1.887679
1.826882
1.938939
1.774430
1.884699
2.000928
2.234578
2.171993
2.204776
2.329946
2.655983
3.060699
3.291965
4.093647
23.738742
81.933737
263.034701
476.010442
885.943770
1015.774012
1015.774012
1015.774012
1015.774012
1015.774012
1015.774012
1015.774012
1015.774012
667.991042
392.236710
169.491768
84.641576
54.354668
61.633587
89.432597
111.419559
139.005780
155.059695
162.253976
161.067843
150.323510
135.455728
109.284520
92.412829
74.918866
65.475702
56.620836
52.894950
51.914454
51.886439
52.519441
53.845644
53.683519
55.425763
54.998994
55.561662
56.571960
56.286454
55.981874
56.681633
55.812597
56.844950
57.562590
57.707429
57.595968
59.513450
59.195757
59.810877
58.285594
58.083534
56.900978
56.133866
55.254698
55.735707
53.668618
53.724647
53.004622
51.008463
51.476955
51.606894
50.621629
50.070882
48.384666
48.953891
47.960877
47.554970
47.110915
46.287775
45.812726
##ZVALUE=285
1.546741
1.572967
1.369715
1.486540
1.570582
1.523495
1.370907
1.533628
1.658797
1.553893
1.767874
1.762509
1.773834
1.840591
1.966953
1.913905
2.088547
2.319813
2.694726
2.488494
2.970695
2.919436
3.124475
3.907681
8.904934
53.937435
142.337680
362.998843
627.630949
1015.788913
1015.788913
1015.788913
1015.788913
1015.788913
1015.788913
1015.788913
1015.788913
885.871053
549.075603
252.902508
126.957893
54.304600
47.272444
63.529611
83.281994
110.778809
132.515430
151.083469
160.027742
161.642432
151.632428
135.324001
117.596984
95.348954
81.113577
65.185428
60.519576
55.172443
56.225657
55.527687
56.914687
58.370829
57.939887
57.875514
58.218837
57.695508
58.026910
59.576631
59.647560
60.577989
60.928464
60.109496
59.444904
59.932470
59.782863
60.368776
58.672428
57.594776
58.033466
56.352615
55.383444
54.922700
54.077506
53.752661
53.373575
51.364899
52.029490
50.710440
50.441623
49.391985
47.637820
48.222542
47.024488
46.546459
46.409965
45.835972
##ZVALUE=290
1.506805
1.519918
1.443624
1.442432
1.543760
1.535416
1.480579
1.582503
1.585484
1.498461
1.569986
1.763701
1.769662
2.057552
1.865625
1.852512
1.937747
1.933575
2.095699
2.269745
2.696514
2.486706
2.449751
2.933741
3.291965
3.495812
5.107522
17.421842
85.429549
210.008025
420.267582
871.116519
1015.788913
1015.788913
1015.788913
1015.788913
1015.788913
1015.788913
1015.788913
1015.788913
750.434995
367.879868
189.040899
70.692897
40.930510
44.967532
58.272481
81.107616
102.696419
130.796432
146.506429
160.284638
161.377788
152.271986
138.546824
113.542676
99.622607
80.982447
72.666407
64.119697
60.853958
58.458447
59.368610
59.361458
59.442520
59.160590
59.172511
60.527921
60.250759
60.853958
62.741637
60.751438
62.335730
62.051415
61.373711
60.686469
59.426427
59.545636
58.842897
57.671666
57.585835
55.308938
55.436492
54.434538
53.080916
52.675605
51.273704
51.724911
51.083565
49.006939
48.918724
49.147606
47.606826
47.499537
47.126412
45.594573
##ZVALUE=295
1.405478
1.383424
1.484752
1.172423
1.453757
1.637936
1.506805
1.448989
1.424551
1.555681
1.566410
1.657605
1.529455
1.859665
1.762509
1.495481
1.637936
1.938939
1.793504
2.000928
2.126694
2.073646
2.170801
2.130866
2.563000
2.839565
2.914667
3.361702
4.058480
7.869601
43.708682
132.122636
310.173631
725.389719
1015.782952
1015.782952
1015.782952
1015.782952
1015.782952
1015.782952
1015.782952
1015.782952
958.337784
494.538546
268.095732
102.277994
48.839450
34.335852
41.470528
60.533881
79.117417
106.941462
127.168894
149.418712
157.925487
159.707665
152.667761
134.264827
120.502710
101.233721
86.276531
74.137449
67.141652
61.764717
59.491992
58.883429
59.016943
59.354901
61.129928
61.285496
61.036944
62.145591
60.807467
61.498880
60.878992
59.643984
58.943629
59.692860
58.498979
56.537986
55.923462
55.820942
55.371523
54.645538
53.810477
53.140521
52.413940
51.970482
51.143765
49.309731
49.835443
48.916936
48.000813
45.985579
46.386719
45.696497
##ZVALUE=300
1.317859
1.358986
1.299977
1.552701
1.256466
1.251698
1.442432
1.399517
1.471639
1.713634
1.527667
1.374483
1.490712
1.580715
1.657605
1.608729
1.447797
1.661777
1.768470
1.770854
2.045631
1.981854
2.183914
2.103448
2.250671
2.560616
2.466440
2.656579
3.010631
3.150702
3.332496
4.578829
13.414621
85.207820
219.076872
557.829738
928.705931
1015.788913
1015.788913
1015.788913
1015.788913
1015.788913
1015.788913
1015.788913
1015.788913
689.958930
407.103896
181.228518
85.694790
37.666559
35.695434
47.589540
60.147643
82.956553
101.150870
129.717588
143.387914
156.258941
157.509446
150.251985
139.700770
119.936466
103.661418
86.122751
75.685978
65.961480
61.895847
59.723854
60.340762
60.358644
60.237646
60.743690
60.146451
59.593916
59.753656
59.684515
59.628487
58.615804
58.305860
57.964921
56.499839
56.575537
55.628419
55.475831
54.243803
53.667426
53.899884
52.505732
52.231550
50.759912
50.291419
48.626661
48.575997
47.546625
46.924949
46.759844
##ZVALUE=305
1.579523
1.635551
1.406670
1.571774
1.618862
1.655817
1.618862
1.625419
1.518726
1.619458
1.744628
1.521707
1.828671
1.798868
1.672506
1.820922
1.904964
1.866817
1.898408
1.878738
2.017617
1.922846
2.097487
2.146959
2.382994
2.622604
2.542734
2.689958
2.907515
2.923608
3.423691
3.452897
4.155636
4.439950
10.095835
40.150881
171.497464
380.761623
841.840506
1016.031504
1016.031504
1016.031504
1016.031504
1016.031504
1016.031504
1016.031504
1016.032100
990.404487
532.577634
294.789672
120.613575
57.701468
36.869645
40.321946
49.986839
63.103437
85.264444
103.642941
125.232935
140.570998
152.595639
153.908730
144.982934
135.460496
116.212964
101.783872
83.617568
73.212981
65.151453
60.971975
59.489608
58.584809
59.063435
59.093833
58.763623
59.295893
58.398843
57.814717
58.552623
58.262944
57.183504
57.118535
56.806803
56.899786
57.283640
55.561662
55.429935
54.086447
53.456426
52.344799
52.331686
50.606728
50.105453
49.318671
48.836470
48.359632
##ZVALUE=310
1.302958
1.201630
1.183748
1.379848
1.299977
1.318455
1.251698
1.399517
1.440644
1.378655
1.377463
1.498461
1.286864
1.451969
1.430511
1.347661
1.430511
1.330972
1.547933
1.762509
1.740456
1.814961
1.802444
1.855493
1.894832
1.995564
2.266765
2.271533
2.371669
2.265573
2.622604
2.720952
3.004670
3.238916
3.410578
3.794432
5.019903
22.278428
77.632666
267.957449
532.600880
1005.660892
1015.788913
1015.788913
1015.788913
1015.788913
1015.788913
1015.788913
1015.788913
1015.788913
851.427913
417.737961
220.960975
84.227920
43.969750
35.475492
40.331483
49.680471
59.749484
79.362988
94.025731
117.141604
130.044818
141.820908
144.171715
137.676001
127.631426
110.456944
95.869899
80.387592
71.107745
63.049793
59.607625
56.678653
56.379437
55.832863
56.314468
55.623651
57.003498
56.456923
56.239963
55.925846
56.725740
55.943727
55.935979
55.913925
55.343509
54.114461
53.515434
52.895546
52.666664
52.120686
50.578713
49.960613
49.417615
49.187541
##ZVALUE=315
1.236796
1.203418
1.419783
1.255870
1.017451
1.279712
1.330972
1.271963
1.284480
1.300573
1.476407
1.283884
1.319647
1.433492
1.294613
1.489520
1.514554
1.469851
1.488924
1.605749
1.519918
1.833439
1.844764
1.797676
1.741648
2.045631
1.673698
2.076626
2.033710
2.323985
2.124906
2.193451
2.421737
2.694726
3.026724
2.938509
3.528595
3.930926
4.067421
9.996891
39.717555
173.592567
393.454432
900.696516
1015.790701
1015.790701
1015.790701
1015.790701
1015.790701
1015.790701
1015.790701
1015.790701
1015.790701
615.792871
333.497524
124.636889
56.742430
34.841895
34.715533
39.510727
45.162439
57.912469
69.437623
87.615848
103.707910
122.350454
130.139589
133.934617
130.563974
118.954778
107.002854
91.006756
80.158710
68.103671
60.744882
55.705905
54.669976
54.072738
53.831935
54.754615
54.839849
56.211948
55.114627
55.352449
55.181980
54.296851
54.955482
54.861903
54.827929
53.583980
53.325891
51.597953
52.130818
50.657988
49.741864
49.487948
##ZVALUE=320
1.227856
1.319647
1.172423
1.213551
1.254678
1.226664
1.101494
1.381636
1.242757
1.265407
1.305938
1.481771
1.284480
1.405478
1.414418
1.328588
1.401901
1.449585
1.492500
1.595616
1.479983
1.507998
1.524687
1.846552
1.695752
1.601577
1.652837
1.750588
1.769662
2.117753
1.915693
2.008677
2.270937
2.315640
2.484918
2.547503
2.727509
2.912879
3.256798
3.512502
3.910661
5.619526
17.907619
101.864934
262.872577
696.974993
1015.788913
1015.788913
1015.788913
1015.788913
1015.788913
1015.788913
1015.788913
1015.788913
1015.788913
782.954693
446.308851
189.875960
88.283420
34.944415
28.394461
29.481649
32.522678
38.661957
46.672821
62.790513
76.458454
96.546412
110.714436
123.029947
125.974417
122.575760
114.609003
98.800659
87.227821
73.953867
64.097643
57.300925
54.318905
52.223802
52.418709
52.709579
53.087473
53.006411
54.289699
53.922534
53.579807
53.518414
53.402781
53.195953
51.828623
51.553845
50.883889
50.688982
51.012635
49.226880
##ZVALUE=325
1.147985
1.080632
1.157522
1.239777
1.171827
1.240969
1.210570
1.094937
1.219511
1.254678
1.280904
1.299977
1.478791
1.352429
1.163483
1.299977
1.299977
1.308918
1.358986
1.535416
1.430511
1.602769
1.397729
1.489520
1.675487
1.579523
1.647472
1.785755
1.701713
1.725554
1.737475
1.927614
1.971722
2.007484
2.106428
2.291799
2.270937
2.423525
2.531409
2.832413
3.157854
3.469586
3.850460
4.538894
9.758472
66.322684
180.280805
478.478670
862.702727
1015.783548
1015.783548
1015.783548
1015.783548
1015.783548
1015.783548
1015.783548
1015.783548
973.204970
601.454973
257.434845
119.291544
39.934516
23.871660
21.896958
23.885965
27.996898
33.000708
43.704510
56.163669
74.749589
88.661909
106.259584
113.846660
118.534565
115.862489
104.757547
94.839931
80.199838
70.105791
59.892535
55.385828
51.755905
50.683618
51.088929
51.115751
52.152872
51.868558
52.296519
52.085519
51.667690
50.675869
50.029755
50.807595
49.361587
49.478412
49.580932
##ZVALUE=330
1.305938
1.380444
1.100898
1.108646
1.087785
1.146793
0.904799
1.148582
1.199841
1.027584
1.254678
1.081824
1.377463
1.460910
1.281500
1.203418
1.364946
1.393557
1.436472
1.245737
1.395941
1.438856
1.462698
1.389980
1.384616
1.538992
1.601577
1.449585
1.644492
1.580715
1.704693
1.734495
1.746416
1.949668
2.031922
2.096891
2.290606
2.118945
2.384782
2.490878
2.408624
2.665520
3.013611
3.264546
3.446937
4.184842
5.846620
28.925538
96.593499
329.558849
639.982820
1015.788913
1015.788913
1015.788913
1015.788913
1015.788913
1015.788913
1015.788913
1015.788913
1015.788913
804.548860
369.760990
182.332993
61.919689
28.017759
20.725727
21.285415
23.679733
26.887655
34.548640
42.155981
56.466460
69.928765
88.505745
99.435449
109.604001
112.798810
109.061003
102.855563
88.676810
78.200698
67.025423
61.368942
55.289865
52.728653
50.698519
49.468875
50.840974
49.582720
50.158501
49.385428
49.196482
49.097538
48.756599
48.790574
48.359632
##ZVALUE=335
1.036525
1.164675
1.049638
1.111627
1.197457
1.084805
1.174808
1.190901
0.962615
1.231432
1.311898
1.230836
1.417994
1.362562
1.265407
1.203418
1.282692
1.125932
1.205802
1.190901
1.104474
1.319647
1.231432
1.437664
1.334548
1.450777
1.388788
1.594424
1.446605
1.479983
1.620650
1.665950
1.762509
1.735687
1.906753
1.871586
1.952648
1.913905
2.176762
2.272725
2.052784
2.335906
2.486706
2.783537
2.914667
3.236532
3.617406
3.880858
4.469752
12.890697
48.713684
198.574662
428.226590
948.124528
1015.788913
1015.788913
1015.788913
1015.788913
1015.788913
1015.788913
1015.788913
1015.788913
989.491940
526.140928
269.959569
88.889599
38.220882
22.031665
21.228790
23.408532
25.326610
29.334426
34.311414
44.413805
54.674745
70.656538
82.090497
97.510815
104.679465
107.908845
105.779767
96.021891
88.045597
77.560544
68.272948
60.246587
55.521727
50.756931
48.387647
47.941804
47.672987
47.034621
46.618581
47.154427
46.807528
47.159791
##ZVALUE=340
1.074672
1.179576
1.042485
1.192689
1.099706
1.162887
1.144409
1.285672
1.097918
1.254678
1.235604
1.304746
1.121759
1.145601
1.023412
1.135468
1.230836
1.271963
1.141429
1.344681
1.452565
1.307726
1.356602
1.475811
1.461506
1.416802
1.607537
1.490712
1.406670
1.433492
1.582503
1.524687
1.653433
1.559854
1.580715
1.654625
1.775622
1.867414
1.886487
1.867414
2.043843
2.161860
2.315640
2.273917
2.438426
2.749562
2.863407
3.099442
3.260970
3.613830
4.181862
5.674958
30.931830
102.551579
331.189036
672.940612
1015.829444
1015.829444
1015.829444
1015.829444
1015.829444
1015.829444
1015.829444
1015.829444
1015.829444
738.946795
338.825583
160.076022
47.630668
24.348497
21.875501
22.935867
24.993420
26.251674
30.563474
34.272671
43.689609
52.512884
67.798495
79.818964
93.074441
98.530650
102.225542
100.645423
93.871951
85.603595
74.303746
66.782832
57.387948
52.878857
48.318505
46.621561
45.205951
44.619441
43.962002
45.007467
##ZVALUE=345
0.796914
1.110435
1.071692
0.981688
1.105666
1.032948
1.101494
1.164675
1.117587
1.080632
1.148582
1.307726
1.190901
1.233816
1.273751
1.198649
1.099706
1.240969
1.446605
1.320839
1.380444
1.117587
1.179576
1.249909
1.199841
1.183748
1.354814
1.224875
1.378655
1.456738
1.436472
1.431704
1.497865
1.748800
1.466870
1.649857
1.606941
1.609921
1.719594
1.752973
1.804829
1.881719
1.911521
2.074838
2.275705
2.232790
2.345443
2.769828
2.762675
2.711415
3.048778
3.494620
3.995895
4.767776
10.556579
69.077611
196.444988
527.297854
929.434896
1015.788913
1015.788913
1015.788913
1015.788913
1015.788913
1015.788913
1015.788913
1015.788913
866.131783
493.074656
204.097629
88.661909
31.573772
22.587776
22.589564
22.915602
24.617910
25.995970
29.638410
33.570528
41.755438
50.036907
64.252615
74.872971
85.518956
91.519952
95.789433
94.277859
89.902878
81.800818
71.053505
62.834620
54.780841
49.445629
45.107603
43.431520
41.544437
##ZVALUE=350
1.055598
1.146793
1.256466
1.097918
0.908971
1.348853
1.116991
1.136661
1.170635
1.305938
1.191497
1.144409
1.205802
1.067519
1.169443
1.185536
1.281500
1.212955
1.214743
1.240969
1.237988
1.140833
1.165867
1.368523
1.379848
1.410842
1.233816
1.304746
1.509786
1.305938
1.425743
1.465678
1.548529
1.510978
1.397729
1.565814
1.695752
1.698732
1.748800
1.588464
1.718998
1.959801
1.947880
1.950860
1.977682
1.952648
2.126694
2.124906
2.423525
2.356768
2.772808
2.955794
2.974868
3.169775
3.711581
4.086494
7.536411
27.995706
127.944946
300.881863
735.580921
1015.788913
1015.788913
1015.788913
1015.788913
1015.788913
1015.788913
1015.788913
1015.788913
1015.788913
567.767620
307.887793
117.884874
47.056675
22.623539
21.007657
21.286607
22.339821
23.883581
24.826527
28.524995
32.208562
39.709806
46.549439
58.548450
67.204833
78.090429
84.075928
87.978840
87.296963
82.946420
76.205730
66.648722
58.699846
51.280856
46.771765
##ZVALUE=355
1.182556
1.218915
1.178980
1.029968
1.029968
1.114607
1.100898
1.166463
1.206994
1.029968
1.353621
1.265407
1.136661
1.263618
1.114607
1.057982
1.327991
1.382828
1.303554
1.480579
1.198649
1.327991
1.314878
1.382828
1.323819
1.299977
1.314878
1.303554
1.352429
1.520514
1.441836
1.494884
1.547933
1.524687
1.460910
1.598597
1.528859
1.516938
1.686811
1.679659
1.738667
1.651645
1.639724
1.842976
1.947880
2.056956
2.192855
2.135634
2.268553
2.381802
2.407432
2.509952
2.804995
2.993941
2.986789
3.388524
3.816485
4.162788
4.716516
16.770959
61.867833
235.724449
488.554835
976.747870
1015.788913
1015.788913
1015.788913
1015.788913
1015.788913
1015.788913
1015.788913
1015.788913
865.977407
380.011797
178.304911
54.798722
25.758743
19.714832
20.043850
20.956993
21.933913
22.927523
24.762750
26.872754
30.342937
36.435723
42.349696
52.580833
60.126781
69.181919
76.968670
80.378652
80.479980
76.602697
71.172714
62.545538
##ZVALUE=360
1.224875
1.137853
1.196861
1.159906
1.125932
1.169443
1.192689
1.223683
1.186728
1.286864
1.351833
1.299977
1.200438
1.292825
1.149774
1.259446
1.259446
1.317859
1.276731
1.394749
1.405478
1.400709
1.408458
1.311898
1.290441
1.442432
1.467466
1.494884
1.406670
1.576543
1.641512
1.590848
1.546741
1.758933
1.699924
1.749992
1.892447
1.630783
1.715422
1.789927
1.811981
1.625419
1.976490
1.923442
1.999736
2.004504
2.018809
2.156496
2.174973
2.160668
2.242923
2.498627
2.620816
2.788901
3.047585
3.141761
3.143549
3.580451
3.769994
4.275441
4.817843
8.193851
26.532412
123.415589
300.799608
755.543709
1015.788913
1015.788913
1015.788913
1015.788913
1015.788913
1015.788913
1015.788913
1015.788913
1015.788913
544.145703
278.874636
97.966790
38.647652
19.274950
19.010901
19.433498
19.636750
20.680428
20.995736
22.528768
24.411678
27.480721
30.400753
37.672520
43.526888
53.271651
60.588717
67.895651
71.488619
72.209835
##ZVALUE=365
1.249909
1.065731
1.071692
1.161695
1.164675
1.216531
1.225471
1.354814
1.254678
1.151562
1.096725
1.166463
1.130700
1.219511
1.176000
1.398921
1.259446
1.266599
1.340508
1.461506
1.358986
1.378655
1.299977
1.404881
1.182556
1.288652
1.339912
1.467466
1.496673
1.353621
1.478791
1.383424
1.431704
1.531839
1.470447
1.729727
1.519918
1.542568
1.612902
1.670718
1.544952
1.801848
1.780987
1.694560
1.871586
1.801848
1.892447
1.902580
1.928806
2.130866
2.109408
2.410412
2.247691
2.619624
2.581477
2.497435
2.825856
2.866983
3.107786
3.353953
3.693700
4.280806
4.726648
5.566478
11.995435
71.489811
193.702579
520.089865
946.733952
1015.788913
1015.788913
1015.788913
1015.788913
1015.788913
1015.788913
1015.788913
1015.788913
757.917762
404.980779
139.861703
53.859949
19.925833
17.443895
17.445683
17.740726
18.231869
19.076467
19.304752
20.446777
21.340847
23.876429
27.574897
31.834841
39.235950
45.670867
53.482652
##ZVALUE=370
1.082420
1.094937
1.103878
1.231432
1.215935
1.224875
1.202822
1.303554
1.120567
1.209974
1.265407
1.155734
1.217723
1.236796
1.156926
1.325607
1.160502
1.103878
1.347661
1.133680
1.275539
1.088977
1.211762
1.341701
1.182556
1.303554
1.344681
1.298785
1.401901
1.330972
1.346469
1.322627
1.360774
1.459718
1.315475
1.413822
1.412630
1.606941
1.539588
1.539588
1.598597
1.466870
1.638532
1.752973
1.770854
1.672506
1.670718
1.759529
1.935959
1.735687
1.822710
1.721978
2.040863
2.088547
2.150536
2.082586
2.188683
2.226830
2.542734
2.615452
2.967715
3.197789
3.310442
3.745556
3.932714
4.402995
6.704926
38.187504
125.193596
390.632749
751.974583
1015.788913
1015.788913
1015.788913
1015.788913
1015.788913
1015.788913
1015.788913
1015.788913
943.009853
533.349514
205.886960
87.733865
26.969910
17.398596
16.003847
16.228557
16.590953
16.990900
17.492771
17.879605
18.721819
20.029545
21.631718
23.944974
28.710961
##ZVALUE=375
1.172423
1.017451
0.983477
1.127720
1.275539
1.152754
1.072884
1.238585
1.162887
1.202822
1.114607
1.167655
1.036525
1.054406
1.116991
1.184940
1.104474
1.314878
1.255870
1.144409
1.128912
1.211762
1.156926
1.286864
1.181960
1.348853
1.290441
1.104474
1.125932
1.305938
1.352429
1.331568
1.449585
1.311898
1.427531
1.267791
1.328588
1.395941
1.340508
1.477599
1.503825
1.555681
1.583695
1.560450
1.480579
1.682639
1.544952
1.523495
1.606941
1.649857
1.664758
1.712441
1.685619
1.669526
1.957417
2.056956
2.050996
2.020597
2.154708
1.980662
2.563596
2.596974
2.467632
2.703667
2.965927
3.299713
3.684759
4.296899
5.159974
17.861724
65.532923
244.551897
518.445969
1015.788913
1015.788913
1015.788913
1015.788913
1015.788913
1015.788913
1015.788913
1015.788913
1015.788317
771.638751
375.270844
183.531642
54.543614
21.823645
14.878511
14.717579
15.037656
15.118718
15.428662
15.897751
16.897917
17.199516
18.039942
##ZVALUE=380
1.009703
0.948906
0.935793
0.982881
1.030564
0.948906
1.082420
1.029968
1.074672
0.971556
1.046658
1.103878
1.121759
1.122952
1.176596
1.046658
1.158714
1.144409
1.204610
1.157522
0.972748
0.985861
0.926852
1.037717
1.217723
0.985861
1.299977
1.270771
1.235604
1.136661
1.128912
1.203418
1.358986
1.209974
1.264811
1.311898
1.300573
1.313686
1.302958
1.343489
1.152754
1.300573
1.476407
1.350641
1.454949
1.455545
1.369715
1.556873
1.413822
1.531839
1.615882
1.577735
1.639724
1.678467
1.660585
1.804829
1.849532
1.835823
1.867414
1.857877
2.101660
2.223849
2.272725
2.414584
2.381802
2.753735
2.940893
3.473759
3.702641
4.517436
5.106926
9.590983
36.343932
179.340839
421.866775
955.293775
1015.788913
1015.788913
1015.788913
1015.788913
1015.788913
1015.788913
1015.788913
1015.788913
976.380706
494.976640
251.462460
85.671544
33.277869
15.148520
13.408661
13.546944
13.636947
14.353991
14.779568
14.925599
##ZVALUE=385
1.054406
0.891685
0.949502
0.892878
0.877976
1.051426
0.901818
0.943542
0.970960
0.910759
1.154542
0.971556
0.988841
1.020432
1.033545
1.041889
1.086593
1.176596
1.126528
1.094937
1.129508
1.084805
1.112819
0.917912
1.030564
0.867844
1.114607
0.991821
1.119971
1.276731
1.280904
1.268983
1.148582
1.205802
1.300573
1.161695
1.249909
1.209974
1.167655
1.221895
1.266599
1.402497
1.212955
1.412630
1.214743
1.379848
1.454949
1.234412
1.502633
1.435876
1.455545
1.463890
1.442432
1.512766
1.701713
1.661777
1.517534
1.537800
1.734495
1.775622
1.841784
1.844764
2.115965
2.110600
2.239943
2.412796
2.620816
2.763867
3.172755
3.552437
3.926754
4.164577
4.791617
5.367994
20.673871
75.528622
293.200612
623.394847
1015.788913
1015.788913
1015.788913
1015.788913
1015.788913
1015.788913
1015.788913
1015.788913
1015.788913
852.379799
384.138823
184.639692
57.621002
21.310449
12.719631
12.217760
12.366772
12.499690
##ZVALUE=390
0.997782
0.852942
0.954866
0.909567
0.981688
1.091957
1.041889
1.064539
1.156926
0.972748
0.978708
0.944734
0.897646
0.977516
1.135468
0.985861
1.075864
1.007915
1.122952
1.044869
0.997782
1.072884
1.061559
1.090765
1.087785
1.095533
1.128912
1.126528
1.116991
1.112819
1.276731
1.183748
1.134872
1.204610
1.187921
1.177788
1.154542
1.227856
1.304746
1.197457
1.355410
1.345873
1.300573
1.205802
1.301765
1.248717
1.382828
1.232624
1.302958
1.477599
1.439452
1.381636
1.449585
1.549721
1.662970
1.549721
1.630783
1.584888
1.698732
1.814961
1.734495
1.875758
2.022982
1.969934
2.111793
2.398491
2.377629
2.545714
2.919436
3.027916
3.507733
3.627539
3.986955
3.974438
4.352927
4.804730
8.737445
54.057837
172.693133
535.937548
964.565873
1015.788913
1015.788913
1015.788913
1015.788913
1015.788913
1015.788913
1015.788913
1015.788913
1015.788913
654.658675
263.356566
113.564730
28.278828
13.640523
11.626482
##ZVALUE=395
1.017451
1.034737
0.934601
1.095533
1.018643
0.910759
1.071692
1.013875
0.879765
0.988841
0.975728
0.974536
0.869632
1.064539
1.047850
1.130700
0.877976
1.091957
1.058578
0.989437
1.089573
0.904799
0.952482
1.009703
1.106858
1.054406
1.073480
0.971556
1.278520
1.118779
0.980496
1.347661
1.171827
1.300573
1.143813
1.071692
1.354814
1.229644
1.211762
1.051426
1.156926
1.288652
1.189709
1.323819
1.217723
1.244545
1.252890
1.577735
1.349449
1.272559
1.461506
1.231432
1.543760
1.577735
1.589656
1.513958
1.437664
1.682639
1.662970
1.622438
1.904964
1.790524
1.919866
1.863837
2.079606
2.125502
2.280474
2.617836
2.800822
3.076792
3.219843
3.344417
3.560781
3.520846
3.369451
3.565550
3.916621
4.291534
5.540848
28.813481
108.608007
387.839675
765.470862
1015.788913
1015.788913
1015.788913
1015.788913
1015.788913
1015.788913
1015.788913
1015.788913
1015.788913
889.239907
411.698818
190.776587
56.934953
##ZVALUE=400
0.965595
1.027584
0.959635
1.049638
1.005530
0.739694
1.007915
0.949502
0.986457
1.023412
0.906587
0.898838
0.922680
0.885725
1.094937
1.024604
1.056790
0.835657
0.986457
1.039505
0.909567
0.982881
1.106858
1.010895
1.062751
1.075864
1.060963
1.049638
1.207590
1.106858
1.080632
0.977516
1.004934
1.138449
1.180768
1.103878
1.124740
1.264811
1.073480
1.302958
1.258850
1.172423
1.352429
1.237988
1.210570
1.405478
1.415610
1.259446
1.350641
1.403689
1.506805
1.392961
1.401901
1.380444
1.666546
1.559854
1.738667
1.594424
1.726747
1.725554
1.663566
1.812577
1.695752
1.782775
1.975894
2.066493
2.324581
2.463460
2.716780
2.753735
2.879500
2.789497
3.061891
3.238916
3.126860
2.945662
3.236532
3.441572
3.729463
4.242659
5.041957
16.149879
59.616566
223.571658
489.201546
1012.603641
1015.788913
1015.788913
1015.788913
1015.788913
1015.788913
1015.788913
1015.788913
1015.788913
1013.378501
548.857450
##END
