##TITLE=QP00351
##FORMAT=SPECTACLE-ASCII V-1.2
##DATA TYPE=ULTRAVIOLET SPECTRUM
##SECOND TYPE=ULTRAVIOLET SPECTRUM
##DATE=11/28/17
##TIME=16:38:03
##SPECTROMETER/DATA SYSTEM=SPECTACLE
##XUNITS=NM EM
##YUNITS=ENERGY
##YFACTOR=1
##FIRSTX=220
##LASTX=410
##NPOINTS=96
##3DDATA=Equidistant
##ZUNITS=NM EX
##FIRSTZ=210
##LASTZ=400
##ZPOINTS=39
##XYDATA=(Y..Y)
##ZVALUE=210
3.378987
3.883839
3.563762
4.344583
3.884435
4.271865
4.507899
4.177690
3.940463
4.167557
3.900528
3.527999
3.458858
3.353953
3.893971
3.663898
3.343821
3.249645
3.992915
4.352927
4.053712
4.131794
3.765821
4.295707
5.864501
4.548430
5.369782
5.851984
4.452467
4.800558
5.147457
6.303787
5.782843
4.893541
5.649924
6.029606
6.466508
6.018877
6.058812
6.025434
6.864667
7.134676
7.382631
6.063581
6.852746
6.867647
6.243587
7.117987
7.694960
7.306933
7.380843
6.618500
8.175969
7.812977
7.621646
7.572770
7.191896
7.056594
7.175803
6.919503
7.550716
7.223487
8.226633
6.691813
8.198619
8.897781
8.963943
11.010766
10.347962
11.533499
15.624762
16.814470
17.578602
19.651651
22.970438
24.204850
23.981929
24.069548
22.276640
21.497607
18.531680
18.169880
15.084743
13.079643
11.988878
10.200739
9.416938
8.346438
7.778406
7.782578
6.547570
6.715655
7.726550
7.127523
8.670688
9.855628
##ZVALUE=215
9.143949
8.824468
8.125901
7.834435
7.920861
7.627606
7.215738
7.222891
7.895827
7.913709
7.295609
6.302595
5.619526
4.982948
3.822446
3.856421
3.294945
4.116893
3.423691
4.145503
3.598928
4.359484
4.579425
4.676580
5.184412
5.021691
4.997849
5.121827
5.852580
5.484819
5.491972
5.725622
5.618930
6.201863
6.015897
5.455613
6.466508
7.342696
5.967617
6.293654
6.358624
7.067919
6.256700
6.837845
7.035732
7.370710
7.602572
7.801652
7.325411
6.794930
7.088780
7.146597
7.416606
7.865429
8.000731
8.525848
7.573962
7.629991
7.512569
6.885529
7.365942
7.523894
8.402467
8.603930
7.919669
8.386970
8.771420
10.582805
11.191964
12.462735
14.135838
16.731620
17.574430
18.484592
20.776987
22.648573
22.382736
21.100640
22.225976
19.758940
17.512441
14.786720
13.914704
11.919737
10.678768
9.925961
8.524656
8.089542
7.776618
8.372664
7.657409
6.811619
7.198453
7.874966
6.822944
6.626844
##ZVALUE=220
23.278594
27.363896
28.557777
27.948618
26.778579
23.226738
18.632412
15.514493
13.908744
14.659762
14.925599
14.119744
14.495850
14.156699
11.158586
8.216500
6.734729
6.853938
5.033612
4.014969
4.996657
4.414916
5.073547
4.908442
5.072951
5.675554
6.075501
5.916953
6.552935
5.935431
5.347729
6.643534
5.562901
6.650686
6.833673
6.766915
6.522536
6.743670
6.813407
6.907582
7.549524
6.518960
7.438660
7.064939
7.746816
7.096529
6.249547
8.457899
8.551478
8.245707
7.919669
7.588863
7.740855
7.435679
8.006692
8.700490
9.308457
8.547902
8.366704
8.942485
9.148717
8.201599
8.616447
8.640885
9.170771
9.590983
9.130836
10.220408
10.815859
13.676882
13.813972
17.201900
18.016696
20.318627
20.590425
20.477772
21.742582
22.140741
20.608902
17.511845
17.229915
16.224980
14.915466
12.748837
11.372566
10.020733
10.854602
9.447932
8.803606
8.637905
7.920861
7.888675
8.589625
7.696748
7.928610
7.492900
##ZVALUE=225
41.866899
43.044686
55.621862
73.671937
78.558922
78.353882
71.917772
60.844421
48.044920
35.011768
27.613640
26.237965
26.358962
30.396581
28.086901
27.380586
22.615790
18.704534
13.870597
11.279583
7.718801
6.018877
5.013943
4.429817
5.251765
5.600452
6.119609
6.243587
6.319880
5.626678
5.733967
6.128550
6.080866
6.623864
6.834865
6.635785
7.139444
7.584691
7.171631
7.127523
7.184744
7.767677
7.821918
7.511973
7.280707
7.522702
8.478761
7.456541
8.609891
7.361770
8.468628
8.145571
8.534789
8.503795
8.596778
8.796453
8.758903
9.028912
8.413792
9.970665
9.725690
8.779764
9.039640
9.371638
9.569526
9.779930
11.099577
9.928942
12.355447
14.171600
14.618635
15.528798
19.039512
18.542409
20.760894
20.720959
20.969510
20.705462
19.903779
19.738674
17.532706
15.604496
15.938878
12.962818
12.684464
11.045933
11.057854
10.870695
9.721518
9.605885
10.302663
9.683967
9.914637
9.529591
8.741617
8.633733
##ZVALUE=230
35.280585
38.558841
58.513880
102.442503
137.078762
174.763799
191.773772
192.076564
172.544718
142.201781
101.134777
77.695847
51.613450
49.090981
45.718551
48.181415
50.978661
48.818588
45.662522
37.953854
30.792952
18.932819
14.070868
9.485483
7.005930
6.680489
7.783771
7.645488
7.357597
7.264614
7.984638
6.619692
6.615520
7.247925
7.261634
7.650852
7.560849
7.367730
8.179545
6.934404
7.931590
8.053780
7.484555
9.107590
7.587671
8.524656
8.615851
7.923841
8.247495
9.406805
8.088946
9.025931
8.414984
10.001659
9.069443
8.704662
10.095835
9.150505
9.471774
10.317564
10.303855
10.386705
10.899901
10.107756
10.601878
12.639761
10.991693
12.775660
14.404655
15.651584
16.403794
19.235611
19.236803
21.234751
19.478798
24.013519
22.454858
21.399856
20.054579
18.732548
17.235875
16.898513
16.833544
15.936494
15.249848
13.486743
14.111996
12.843609
11.758804
12.513995
10.895729
11.568666
11.041760
12.294650
11.285543
11.481643
##ZVALUE=235
11.590719
13.019443
29.301643
75.083971
121.254921
199.368596
268.276930
347.505808
389.390588
380.667448
352.872014
262.544751
194.950700
126.584768
94.997883
76.480508
71.014762
72.569847
79.036951
78.670979
74.526668
65.586567
49.554706
35.576820
23.963451
18.315911
12.848973
9.731650
9.282827
8.765459
8.850694
7.703900
8.022785
9.012818
8.396506
8.127689
8.907914
8.621812
7.433891
8.377433
7.777810
9.567738
8.122921
8.777976
8.377433
9.819865
9.396672
9.057522
9.036660
9.747744
9.931922
9.745955
10.391474
9.745955
9.194613
9.832978
10.495782
10.563731
11.044741
12.639761
12.423992
11.668801
11.515617
11.848807
13.198853
13.696551
15.155673
13.800859
15.804768
17.581582
19.127727
21.040440
23.671985
25.189519
24.888515
26.121736
26.066899
24.744868
23.650527
23.949742
23.233891
18.818974
19.243956
18.454790
17.125607
16.333461
15.990734
15.280843
15.245676
15.679598
14.720559
15.341640
14.349818
14.605522
14.619827
13.154745
##ZVALUE=240
2.614856
3.068447
5.954504
18.415451
43.084621
99.306703
170.940757
307.917595
428.551435
527.873635
611.058474
621.572733
544.393659
462.741852
332.888961
230.915546
141.833425
108.470917
91.121793
91.711879
104.350448
112.732649
107.232928
96.442699
84.901452
60.285926
47.025681
31.507611
23.048520
14.103651
11.270642
9.861588
10.064840
9.816885
9.408593
9.157658
8.473992
8.555651
9.212494
9.514689
9.133816
9.380579
8.143783
8.165836
9.430647
8.433461
9.027719
9.089708
9.371638
9.134412
10.354519
9.304881
9.778738
9.822845
10.209680
10.319948
11.120439
11.958480
11.165738
11.417866
12.299418
11.559725
12.056828
11.629462
12.815595
13.525486
13.627410
17.219782
16.734600
17.611980
20.013452
21.418929
23.876429
24.666786
26.862621
27.307868
27.568936
26.553869
24.812818
24.109483
21.546483
21.369457
22.266507
19.892454
19.312501
19.032955
18.074512
18.624663
18.323660
16.201735
17.809868
16.162992
16.541481
17.566681
16.443729
17.523766
##ZVALUE=245
2.378821
2.253652
2.590418
2.884865
5.178452
13.763905
44.436455
93.307495
218.212008
333.106518
523.386002
648.455620
743.338466
769.927502
728.215575
597.186685
477.765799
317.893624
219.272971
128.828883
100.573897
91.626644
105.535984
120.177865
124.590993
119.336843
110.653639
92.219710
71.060658
51.428676
41.514635
25.023818
16.281605
10.848641
10.649562
9.082556
9.739995
8.789897
8.573532
8.664727
7.951856
8.439422
9.161830
8.831620
8.438826
8.619428
8.427501
8.506775
8.696914
9.102821
8.213520
8.280873
8.995533
9.270906
8.561611
9.506941
9.700656
9.206533
9.573698
10.177493
10.663867
10.760427
11.879802
11.079907
11.836886
12.338758
12.932420
13.823509
14.678836
15.483499
18.321872
20.017624
20.557642
22.402406
23.213625
23.559928
24.751425
24.471879
23.226738
22.046566
21.718740
20.281672
20.366907
18.805861
18.248558
18.380880
17.884970
16.532540
16.518831
17.218590
16.185641
15.974641
16.508698
15.597939
17.006993
17.004609
##ZVALUE=250
2.272725
2.027750
1.997948
2.161860
2.221465
2.331734
2.992749
10.258555
31.105876
88.407993
179.572701
317.856669
527.686477
669.899583
826.327801
891.462564
861.817002
770.498514
611.630678
460.527539
282.648802
182.760954
113.718510
92.930794
96.214414
112.766623
124.622583
135.195851
128.834844
115.788579
103.111863
76.898932
56.923628
35.621524
25.295615
15.705824
10.937452
9.487867
9.043813
8.012652
8.494854
8.081794
7.923841
8.243918
7.468462
7.352829
7.337928
7.820725
7.846951
7.355809
7.721782
7.388592
7.463694
7.750988
7.583499
7.934570
8.111000
8.760691
8.574724
8.911490
8.905530
9.835958
9.365678
9.573698
9.472966
9.928942
10.547638
11.624694
13.412833
13.979673
14.626980
16.111732
17.335415
19.093752
19.599795
18.315911
19.780993
20.234585
19.872785
18.753409
18.201470
18.239617
17.480850
16.038418
16.539693
16.162992
16.012788
15.701652
15.546679
15.056729
14.976859
14.864802
15.182495
15.363693
15.167594
15.227795
##ZVALUE=255
1.776814
1.833439
1.978874
1.871586
2.130866
1.709461
2.251863
2.252460
2.448559
5.335808
25.852919
68.208575
141.589642
300.677419
466.246009
705.941916
865.210891
996.210575
1015.788913
937.696695
810.050964
626.626015
393.962860
254.994631
136.272907
95.219612
86.414814
97.157955
118.350983
132.013559
139.876604
137.005448
124.417543
99.876523
79.350471
53.022504
36.422610
21.350980
14.790893
9.444952
7.773638
7.346869
6.682873
7.112622
6.844997
7.083416
6.229877
7.263422
7.111430
6.609559
6.248951
6.841421
7.155538
6.611943
7.022619
7.484555
7.273555
7.052422
7.335544
7.714629
7.666945
8.335710
8.304715
7.955432
8.274913
8.338690
9.345412
9.830594
10.283589
12.072921
11.985898
14.637709
14.262795
16.479492
16.632676
16.129613
17.263889
16.292930
16.354918
16.206503
15.037656
13.736486
14.675856
14.500618
15.159845
13.303757
13.708472
14.139414
13.962984
13.960600
14.363527
14.098883
13.796687
13.991594
13.529658
12.899637
##ZVALUE=260
1.901984
1.655817
1.762509
1.840591
1.657605
1.850724
1.978874
1.980662
2.114773
2.394915
2.490878
3.701448
11.538863
50.930977
110.547543
258.870721
419.573784
679.566860
884.207487
1015.803814
1015.803814
1015.803814
989.754796
798.964500
523.743629
355.853438
206.990838
127.529502
78.849792
78.189969
96.137524
115.339756
130.974650
144.297481
140.770674
122.414827
106.655955
79.895854
58.478713
35.571456
24.410486
13.312697
9.600520
6.907582
7.039905
5.971789
6.819963
6.510615
6.004572
6.560683
6.369948
7.057786
6.558895
6.209612
5.992651
6.369948
6.694794
6.109476
6.716847
6.749630
6.607771
7.123947
7.009506
7.482767
7.394552
7.861853
8.169413
9.051561
9.535551
10.484457
11.276603
12.825727
12.728572
14.081597
13.791919
13.907552
14.518499
14.265776
14.640689
14.038682
13.863444
13.279915
12.778640
12.607574
12.006760
13.219714
12.792945
11.991858
12.503862
12.949705
12.637973
12.670755
12.413859
12.607574
13.104677
12.852550
##ZVALUE=265
1.585484
1.519918
1.690984
1.640916
1.642704
1.658797
1.809597
1.921654
1.938939
1.991987
2.167821
2.049804
2.402663
2.850890
6.201863
32.685399
81.156492
206.315517
360.211730
648.983717
890.194774
1015.788913
1015.788913
1015.788913
1015.788913
972.017646
712.273717
496.892929
276.745558
168.704987
91.324449
68.226457
75.975657
101.282001
121.276975
138.416886
141.289830
139.386654
124.918818
103.565454
82.806945
53.460002
36.236644
20.405650
13.740659
8.172989
6.456971
6.184578
6.338954
6.096959
6.073713
6.155968
6.526709
6.568432
6.465912
6.470680
6.620884
6.560683
6.000996
6.394982
6.190538
6.672740
6.748438
6.621480
7.058978
7.493496
7.340908
7.987618
7.854700
9.114742
10.721684
10.570884
11.911988
11.588931
12.134910
12.318492
12.484789
12.887716
12.972951
11.509657
11.706948
11.569858
11.020899
11.205673
11.228919
11.100769
11.054873
11.670589
11.259913
12.140870
11.825562
11.289716
10.969639
10.926723
11.337996
11.849999
##ZVALUE=270
1.546741
1.474619
1.472831
1.841784
1.629591
1.565814
1.549721
1.577735
1.661777
1.831651
1.810789
1.698732
2.147555
1.916885
1.984835
2.372861
3.211498
15.503764
46.911836
154.344440
302.593708
512.010455
871.571898
1015.788913
1015.788913
1015.788913
1015.788913
1015.788913
899.789929
667.042732
462.149978
239.750743
132.931471
66.804886
57.423711
78.539848
96.301436
123.999715
139.319897
145.593882
141.631961
126.694441
106.666684
76.873899
57.299733
34.723878
23.039579
13.517737
9.173751
6.934404
6.161928
6.126761
5.505681
5.984902
6.080866
5.840659
5.771518
5.772710
6.089807
6.200671
6.165504
6.265640
6.174445
6.495714
6.220937
6.891489
7.253885
7.682443
7.728934
8.284450
9.175539
9.459853
10.562539
11.248589
11.226535
11.628866
11.131763
11.150837
10.967851
10.674000
9.954572
10.430813
10.740757
10.145903
9.950995
9.824634
9.707808
10.300875
10.753870
10.249615
9.981990
10.384917
10.426641
9.762645
11.069775
9.802580
##ZVALUE=275
1.514554
1.444817
1.361966
1.347661
1.410842
1.548529
1.440644
1.602769
1.637936
1.695752
1.646876
1.985431
1.923442
1.829863
1.887679
2.220869
2.203584
2.391934
2.555847
7.529855
28.959513
85.652471
249.643922
460.151434
820.660591
1015.788913
1015.788913
1015.788913
1015.788913
1015.788913
1015.788913
849.692822
595.506430
320.747495
183.577538
81.096888
52.474737
55.095553
72.050691
97.690821
116.523504
136.596560
143.493414
137.298703
125.647783
99.361539
79.371929
56.210756
40.085912
22.786856
14.257431
8.248687
7.277727
6.012917
5.726814
5.874634
5.693436
6.092787
6.178617
6.006956
6.382465
6.037951
6.477833
6.109476
6.181598
6.751418
6.500483
7.340908
7.868409
7.984638
8.463860
9.393692
10.093451
10.670424
10.770559
10.924935
10.565519
10.748506
10.601878
9.925961
9.934902
9.523630
9.323955
9.198785
9.384751
9.708405
9.710789
9.259582
8.810759
9.410977
9.339452
9.646416
9.751916
9.816885
9.379983
9.243488
##ZVALUE=280
1.182556
1.419783
1.404881
1.567602
1.617670
1.543760
1.824498
1.341701
1.610518
1.376867
1.578927
1.920462
1.892447
1.698732
1.849532
1.914501
2.165437
2.237558
2.308488
2.368689
2.792478
3.490448
20.309687
68.412423
214.974880
391.214490
698.156953
979.439616
1015.792489
1015.792489
1015.792489
1015.792489
1015.792489
977.841020
712.505579
395.903587
233.093500
106.306672
57.470798
40.025711
48.768520
74.893832
94.946623
121.139884
130.559802
138.704777
136.147738
120.271444
103.505850
75.253844
55.802464
36.315918
24.955869
13.324618
9.417534
6.977916
6.232858
5.764961
5.973577
5.742908
5.830526
5.798936
6.383657
6.228685
6.484985
6.560683
6.957650
6.866455
7.431507
7.881522
8.471608
8.784533
8.897781
9.982586
10.520816
10.390878
10.137558
9.951591
9.729862
9.222627
9.646416
9.056926
9.041429
9.010434
9.021759
8.680820
8.932948
8.501410
8.820891
8.840561
9.109974
8.969903
9.072423
9.064674
9.509921
9.122491
##ZVALUE=285
1.368523
1.234412
1.293421
1.259446
1.448989
1.443624
1.406670
1.519918
1.438856
1.464486
1.509786
1.730919
1.321435
1.422763
1.698732
1.895428
1.734495
1.978874
1.994967
2.456903
2.341866
2.333522
2.624989
2.933741
9.558797
37.174821
126.910806
265.461802
551.833510
844.537020
1015.793681
1015.793681
1015.793681
1015.793681
1015.793681
1015.793681
900.836587
549.499989
341.183543
158.554912
81.821680
36.854744
32.811761
47.557950
66.756606
93.777776
112.563968
130.088925
136.965513
133.108497
121.068954
101.188421
81.460476
56.569576
39.671659
22.514462
15.198588
9.512901
7.248521
5.866885
5.894899
6.149411
5.706549
5.778670
6.096959
6.500483
6.748438
7.028580
7.439852
7.825494
8.366704
8.694530
8.804798
9.872913
9.773970
10.019541
9.863973
9.857416
9.532571
9.314418
8.657575
9.022951
9.062886
8.791685
8.514524
8.209944
8.371472
8.625984
8.686781
8.836985
8.803606
8.390546
8.508563
8.115768
8.869767
9.029508
##ZVALUE=290
1.381636
1.245737
1.383424
1.339912
1.295805
1.184940
1.562834
1.379848
1.328588
1.430511
1.397729
1.363754
1.401901
1.600981
1.536608
1.601577
1.632571
1.675487
1.725554
2.000928
1.875758
2.120733
2.255440
2.251863
2.641678
2.733469
4.432797
14.772415
75.384974
175.732374
343.837738
681.626797
986.106992
1015.809774
1015.809774
1015.809774
1015.809774
1015.809774
1015.809774
698.539019
457.698703
224.282742
115.688443
43.210983
26.232600
31.952858
44.150949
65.997839
82.839727
108.335614
122.864842
131.603479
130.662918
117.088556
100.766420
74.659586
56.721568
37.683845
25.664568
14.439821
10.518432
7.402897
6.733537
6.303787
6.538630
6.715655
6.557703
7.174611
7.245541
7.695556
8.582473
8.902550
9.037852
9.222627
9.678602
9.972453
9.724498
9.235740
9.151697
9.123683
8.777976
8.816719
8.665919
8.595586
8.368492
8.581877
8.673668
8.571744
8.746982
8.313656
8.626580
8.614659
8.300543
8.254647
8.115768
7.949471
##ZVALUE=295
1.255870
1.304746
1.250505
1.035929
1.459718
1.279712
1.191497
1.270771
1.360774
1.343489
1.350641
1.497865
1.232624
1.257658
1.409650
1.358986
1.500845
1.596808
1.422763
1.690984
1.839995
1.853704
1.967549
1.854897
2.160668
2.375841
2.457500
2.669692
2.857447
7.780790
30.313730
127.624869
272.815824
594.113469
901.038647
1015.788913
1015.788913
1015.788913
1015.788913
1015.788913
1015.788913
888.225436
600.265861
312.237740
170.644522
64.254999
29.888749
21.152496
27.699471
42.137504
57.558417
80.631971
99.459887
118.247867
125.506520
123.499632
112.619996
94.529986
76.987743
54.628849
38.980842
23.573637
15.391707
10.162592
8.159876
6.919503
6.511807
6.932616
7.353425
7.457733
7.990599
8.726716
8.497834
9.480715
9.166598
9.256601
9.081960
9.065866
8.967519
9.062886
8.761883
8.307695
8.651614
8.570552
8.183718
8.256435
8.469820
8.468628
8.424520
8.509755
8.290410
8.263588
8.111000
7.864833
8.036494
8.334517
##ZVALUE=300
1.203418
1.104474
1.067519
1.200438
1.339912
1.288652
1.326799
1.245737
1.360774
1.114607
1.182556
1.268983
1.208782
1.424551
1.235604
1.278520
1.214743
1.475811
1.421571
1.617670
1.599789
1.717806
1.765490
1.900792
1.786947
1.884699
2.008677
2.260804
2.492666
2.669692
2.739429
3.460646
16.456842
59.902668
198.214650
381.581783
748.676658
1015.788913
1015.788913
1015.788913
1015.788913
1015.788913
1015.788913
1015.788913
777.176619
499.987602
251.375437
134.792924
47.738552
21.805763
18.377900
24.254918
37.524700
51.606894
73.324442
91.276765
111.509562
117.785931
117.475986
109.850764
93.187690
75.809956
54.106712
39.989948
24.243593
16.748905
11.144876
9.127855
7.634759
7.809997
7.981658
8.658767
8.705854
8.899570
8.964539
9.039640
9.429455
8.599758
8.575916
8.814931
8.566976
8.269548
8.662939
8.105636
8.385777
8.497834
8.119941
8.258820
8.290410
8.050799
8.012652
7.947683
8.066893
7.719994
8.062720
8.115768
##ZVALUE=305
1.221895
1.420975
1.493692
1.407862
1.349449
1.276731
1.431704
1.352429
1.445413
1.419783
1.414418
1.347661
1.311898
1.381636
1.267791
1.493692
1.576543
1.610518
1.509786
1.483560
1.628995
1.690984
1.616478
1.740456
1.927614
1.866817
2.084970
2.222657
2.056956
2.331734
2.401471
2.738833
3.029704
3.347993
6.577969
42.129755
116.220713
314.071774
561.157465
967.296958
1015.932560
1015.932560
1015.932560
1015.932560
1015.932560
1015.932560
976.691842
613.334775
377.223492
166.441798
82.611442
27.159452
15.300512
16.386509
22.536516
37.320852
50.705671
71.291924
87.316632
104.639530
111.398697
111.025572
105.121732
87.994933
73.258877
50.575733
37.864447
24.586916
17.294884
11.717677
9.916425
9.068847
8.933544
9.481907
8.813739
8.692741
8.848906
9.077787
8.916855
8.699894
9.002686
8.748770
8.660555
8.504987
8.553863
8.661747
8.333921
8.929968
8.348823
8.186698
8.657575
8.329749
8.322597
7.932782
8.318424
7.792711
##ZVALUE=310
1.032948
1.027584
1.030564
0.918508
1.115799
1.122952
1.152754
1.147985
1.023412
1.229644
1.072884
1.153946
1.241565
1.229644
1.183748
1.329780
1.237988
1.242757
1.446605
1.381636
1.299977
1.427531
1.467466
1.567602
1.669526
1.789927
1.708865
1.737475
1.905560
1.915693
1.988411
2.288818
2.120733
2.375841
2.871752
2.913475
3.524423
18.263459
62.958002
205.699801
392.931700
775.769949
1015.785933
1015.785933
1015.785933
1015.785933
1015.785933
1015.785933
1015.785933
845.748782
558.194518
275.711417
144.785643
49.632788
19.908547
12.215972
14.248490
21.249652
30.320883
46.779513
61.449409
81.693530
95.036626
104.543567
107.383728
98.268986
89.321733
70.491433
55.027604
37.292838
25.989413
17.894506
13.987422
10.656714
9.847879
8.958578
8.698702
8.585453
8.591413
8.461475
8.513927
8.561611
8.212924
8.661747
8.532405
8.581877
8.755922
8.466840
8.452535
8.323789
8.287430
8.222461
8.003712
8.081794
8.085966
7.805824
##ZVALUE=315
1.060963
1.158714
1.234412
1.109838
0.987649
1.132488
1.162887
1.000762
1.197457
1.162887
1.194477
1.208782
1.178980
1.199841
1.231432
1.230836
1.149774
1.242757
1.250505
1.254678
1.335740
1.472831
1.451969
1.429915
1.419783
1.557469
1.644492
1.623631
1.723766
1.735687
1.805425
1.855493
2.098680
2.050996
2.170801
2.051592
2.618432
2.940893
3.420711
8.123517
32.912493
132.362843
288.190842
636.505485
971.770883
1015.788913
1015.788913
1015.788913
1015.788913
1015.788913
1015.788913
1015.788913
759.478807
389.189720
203.894973
72.710514
29.224753
11.756420
11.275411
14.117956
18.759966
29.701591
41.700602
58.675408
74.097514
91.172457
98.591447
100.375414
95.504522
81.836581
68.628788
51.568747
38.892627
25.184751
18.342733
12.432933
10.534525
9.161830
8.588433
8.634925
8.641481
8.202791
8.342862
8.521676
8.474588
8.684993
8.335710
8.504987
8.403659
8.451939
8.192658
8.535981
8.486509
8.071661
8.178949
7.996559
##ZVALUE=320
0.960827
1.038909
1.034737
1.173615
1.159906
1.152754
0.833869
1.129508
1.096725
1.126528
0.957847
1.112819
1.194477
1.243949
1.043677
1.221895
1.194477
1.295805
1.340508
1.288652
1.190901
1.235604
1.194477
1.321435
1.454949
1.485944
1.531839
1.503825
1.685619
1.634955
1.402497
1.765490
1.819730
1.906753
1.968741
1.902580
2.147555
2.412796
2.350807
2.694726
2.832413
4.157424
15.396476
78.705549
190.138817
463.324785
760.587454
1015.788913
1015.788913
1015.788913
1015.788913
1015.788913
1015.788913
1015.788913
954.588652
515.263677
288.344622
120.644569
52.405000
16.234517
10.316968
10.887980
12.052655
17.554760
25.321841
38.812757
52.501559
70.871711
82.848668
93.450546
95.769763
90.940595
81.684589
63.979626
50.660968
34.265518
25.619864
17.012954
12.630820
10.038614
9.038448
8.575916
8.664727
8.360744
8.523464
8.412600
8.398890
8.457899
8.630753
8.393526
8.367896
8.194447
7.999539
8.167624
7.942915
7.958412
##ZVALUE=325
1.060963
1.111627
1.016855
0.903606
1.065731
1.092553
1.002550
1.010895
1.074672
1.102686
1.107454
1.041889
1.112819
1.324415
1.327991
1.265407
1.058578
1.236796
1.337528
1.256466
1.185536
1.401901
1.340508
1.213551
1.473427
1.540780
1.429915
1.547933
1.414418
1.310706
1.460910
1.487732
1.655817
1.707673
1.683831
1.845956
1.925826
2.097487
2.083778
2.147555
2.274513
2.501607
2.617836
3.501773
7.896423
55.169463
140.576959
350.315571
604.386926
1006.187797
1015.816927
1015.816927
1015.816927
1015.816927
1015.816927
1015.816927
1015.816927
661.237836
401.494503
171.828866
80.812573
23.825765
11.398792
9.584427
10.043979
12.481809
16.815662
25.436878
36.218762
53.556561
66.484809
81.584454
87.776780
91.066957
86.085796
72.999001
61.726570
45.499802
33.638477
22.155643
15.897751
12.139678
10.019541
9.082556
8.640885
8.730888
8.462667
8.405447
8.448958
8.216500
8.114576
7.808805
7.943511
7.801652
8.006692
7.744431
##ZVALUE=330
1.013875
1.105666
0.948906
0.983477
1.039505
0.896454
1.103878
1.095533
0.987649
1.249909
1.064539
0.948906
1.084805
1.313686
1.089573
1.121759
1.142621
1.115799
1.047850
1.204610
1.088977
1.180768
1.269579
1.170635
1.398921
1.279712
1.204610
1.342893
1.273751
1.335740
1.487732
1.356602
1.407862
1.468658
1.621842
1.741648
1.783967
1.548529
1.698732
1.805425
1.939535
2.136827
2.396703
2.523661
2.682805
2.985597
4.549623
23.945570
76.426864
245.701075
459.646583
885.823965
1015.788913
1015.788913
1015.788913
1015.788913
1015.788913
1015.788913
1015.788913
836.689472
530.551672
242.108703
119.545460
41.116476
16.547441
9.340644
8.900762
9.760857
12.197495
17.727613
24.128556
35.745502
48.398972
64.194798
75.313449
82.837939
85.415840
79.187751
70.482492
55.585504
43.497682
30.314922
22.717714
16.000867
12.567639
10.283589
8.987784
8.607507
8.440614
8.252859
8.189678
8.277893
7.944703
7.974505
7.925630
7.769465
##ZVALUE=335
0.994802
1.049638
0.941753
1.103878
1.126528
0.939965
0.954866
1.045465
0.906587
1.101494
1.066923
1.008511
1.159906
1.064539
1.102686
1.052618
0.944734
1.109838
1.112819
1.120567
1.188517
1.082420
1.224875
1.248717
1.268983
1.122952
1.180768
1.173615
1.491904
1.318455
1.437664
1.361966
1.223683
1.396537
1.600981
1.572967
1.675487
1.588464
1.679659
1.649857
1.610518
1.813769
1.778603
2.277493
2.298951
2.605915
2.602935
3.200769
3.289580
36.926866
55.462718
142.938495
374.226570
643.641949
1015.787721
1015.787721
1015.787721
1015.787721
1015.787721
1015.787721
1015.787721
815.563798
678.979754
239.228606
173.436999
34.023523
19.437671
11.371970
9.011626
10.220408
10.284781
15.684962
16.673803
24.823546
32.969713
46.368837
60.334802
69.465637
76.752901
75.620413
73.932409
57.600737
53.657889
35.624504
30.734539
23.749471
16.769767
12.814999
10.293722
8.290410
8.242726
7.790923
7.623434
7.450581
7.496476
7.714629
##ZVALUE=340
0.955462
1.065731
0.950694
1.019835
0.920892
1.043677
0.880957
0.941753
1.050830
1.213551
0.979900
1.041889
1.006722
0.951886
1.012683
1.094937
1.072884
1.084805
1.027584
1.142621
1.214743
1.045465
1.275539
1.136661
1.372695
1.284480
1.300573
1.022816
1.375675
1.250505
1.255870
1.413822
1.403689
1.402497
1.425743
1.325607
1.474619
1.416802
1.342893
1.617670
1.726747
1.680851
1.766682
1.908541
2.005696
2.039671
2.148747
2.416968
2.486706
2.741814
3.176928
4.449487
25.284886
81.103444
253.900886
476.134419
911.582708
1015.788913
1015.788913
1015.788913
1015.788913
1015.788913
1015.788913
1015.788913
914.573669
577.183962
273.658633
125.248432
31.858683
12.910962
9.787679
9.552836
9.498596
10.326505
12.462735
15.440583
22.583604
31.304955
44.775605
55.285692
66.139698
71.983933
73.474646
70.553422
62.204599
52.864552
40.616989
32.109618
22.064447
16.749501
12.113452
9.922981
8.488894
7.918477
7.646680
7.309914
##ZVALUE=345
0.906587
0.993609
1.057982
0.914931
1.057982
1.098514
0.965595
0.944734
1.060963
0.939965
0.799894
1.010895
0.879765
1.088977
1.093745
1.043677
1.053810
0.995994
1.075864
1.142621
1.004934
1.321435
1.199841
1.315475
1.220703
1.086593
1.214743
1.060963
1.225471
1.128912
1.203418
1.433492
1.234412
1.229644
1.231432
1.425743
1.289845
1.408458
1.412630
1.504421
1.510978
1.548529
1.635551
1.544952
1.628995
1.752973
1.849532
2.112985
1.999736
2.185702
2.394915
2.773404
2.776980
3.503561
8.913875
54.036975
142.167807
358.788967
632.995963
1015.788913
1015.788913
1015.788913
1015.788913
1015.788913
1015.788913
1015.788913
1014.608741
622.050762
352.055430
135.840774
58.246851
17.971992
10.305643
9.643435
9.265542
8.742809
9.243488
10.890961
13.509989
20.526648
27.714968
40.279627
49.565434
59.589744
65.074563
67.111850
65.926909
58.546662
51.003695
39.692521
31.179786
21.832585
16.328692
12.219548
9.920597
8.138418
##ZVALUE=350
1.064539
0.925660
1.069903
0.979900
0.932813
1.044869
0.981688
1.119971
0.910759
1.013875
1.050830
1.065731
1.322627
1.157522
1.107454
1.021624
1.096725
1.030564
0.985861
1.103878
1.077652
1.294613
1.212955
1.026988
1.292825
1.147985
1.058578
1.092553
1.185536
1.143813
1.079440
1.230836
1.176596
1.315475
1.302958
1.103878
1.357794
1.255870
1.214743
1.421571
1.364946
1.530647
1.601577
1.582503
1.667738
1.748800
1.700521
1.836419
1.862645
1.932979
2.017617
2.182722
2.390742
2.427697
2.710819
3.174543
4.860759
27.784705
85.294843
252.611637
463.494658
869.463682
1015.820503
1015.820503
1015.820503
1015.820503
1015.820503
1015.820503
1015.821099
752.692819
461.785793
205.349922
93.459487
24.360418
11.158586
9.046793
8.037686
7.958412
7.984638
8.474588
10.011792
14.038682
18.408895
25.869608
33.793449
44.559836
52.056909
60.488582
61.158538
60.381889
55.828691
45.618415
38.181543
28.061867
21.882653
15.976429
##ZVALUE=355
1.011491
0.938773
0.985861
1.126528
0.956655
0.909567
0.947714
1.042485
1.032948
1.156926
1.142621
1.101494
1.060963
1.144409
0.948906
1.023412
0.990629
1.012683
1.130700
1.128912
1.185536
1.180768
1.070499
1.216531
0.945926
1.073480
1.203418
1.110435
1.264811
1.148582
1.302958
1.271963
1.302958
1.334548
1.304746
1.438856
1.357794
1.428723
1.318455
1.293421
1.404881
1.459718
1.532435
1.471639
1.603961
1.576543
1.732707
1.618862
1.678467
1.832843
1.739860
1.912713
2.074838
2.234578
2.305508
2.498627
2.694726
2.951622
3.635883
13.916492
49.322844
175.755620
350.867510
711.192489
1015.788913
1015.788913
1015.788913
1015.788913
1015.788913
1015.788913
1015.788913
945.153832
595.546961
251.422524
115.781426
33.172965
13.029575
8.574724
8.057952
7.737875
7.660985
7.652640
7.790923
9.395480
11.518598
16.604662
21.743774
30.367970
37.641525
46.713948
51.678419
55.421591
55.466890
50.916672
44.854879
36.144853
##ZVALUE=360
0.944734
0.888705
1.028776
0.936985
0.933409
0.968575
0.944734
1.068711
1.039505
1.087785
1.146793
1.156926
0.903606
1.052618
1.215935
1.227856
1.071692
1.157522
1.009703
1.095533
1.064539
0.923872
1.129508
1.214743
1.039505
1.042485
1.201630
1.337528
1.206994
1.252890
1.152754
1.353621
1.389980
1.356602
1.295805
1.256466
1.305938
1.448989
1.372695
1.449585
1.335740
1.480579
1.449585
1.569986
1.622438
1.490712
1.571774
1.628995
1.623631
1.626611
1.747608
1.933575
1.977682
1.907945
1.998544
2.245903
2.426505
2.554655
2.538562
3.084540
3.483891
6.139874
20.978451
88.490844
200.628638
466.531515
765.874982
1015.788913
1015.788913
1015.788913
1015.788913
1015.788913
1015.788913
1015.788913
744.698644
360.000730
184.439421
61.710477
22.136569
8.902550
8.035898
7.164478
7.147789
7.045865
6.792545
7.444620
8.049607
10.194778
12.799501
18.066764
24.459958
33.352971
39.369464
46.087503
49.792528
50.193667
##ZVALUE=365
0.989437
0.984669
1.048446
1.015663
0.854731
1.100898
1.076460
0.930429
1.009703
1.120567
1.110435
0.935793
1.025796
1.023412
1.157522
0.988841
0.994802
1.162887
1.113415
1.128912
1.161695
1.034737
1.120567
1.132488
1.313686
1.199841
1.071692
1.123548
1.248717
1.261830
1.119971
1.283884
0.969768
1.281500
1.187921
1.267791
1.127720
1.308918
1.391768
1.510978
1.345873
1.387596
1.403689
1.479983
1.476407
1.481771
1.526475
1.333952
1.601577
1.581907
1.451969
1.705885
1.610518
1.779795
1.848936
1.803637
2.023578
2.121925
2.282858
2.380610
2.570748
2.879500
2.900958
3.801584
9.448528
52.754879
134.309530
334.611535
597.800612
1001.822948
1015.788913
1015.788913
1015.788913
1015.788913
1015.788913
1015.788913
880.966783
491.720438
266.299844
91.162920
32.794476
9.570718
7.394552
6.948709
6.704926
6.399751
5.940795
6.001592
6.281734
7.115602
8.313656
11.328459
15.248656
22.058487
28.004646
35.666823
##ZVALUE=370
0.949502
1.019835
1.134872
0.949502
0.883937
1.025796
0.868440
0.886917
1.034737
0.955462
0.950694
1.104474
1.099706
1.171827
0.993609
0.832677
0.910759
0.991821
0.997782
1.151562
1.046658
1.130700
1.029968
1.196861
1.085997
0.942945
0.960827
1.062751
1.105666
1.083612
1.186728
1.166463
1.070499
1.188517
1.251698
1.170635
1.114607
1.302958
1.190901
1.329780
1.363754
1.206994
1.178980
1.326799
1.410842
1.217723
1.334548
1.378655
1.315475
1.461506
1.455545
1.504421
1.574755
1.459718
1.414418
1.618862
1.826882
1.702905
1.958609
1.900792
2.143979
2.297759
2.320409
2.379417
2.729893
3.111959
5.075932
27.699471
86.431503
256.697536
459.626913
837.835670
1015.789509
1015.789509
1015.789509
1015.789509
1015.789509
1015.789509
992.683768
570.279956
321.660638
121.606588
51.630735
15.863776
7.965565
6.599426
6.220937
6.059408
5.976558
5.594492
5.464554
5.659461
6.041527
7.238984
9.561777
13.621449
##ZVALUE=375
0.930429
0.820756
0.853539
1.005530
0.977516
0.765920
0.888705
0.902414
0.810623
0.866652
0.947714
0.993609
1.008511
0.834465
1.042485
0.928640
0.985861
0.892878
0.939965
1.080632
0.772476
1.001954
0.880957
0.947714
0.929832
1.092553
1.071692
1.130700
1.084805
1.042485
0.976920
1.085997
0.986457
0.980496
1.018643
0.959635
1.039505
1.097918
1.225471
1.232624
1.117587
1.083612
1.034737
1.040697
1.124740
1.106858
1.244545
1.241565
1.287460
1.348853
1.435876
1.413822
1.419783
1.545548
1.494884
1.429915
1.354814
1.409650
1.424551
1.518726
1.627803
1.789927
1.692772
1.959801
2.026558
2.293587
2.558827
3.040433
3.451705
13.882518
47.466755
165.571570
331.268907
684.170723
982.950926
1015.788913
1015.788913
1015.788913
1015.788913
1015.788913
1015.788913
743.137002
456.393957
219.574571
105.845928
30.377507
11.223555
6.539822
6.066561
5.473495
5.458593
5.361438
4.998446
5.140901
5.008578
5.376935
##ZVALUE=380
0.893474
0.972748
0.782609
0.874996
0.863671
0.943542
0.839829
0.854731
0.814795
0.912547
0.928640
0.856519
0.900626
0.993609
0.863671
1.033545
0.833869
0.990629
1.007915
1.003742
1.061559
0.958443
0.905991
0.970960
0.874996
0.865459
0.992417
0.878572
0.961423
0.942945
1.065731
1.082420
1.056790
1.088977
1.012683
0.939965
0.880957
0.889897
1.044869
1.061559
0.916719
1.069903
1.047850
1.071692
1.059771
1.133680
1.030564
1.188517
1.236796
1.173615
1.203418
1.165867
1.262426
1.208782
1.327991
1.309514
1.279712
1.474619
1.404881
1.363754
1.621842
1.629591
1.624823
1.621842
1.657605
1.970530
2.111793
2.153516
2.602935
2.905726
3.365874
5.955696
33.570528
100.238919
282.055736
499.572754
908.541679
1015.791893
1015.791893
1015.791893
1015.791893
1015.791893
1015.791893
973.131657
579.443574
332.963467
131.941438
56.445599
14.547706
7.048845
5.713701
5.504489
5.204678
5.110502
4.914999
4.872680
##ZVALUE=385
0.916719
0.781417
0.835657
0.898838
0.881553
0.792742
0.800490
0.990629
1.006722
0.797510
0.828505
0.935793
1.009703
0.974536
0.900626
0.758767
0.922680
0.907779
0.934601
0.958443
0.934601
1.040697
0.882745
1.048446
0.862479
0.850558
1.094937
1.046658
1.096725
1.102686
1.034737
1.021624
0.924468
0.930429
0.863671
0.959635
1.059771
1.018643
0.915527
0.956655
1.069903
1.107454
1.202822
1.058578
0.980496
1.154542
1.176596
1.197457
0.992417
1.220703
1.181960
1.084805
1.340508
1.345873
1.300573
1.305938
1.390576
1.331568
1.369715
1.333952
1.476407
1.457930
1.547933
1.649857
1.618862
1.727939
1.772642
1.756549
2.279878
2.360940
2.676845
2.980828
3.136992
3.534555
15.015006
51.746964
177.422762
357.037783
737.094879
1015.847921
1015.847921
1015.847921
1015.847921
1015.847921
1015.847921
1015.847921
763.344765
479.161739
209.027529
99.646449
30.175447
10.773540
5.797744
5.225539
4.917979
4.898906
##ZVALUE=390
0.790954
0.781417
0.874996
0.800490
0.945926
0.804663
0.915527
0.797510
0.956655
0.998974
0.697970
0.707507
0.865459
0.777841
0.898838
0.905991
0.847578
0.949502
0.925660
0.808835
0.914931
0.839829
0.847578
0.820756
0.950694
0.993609
0.851750
0.863671
0.839829
0.834465
0.891685
0.919700
0.917912
0.902414
0.962615
1.037717
1.007915
1.002550
1.093745
1.080632
1.046658
0.963807
0.917912
1.003742
1.156926
1.063943
1.092553
1.213551
1.017451
1.032948
1.016855
1.082420
1.048446
1.302958
1.333952
1.116991
1.107454
1.242757
1.146793
1.339912
1.201630
1.385808
1.383424
1.408458
1.439452
1.654625
1.766682
1.806617
2.000928
2.287626
2.384782
2.380610
2.535582
2.443790
2.747774
3.068447
6.185770
37.258863
109.784007
312.761664
557.333827
967.829823
1015.788913
1015.788913
1015.788913
1015.788913
1015.788913
1015.788913
983.695388
609.612465
350.111723
137.063861
58.207512
14.404655
6.265640
5.001426
##ZVALUE=395
0.781417
0.718832
0.769496
0.758767
0.723600
0.645518
0.863671
0.730753
0.767708
0.708699
0.731945
0.777841
0.782609
0.733733
0.835657
0.906587
0.743866
0.820756
0.941753
0.808835
0.866652
0.805855
0.796914
0.696778
0.760555
0.729561
0.844598
0.750422
0.831485
0.899434
0.774860
0.900626
0.971556
0.929832
0.898838
0.952482
0.933409
0.901818
0.840425
1.022816
0.957847
1.037717
1.020432
1.011491
0.999570
1.030564
0.872612
1.059771
1.098514
0.849962
1.013875
0.907779
1.119971
1.013875
1.121759
1.146793
1.214743
1.227856
1.171827
1.095533
1.144409
1.166463
1.244545
1.281500
1.242757
1.576543
1.506805
1.769662
1.735687
1.920462
2.020597
2.020597
2.188683
2.231598
2.241731
2.230406
2.379417
2.638698
3.858805
20.912886
71.793795
224.250555
402.942896
714.792013
989.151001
1015.724540
1015.724540
1015.724540
1015.724540
1015.724540
1015.724540
715.019703
443.304777
190.801024
87.082982
26.071668
##ZVALUE=400
0.873804
0.802875
0.794530
0.812411
0.848770
0.784993
0.896454
0.760555
0.773668
0.826716
0.768900
0.802875
0.780821
0.908971
0.914931
0.837445
0.898838
0.906587
0.576973
0.917912
0.687838
0.994802
0.919700
0.853539
0.979900
0.817776
0.827909
0.854731
0.961423
0.926852
0.945926
0.884533
0.825524
0.815988
0.975728
0.841618
0.917912
0.929832
0.874996
0.999570
1.043677
1.040697
1.023412
1.007915
1.025796
0.963807
1.179576
0.916719
0.972748
1.162887
1.047850
1.190901
1.158714
0.935793
1.045465
1.056790
1.222491
1.124740
1.126528
1.141429
1.284480
1.356602
1.327991
1.395941
1.384616
1.488924
1.491904
1.620650
1.797676
1.695752
1.997948
1.945496
2.009869
2.026558
1.904964
2.077818
2.220869
2.115965
2.308488
2.512932
2.906919
10.446906
38.712621
141.794682
282.810926
583.965778
867.506862
1015.788913
1015.788913
1015.788913
1015.788913
1015.788913
1015.788913
841.580629
558.913946
276.917815
##END
