160.701	572.46
166.742	747.13
172.777	1282.79
178.805	2972.79
184.826	7203.12
190.841	14927.79
196.849	24334.12
202.85	31130.46
208.845	33233.46
214.833	32316.46
220.815	30970.79
226.789	30056.79
232.758	29259.46
238.719	28393.46
244.674	27310.46
250.623	26205.79
256.565	25036.46
262.5	23908.12
268.429	22884.79
274.351	21997.79
280.267	21115.79
286.176	20445.13
292.079	19792.12
297.975	19193.12
303.865	18705.79
309.748	18273.79
315.625	17880.46
321.495	17616.12
327.359	17396.12
333.217	17243.46
339.068	17144.46
344.912	17036.13
350.751	17009.46
356.583	16979.46
362.408	16963.13
368.227	16996.46
374.04	17134.79
379.847	17333.79
385.647	17518.13
391.44	17453.12
397.228	17375.46
403.009	17420.79
408.784	17636.46
414.553	18146.79
420.315	18788.12
426.071	18919.12
431.821	18335.46
437.565	17705.79
443.302	17472.79
449.033	17287.46
454.758	17194.79
460.477	17090.13
466.189	16952.13
471.896	16866.46
477.596	16723.12
483.29	16638.46
488.978	16538.79
494.66	16405.79
500.335	16197.13
506.005	15891.13
511.668	15573.79
517.325	15255.13
522.977	14981.79
528.622	14763.79
534.261	14548.79
539.894	14376.79
545.521	14278.12
551.141	14154.13
556.756	14068.13
562.365	13920.46
567.968	13844.79
573.565	13741.79
579.155	13631.79
584.74	13558.13
590.319	13436.46
595.892	13291.79
601.459	13186.79
607.02	13127.79
612.575	12956.46
618.124	12826.46
623.667	12707.12
629.204	12564.12
634.735	12485.13
640.261	12504.12
645.781	12606.79
651.294	12647.46
656.802	12503.79
662.304	12195.12
667.8	12027.46
673.29	11910.79
678.775	11830.46
684.254	11738.13
689.726	11644.79
695.193	11566.12
700.655	11452.13
706.11	11357.79
711.56	11241.13
717.004	11147.46
722.442	11090.79
727.874	10963.46
733.301	10924.13
738.722	10854.79
744.137	10826.79
749.547	10841.79
754.951	10832.46
760.349	10729.13
765.741	10681.13
771.128	10580.12
776.509	10554.13
781.885	10500.79
787.254	10471.12
792.618	10376.46
797.977	10291.12
803.33	10179.46
808.677	10061.13
814.019	9945.46
819.355	9818.13
824.686	9713.46
830.011	9602.13
835.33	9528.12
840.644	9473.13
845.952	9402.79
851.255	9305.79
856.552	9238.46
861.844	9171.79
867.13	9081.12
872.41	8952.12
877.686	8855.12
882.955	8730.12
888.219	8587.79
893.478	8453.46
898.731	8311.12
903.979	8181.12
909.221	8098.46
914.458	8029.12
919.69	7971.46
924.916	7930.13
930.136	7909.79
935.351	7884.79
940.561	7841.12
945.766	7808.12
950.965	7741.12
956.158	7685.79
961.347	7567.79
966.529	7470.79
971.707	7363.79
976.879	7231.79
982.046	7166.79
987.208	7105.46
992.364	7107.79
997.515	7111.46
1002.66	7169.79
1007.801	7177.46
1012.936	7205.13
1018.066	7275.46
1023.19	7290.79
1028.309	7315.79
1033.423	7268.79
1038.532	7220.46
1043.636	7196.46
1048.734	7086.46
1053.827	7019.79
1058.915	6960.79
1063.998	6919.79
1069.075	6905.46
1074.147	6869.12
1079.214	6896.79
1084.276	6935.13
1089.333	6955.46
1094.385	6984.79
1099.431	7018.12
1104.472	7006.12
1109.509	6958.46
1114.54	6887.12
1119.565	6799.46
1124.586	6715.12
1129.602	6666.79
1134.613	6592.79
1139.618	6567.13
1144.619	6567.12
1149.614	6608.12
1154.604	6609.46
1159.589	6652.12
1164.57	6655.46
1169.545	6664.46
1174.515	6675.79
1179.48	6658.79
1184.44	6613.12
1189.395	6565.46
1194.345	6504.12
1199.29	6476.12
1204.23	6480.13
1209.165	6512.46
1214.095	6549.79
1219.021	6577.79
1223.941	6622.12
1228.856	6634.79
1233.766	6632.12
1238.672	6667.12
1243.572	6657.46
1248.467	6597.79
1253.358	6522.12
1258.244	6441.12
1263.124	6325.46
1268	6250.12
1272.871	6174.46
1277.737	6132.46
1282.599	6112.13
1287.455	6098.12
1292.306	6119.12
1297.153	6152.12
1301.995	6200.79
1306.832	6220.79
1311.664	6247.12
1316.491	6232.79
1321.314	6204.12
1326.132	6171.46
1330.945	6105.79
1335.753	6067.46
1340.556	6005.46
1345.354	5978.79
1350.148	5929.79
1354.937	5839.79
1359.722	5780.12
1364.501	5691.79
1369.276	5627.46
1374.046	5584.79
1378.811	5522.12
1383.572	5462.79
1388.327	5416.12
1393.079	5391.12
1397.825	5351.46
1402.567	5337.46
1407.304	5290.79
1412.036	5281.46
1416.764	5284.46
1421.487	5282.79
1426.205	5306.13
1430.919	5337.13
1435.628	5398.79
1440.333	5450.46
1445.032	5503.79
1449.727	5529.46
1454.418	5527.13
1459.104	5540.46
1463.785	5507.46
1468.462	5479.79
1473.134	5454.79
1477.802	5447.79
1482.465	5457.13
1487.123	5429.79
1491.777	5496.13
1496.426	5519.79
1501.071	5561.79
1505.711	5604.46
1510.347	5634.79
1514.978	5646.46
1519.604	5662.79
1524.226	5675.79
1528.844	5635.79
1533.457	5608.13
1538.065	5583.79
1542.669	5568.79
1547.269	5583.12
1551.864	5599.46
1556.454	5657.12
1561.041	5715.79
1565.622	5795.46
1570.199	5872.12
1574.772	6020.79
1579.34	6167.12
1583.904	6307.46
1588.464	6454.46
1593.019	6571.46
1597.569	6679.46
1602.115	6822.12
1606.657	6913.12
1611.195	7028.13
1615.728	7138.13
1620.256	7273.79
1624.78	7421.12
1629.3	7541.12
1633.816	7706.13
1638.327	7809.46
1642.834	7938.46
1647.336	8015.12
1651.834	7995.12
1656.328	7971.46
1660.817	7904.79
1665.302	7782.79
1669.783	7603.46
1674.259	7392.12
1678.732	7167.46
1683.199	6918.46
1687.663	6669.46
1692.122	6393.46
1696.577	6094.12
1701.028	5805.79
1705.474	5538.12
1709.917	5270.79
1714.355	5071.46
1718.788	4893.79
1723.218	4778.12
1727.643	4675.79
1732.064	4536.46
1736.481	4406.79
1740.893	4248.79
1745.301	4098.12
1749.705	3969.79
1754.105	3851.13
1758.501	3748.79
1762.893	3666.79
1767.28	3588.79
1771.663	3561.46
1776.042	3528.79
1780.417	3529.46
1784.787	3532.13
1789.154	3514.46
1793.516	3500.13
1797.874	3440.46
1802.228	3367.46
1806.578	3300.46
1810.924	3195.46
1815.266	3182.79
1819.603	3077.12
1823.937	3049.46
1828.266	3016.79
1832.591	3016.79
1836.913	3018.13
1841.23	3003.79
1845.543	3013.79
1849.852	3015.79
1854.156	3028.46
1858.457	3053.79
1862.754	3062.13
1867.047	3079.46
1871.335	3101.79
1875.62	3104.46
1879.9	3115.46
1884.177	3117.79
1888.449	3118.12
1892.718	3121.13
1896.982	3112.13
1901.243	3098.79
1905.499	3103.79
1909.752	3105.79
1914	3129.79
1918.245	3129.13
1922.485	3153.79
1926.722	3176.79
1930.954	3177.46
1935.183	3180.79
1939.408	3178.46
1943.628	3169.79
1947.845	3140.79
1952.058	3107.79
1956.267	3071.12
1960.472	3032.46
1964.673	2975.12
1968.87	2936.79
1973.063	2892.79
1977.252	2874.13
1981.438	2880.79
1985.619	2859.79
1989.797	2850.46
1993.971	2866.12
1998.14	2891.79
2002.306	2903.13
2006.469	2928.46
2010.627	2945.79
2014.781	2968.13
2018.932	2970.79
2023.078	2964.12
2027.221	2965.46
2031.36	2949.79
2035.495	2935.13
2039.627	2937.13
2043.754	2931.46
2047.878	2941.79
2051.998	2948.13
2056.114	2963.79
2060.226	2976.13
2064.334	3012.46
2068.439	3021.79
2072.54	3044.46
2076.637	3084.13
2080.73	3095.46
2084.82	3105.79
2088.906	3100.46
2092.988	3092.79
2097.066	3088.79
2101.14	3062.13
2105.211	3022.46
2109.278	2991.46
2113.342	2965.79
2117.401	2926.46
2121.457	2904.46
2125.509	2877.13
2129.558	2868.13
2133.602	2833.79
2137.643	2815.79
2141.681	2799.13
2145.714	2784.13
2149.744	2763.46
2153.77	2736.79
2157.793	2717.46
2161.812	2691.12
2165.827	2653.79
2169.838	2629.13
2173.846	2584.79
2177.851	2536.13
2181.851	2512.46
2185.848	2466.46
2189.841	2449.79
2193.831	2416.13
2197.817	2410.13
2201.799	2394.79
2205.778	2362.79
2209.753	2350.46
2213.725	2342.79
2217.693	2324.79
2221.657	2310.79
2225.618	2300.13
2229.575	2286.13
2233.529	2252.79
2237.479	2225.46
2241.425	2181.79
2245.368	2157.46
2249.307	2127.46
2253.243	2104.46
2257.175	2055.46
2261.104	2026.13
2265.029	1985.79
2268.95	1969.12
2272.868	1942.46
2276.783	1916.46
2280.694	1890.12
2284.601	1860.12
2288.505	1842.46
2292.405	1815.46
2296.302	1797.79
2300.195	1758.79
2304.085	1734.46
2307.971	1716.46
2311.854	1687.46
2315.734	1651.79
2319.609	1631.13
2323.482	1600.79
2327.351	1593.13
2331.216	1602.79
2335.078	1590.46
2338.937	1570.46
2342.792	1539.79
2346.643	1541.79
2350.492	1530.79
2354.336	1523.79
2358.178	1531.13
2362.015	1528.79
2365.85	1532.13
2369.681	1525.79
2373.508	1535.79
2377.333	1532.13
2381.153	1522.79
2384.971	1511.46
2388.785	1502.46
2392.595	1495.13
2396.402	1480.46
2400.206	1476.46
2404.007	1476.13
2407.804	1466.79
2411.597	1462.79
2415.388	1456.46
2419.174	1449.13
2422.958	1446.46
2426.738	1432.79
2430.515	1433.13
2434.289	1423.46
2438.059	1428.13
2441.825	1410.13
2445.589	1398.13
2449.349	1391.46
2453.106	1382.46
2456.859	1368.79
2460.61	1360.79
2464.356	1346.46
2468.1	1346.13
2471.84	1325.79
2475.577	1322.13
2479.311	1328.46
2483.041	1320.13
2486.768	1318.46
2490.492	1325.79
2494.213	1325.13
2497.93	1311.79
2501.644	1315.46
2505.355	1313.79
2509.062	1303.13
2512.766	1311.46
2516.467	1308.13
2520.165	1303.46
2523.859	1296.46
2527.551	1295.79
2531.239	1286.79
2534.923	1273.46
2538.605	1272.13
2542.283	1272.79
2545.958	1255.46
2549.63	1262.13
2553.299	1258.46
2556.964	1253.13
2560.626	1241.46
2564.285	1236.79
2567.941	1232.79
2571.594	1218.79
2575.243	1208.13
2578.89	1201.79
2582.533	1187.46
2586.173	1182.46
2589.809	1164.79
2593.443	1155.13
2597.073	1137.46
2600.701	1135.79
2604.325	1120.79
2607.946	1117.46
2611.564	1107.46
2615.178	1104.13
2618.79	1102.46
2622.398	1101.46
2626.004	1089.79
2629.606	1084.13
2633.205	1073.79
2636.801	1057.13
2640.394	1051.13
2643.983	1050.46
2647.57	1044.79
2651.153	1037.79
2654.734	1027.46
2658.311	1021.79
2661.885	1033.13
2665.456	1016.13
2669.025	1015.46
2672.589	1013.46
2676.151	1005.79
2679.71	1011.46
2683.266	1004.13
2686.819	1000.46
2690.368	989.46
2693.915	990.13
2697.458	988.46
2700.999	985.46
2704.536	976.46
2708.071	981.13
2711.602	976.13
2715.13	969.79
2718.656	974.13
2722.178	976.13
2725.697	977.13
2729.214	992.13
2732.727	1000.13
2736.237	1007.46
2739.744	1015.79
2743.249	1025.79
2746.75	1027.79
2750.248	1034.46
2753.743	1033.46
2757.236	1027.46
2760.725	1006.13
2764.211	1008.13
2767.695	992.13
2771.175	993.13
2774.652	988.79
2778.127	987.79
2781.598	998.13
2785.067	1006.13
2788.532	1014.13
2791.995	1033.13
2795.455	1040.79
2798.911	1053.79
2802.365	1066.13
2805.816	1083.46
2809.264	1094.79
2812.709	1103.79
2816.151	1117.13
2819.59	1126.79
2823.026	1134.46
2826.46	1148.46
2829.89	1158.79
2833.318	1167.46
2836.742	1173.79
2840.164	1187.46
2843.583	1204.46
2846.999	1213.13
2850.412	1233.79
2853.822	1257.46
2857.229	1256.46
2860.634	1282.13
2864.035	1292.79
2867.434	1315.79
2870.83	1327.13
2874.223	1351.13
2877.613	1368.79
2881	1368.46
2884.385	1391.13
2887.766	1394.79
2891.145	1417.13
2894.521	1432.13
2897.894	1447.13
2901.264	1451.79
2904.631	1471.46
2907.996	1489.13
2911.358	1520.13
2914.717	1535.13
2918.073	1571.13
2921.426	1591.46
2924.777	1623.46
2928.124	1651.13
2931.469	1698.46
2934.811	1740.13
2938.15	1762.46
2941.487	1804.46
2944.821	1836.79
2948.152	1871.13
2951.48	1895.46
2954.805	1930.46
2958.128	1970.46
2961.447	2000.79
2964.765	2064.46
2968.079	2097.12
2971.39	2149.46
2974.699	2211.13
2978.005	2257.46
2981.308	2323.79
2984.609	2388.12
2987.907	2443.13
2991.202	2509.79
2994.494	2579.12
2997.784	2642.13
3001.07	2712.79
3004.355	2784.13
3007.636	2838.46
3010.915	2893.79
3014.191	2957.46
3017.464	3015.46
3020.734	3052.12
3024.002	3114.79
3027.267	3178.79
3030.53	3230.79
3033.789	3321.13
3037.046	3393.12
3040.301	3474.46
3043.552	3558.79
3046.801	3635.46
3050.048	3744.79
3053.291	3868.79
3056.532	3970.12
3059.771	4086.79
3063.006	4208.46
3066.239	4333.12
3069.469	4458.12
3072.697	4611.46
3075.922	4740.13
3079.144	4852.79
3082.364	4978.46
3085.581	5100.79
3088.795	5206.12
3092.007	5349.79
3095.216	5458.46
3098.423	5584.79
3101.627	5739.46
3104.828	5836.12
3108.026	5996.46
3111.222	6112.79
3114.416	6265.46
3117.607	6383.13
3120.795	6541.12
3123.98	6684.79
3127.163	6858.79
3130.344	6999.13
3133.521	7144.79
3136.696	7279.46
3139.869	7462.46
3143.039	7565.13
3146.206	7676.46
3149.371	7785.13
3152.533	7865.79
3155.693	7923.13
3158.85	7975.13
3162.005	8040.46
3165.157	8056.79
3168.306	8101.79
3171.453	8133.46
3174.597	8163.79
3177.739	8213.13
3180.878	8212.79
3184.014	8275.79
3187.149	8310.13
3190.28	8367.79
3193.409	8375.46
3196.536	8432.79
3199.659	8432.13
3202.781	8495.12
3205.9	8499.46
3209.016	8501.46
3212.13	8518.46
3215.241	8477.79
3218.35	8433.13
3221.456	8388.79
3224.56	8352.79
3227.661	8273.46
3230.76	8219.13
3233.856	8167.79
3236.95	8101.12
3240.041	8088.79
3243.13	8018.13
3246.216	8001.13
3249.3	7955.46
3252.382	7907.13
3255.46	7887.46
3258.537	7884.13
3261.611	7840.79
3264.682	7832.12
3267.751	7807.12
3270.818	7767.46
3273.882	7731.46
3276.943	7690.79
3280.002	7629.12
3283.059	7533.12
3286.113	7482.46
3289.165	7368.79
3292.214	7276.12
3295.261	7192.79
3298.306	7088.79
3301.348	6994.46
3304.387	6906.46
3307.425	6827.79
3310.459	6752.12
3313.492	6678.79
3316.521	6602.46
3319.549	6562.79
3322.574	6519.13
3325.597	6489.79
3328.617	6445.12
3331.635	6425.12
3334.65	6398.79
3337.663	6369.79
3340.674	6353.79
3343.682	6349.46
3346.688	6342.13
3349.691	6309.13
3352.692	6292.79
3355.691	6269.13
3358.687	6232.12
3361.681	6177.46
3364.673	6112.46
3367.662	6047.79
3370.649	5966.79
3373.633	5919.79
3376.615	5858.46
3379.595	5789.12
3382.572	5725.79
3385.547	5667.13
3388.52	5624.79
3391.49	5565.79
3394.458	5493.46
3397.424	5441.46
3400.387	5398.79
3403.348	5354.12
3406.307	5292.46
3409.263	5266.79
3412.217	5205.79
3415.168	5165.79
3418.118	5139.79
3421.065	5091.13
3424.009	5023.79
3426.951	4975.46
3429.891	4908.79
3432.829	4831.46
3435.764	4778.12
3438.697	4671.46
3441.628	4620.46
3444.557	4514.79
3447.483	4409.79
3450.407	4316.13
3453.328	4204.79
3456.247	4120.12
3459.164	4015.46
3462.079	3930.12
3464.991	3821.79
3467.902	3748.13
3470.809	3669.79
3473.715	3569.13
3476.618	3495.46
3479.519	3419.79
3482.418	3345.12
3485.315	3281.46
3488.209	3209.46
3491.101	3144.79
3493.99	3064.79
3496.878	3015.46
3499.763	2916.46
3502.646	2878.79
3505.527	2793.46
3508.405	2716.13
3511.281	2643.13
3514.155	2556.46
3517.027	2486.46
3519.897	2392.79
3522.764	2314.79
3525.629	2236.46
3528.492	2156.79
3531.352	2072.46
3534.211	1988.46
3537.067	1921.79
3539.921	1846.79
3542.773	1791.46
3545.622	1724.13
3548.469	1659.79
3551.315	1605.79
3554.157	1563.79
3556.998	1504.79
3559.837	1464.79
3562.673	1418.79
3565.507	1382.79
3568.339	1336.46
3571.169	1293.79
3573.996	1242.46
3576.822	1212.13
3579.645	1176.46
3582.466	1130.13
3585.285	1098.79
3588.101	1052.79
3590.916	1016.79
3593.728	980.46
3596.538	945.46
3599.346	913.79
3602.152	881.13
3604.956	844.79
3607.757	819.13
3610.556	773.46
3613.354	755.13
3616.149	733.46
3618.942	696.79
3621.732	679.79
3624.521	666.79
3627.307	634.46
3630.092	616.79
3632.874	603.13
3635.654	576.79
3638.432	566.46
3641.208	541.13
3643.982	525.79
3646.753	507.13
3649.523	482.46
3652.29	470.13
3655.055	448.79
3657.818	430.46
3660.579	411.79
3663.338	403.13
3666.095	384.13
3668.849	364.46
3671.602	352.13
3674.352	334.79
3677.101	322.13
3679.847	309.13
3682.591	289.13
3685.333	280.46
3688.073	267.13
3690.811	260.13
3693.547	253.13
3696.281	247.13
3699.013	231.46
3701.742	226.46
3704.47	212.13
3707.195	209.46
3709.919	200.46
3712.64	193.46
3715.359	184.13
3718.076	180.79
3720.792	171.79
3723.505	165.46
3726.216	160.79
3728.925	155.46
3731.632	145.79
3734.336	148.13
3737.039	138.13
3739.74	132.46
3742.439	129.13
3745.136	124.79
3747.83	118.13
3750.523	119.46
3753.213	87.79
3755.902	112.46
3758.589	103.13
3761.273	106.13
3763.956	102.79
3766.636	100.13
3769.315	96.13
3771.991	89.79
3774.665	90.13
3777.338	82.79
3780.008	87.13
3782.677	86.46
3785.343	83.46
3788.007	74.79
3790.67	81.46
3793.33	75.46
3795.989	68.46
3798.645	74.13
3801.299	70.13
3803.952	66.79
3806.602	63.46
3809.251	64.79
3811.897	61.79
3814.542	61.79
3817.184	58.46
3819.825	57.46
3822.463	59.79
3825.1	53.79
3827.735	55.46
3830.367	53.79
3832.998	54.46
3835.627	56.46
3838.253	50.79
3840.878	51.13
3843.501	48.13
3846.122	47.79
3848.741	46.46
3851.358	48.13
3853.973	49.13
3856.586	42.13
3859.197	45.13
3861.806	39.79
3864.414	38.79
3867.019	48.13
3869.622	44.46
3872.224	55.46
3874.823	74.13
3877.421	94.13
3880.016	123.46
3882.61	150.46
3885.202	164.46
3887.792	136.13
3890.38	95.79
3892.966	33.46
3895.55	36.13
3898.132	38.13
3900.713	32.46
3903.291	33.79
3905.868	33.79
3908.442	29.46
3911.015	29.79
3913.586	31.79
3916.155	30.46
3918.722	31.13
3921.287	26.79
3923.85	26.46
3926.411	29.46
3928.971	22.46
3931.528	22.79
3934.084	26.46
3936.638	20.13
3939.19	23.46
3941.74	22.46
3944.288	24.13
3946.834	24.46
3949.378	19.13
3951.921	20.46
3954.462	25.13
3957	26.79
3959.537	26.79
3962.072	31.13
3964.606	25.13
3967.137	23.79
3969.667	24.79
3972.194	30.13
3974.72	29.13
3977.244	32.46
3979.766	34.79
3982.286	31.79
3984.805	38.13
3987.321	35.13
3989.836	42.46
3992.349	41.13
3994.86	38.79
3997.369	40.46
3999.877	40.46
4002.382	38.13
4004.886	37.46
4007.388	37.46
4009.888	35.79
4012.386	34.13
4014.883	36.46
4017.377	33.79
4019.87	32.13
4022.361	36.79
4024.85	31.13
4027.338	32.79
4029.823	34.13
4032.307	30.46
4034.789	31.46
4037.269	33.46
4039.747	28.79
4042.224	22.79
4044.699	26.79
4047.172	21.79
4049.643	27.13
4052.112	27.46
4054.58	27.79
4057.046	24.79
4059.51	24.79
4061.972	24.46
4064.432	28.46
4066.891	24.79
4069.348	27.79
4071.803	27.13
4074.256	27.13
4076.708	27.79
4079.158	27.46
4081.606	31.46
4084.052	28.13
4086.497	29.13
4088.939	30.13
4091.38	31.46
4093.819	32.13
4096.257	3.46
4098.693	-2.54
4101.127	-1.87
4103.559	-1.87
4105.989	329.46
4108.418	339.13
4110.845	368.79
4113.27	395.79
4115.694	424.13
4118.115	479.13
4120.535	31.13
4122.954	28.46
4125.37	31.79
4127.785	26.79
4130.198	27.79
4132.609	24.79
4135.019	-1.21
4137.427	1.79
4139.833	1.79
4142.237	0.46
