160.701	555.38
166.742	737.71
172.777	1273.04
178.805	2973.04
184.826	7229.71
190.841	14986.38
196.849	24450.71
202.85	31345.04
208.845	33454.38
214.833	32552.71
220.815	31182.04
226.789	30209.38
232.758	29372.37
238.719	28471.71
244.674	27415.38
250.623	26248.71
256.565	25038.04
262.5	23882.04
268.429	22804.38
274.351	21849.04
280.267	21052.38
286.176	20340.38
292.079	19667.38
297.975	19050.04
303.865	18546.04
309.748	18104.37
315.625	17711.71
321.495	17426.71
327.359	17183.37
333.217	17028.71
339.068	16920.71
344.912	16844.71
350.751	16800.71
356.583	16770.04
362.408	16779.71
368.227	16774.71
374.04	16907.71
379.847	17111.38
385.647	17297.04
391.44	17230.71
397.228	17167.71
403.009	17208.04
408.784	17426.04
414.553	17902.38
420.315	18511.04
426.071	18666.37
431.821	18009.71
437.565	17449.04
443.302	17196.38
449.033	17072.37
454.758	16937.71
460.477	16827.04
466.189	16713.38
471.896	16564.38
477.596	16478.37
483.29	16364.04
488.978	16263.71
494.66	16128.04
500.335	15910.71
506.005	15621.38
511.668	15281.38
517.325	14961.04
522.977	14668.71
528.622	14459.71
534.261	14241.04
539.894	14094.38
545.521	13924.38
551.141	13846.38
556.756	13741.38
562.365	13604.71
567.968	13504.04
573.565	13416.38
579.155	13308.71
584.74	13226.71
590.319	13103.71
595.892	12976.38
601.459	12859.04
607.02	12767.04
612.575	12624.38
618.124	12457.04
623.667	12346.71
629.204	12237.71
634.735	12134.04
640.261	12182.38
645.781	12263.71
651.294	12300.38
656.802	12135.71
662.304	11820.71
667.8	11666.04
673.29	11542.71
678.775	11469.04
684.254	11371.38
689.726	11284.71
695.193	11188.71
700.655	11072.04
706.11	10982.71
711.56	10881.04
717.004	10795.38
722.442	10704.04
727.874	10608.04
733.301	10504.04
738.722	10491.71
744.137	10427.71
749.547	10460.38
754.951	10400.04
760.349	10360.71
765.741	10240.04
771.128	10175.38
776.509	10158.04
781.885	10078.04
787.254	10055.71
792.618	9956.38
797.977	9894.38
803.33	9763.38
808.677	9683.71
814.019	9556.38
819.355	9388.38
824.686	9273.38
830.011	9200.71
835.33	9117.04
840.644	9038.71
845.952	8969.71
851.255	8896.04
856.552	8794.38
861.844	8697.71
867.13	8606.04
872.41	8503.38
877.686	8396.38
882.955	8267.04
888.219	8138.38
893.478	8007.38
898.731	7862.38
903.979	7712.38
909.221	7632.38
914.458	7550.71
919.69	7496.38
924.916	7471.04
930.136	7426.38
935.351	7391.71
940.561	7367.04
945.766	7321.38
950.965	7262.71
956.158	7166.04
961.347	7080.71
966.529	6978.38
971.707	6873.71
976.879	6769.04
982.046	6689.38
987.208	6639.04
992.364	6595.38
997.515	6643.38
1002.66	6676.71
1007.801	6675.71
1012.936	6730.38
1018.066	6757.38
1023.19	6809.38
1028.309	6786.04
1033.423	6753.38
1038.532	6732.71
1043.636	6649.38
1048.734	6591.38
1053.827	6515.71
1058.915	6464.71
1063.998	6417.04
1069.075	6385.71
1074.147	6381.38
1079.214	6419.38
1084.276	6436.71
1089.333	6447.71
1094.385	6464.71
1099.431	6513.71
1104.472	6495.71
1109.509	6462.04
1114.54	6399.38
1119.565	6313.04
1124.586	6228.71
1129.602	6167.38
1134.613	6122.38
1139.618	6103.38
1144.619	6074.71
1149.614	6116.04
1154.604	6122.04
1159.589	6129.38
1164.57	6147.04
1169.545	6155.38
1174.515	6186.04
1179.48	6159.71
1184.44	6110.04
1189.395	6063.04
1194.345	6007.04
1199.29	5993.04
1204.23	5984.04
1209.165	6012.04
1214.095	6031.38
1219.021	6061.04
1223.941	6107.04
1228.856	6127.38
1233.766	6142.04
1238.672	6142.04
1243.572	6123.38
1248.467	6079.38
1253.358	6007.04
1258.244	5935.38
1263.124	5839.71
1268	5751.71
1272.871	5675.38
1277.737	5641.71
1282.599	5608.71
1287.455	5623.71
1292.306	5641.38
1297.153	5650.04
1301.995	5661.04
1306.832	5692.71
1311.664	5729.71
1316.491	5699.38
1321.314	5675.38
1326.132	5623.04
1330.945	5582.04
1335.753	5495.38
1340.556	5419.04
1345.354	5383.04
1350.148	5303.38
1354.937	5261.71
1359.722	5201.04
1364.501	5148.38
1369.276	5102.04
1374.046	5051.04
1378.811	5020.38
1383.572	5003.71
1388.327	4964.71
1393.079	4933.04
1397.825	4899.71
1402.567	4866.38
1407.304	4853.04
1412.036	4833.38
1416.764	4828.38
1421.487	4834.71
1426.205	4832.71
1430.919	4868.38
1435.628	4919.38
1440.333	4962.38
1445.032	4984.04
1449.727	5003.71
1454.418	5021.04
1459.104	5015.38
1463.785	4974.04
1468.462	4949.38
1473.134	4925.71
1477.802	4898.71
1482.465	4865.04
1487.123	4880.04
1491.777	4909.38
1496.426	4940.04
1501.071	4965.71
1505.711	5014.38
1510.347	5045.38
1514.978	5085.04
1519.604	5100.71
1524.226	5130.04
1528.844	5090.38
1533.457	5073.71
1538.065	5072.04
1542.669	5064.38
1547.269	5098.71
1551.864	5120.71
1556.454	5191.71
1561.041	5277.38
1565.622	5358.71
1570.199	5429.38
1574.772	5555.04
1579.34	5699.38
1583.904	5835.38
1588.464	5988.38
1593.019	6145.71
1597.569	6268.71
1602.115	6368.38
1606.657	6479.71
1611.195	6586.04
1615.728	6720.04
1620.256	6865.04
1624.78	7010.04
1629.3	7125.71
1633.816	7280.38
1638.327	7414.71
1642.834	7507.38
1647.336	7551.71
1651.834	7561.04
1656.328	7534.71
1660.817	7439.04
1665.302	7323.38
1669.783	7127.04
1674.259	6907.04
1678.732	6645.71
1683.199	6401.04
1687.663	6120.71
1692.122	5810.71
1696.577	5539.38
1701.028	5263.38
1705.474	4996.38
1709.917	4782.38
1714.355	4577.38
1718.788	4426.71
1723.218	4303.04
1727.643	4181.38
1732.064	4053.38
1736.481	3913.71
1740.893	3774.38
1745.301	3629.38
1749.705	3501.71
1754.105	3404.71
1758.501	3283.71
1762.893	3204.71
1767.28	3140.71
1771.663	3091.71
1776.042	3047.71
1780.417	3036.71
1784.787	3017.04
1789.154	3001.71
1793.516	2975.71
1797.874	2940.38
1802.228	2878.71
1806.578	2820.38
1810.924	2755.04
1815.266	2731.71
1819.603	2661.71
1823.937	2611.38
1828.266	2594.71
1832.591	2594.71
1836.913	2586.38
1841.23	2571.38
1845.543	2589.04
1849.852	2595.04
1854.156	2592.71
1858.457	2603.71
1862.754	2622.71
1867.047	2610.04
1871.335	2628.04
1875.62	2656.38
1879.9	2648.04
1884.177	2662.71
1888.449	2628.71
1892.718	2644.38
1896.982	2615.38
1901.243	2615.04
1905.499	2617.04
1909.752	2623.71
1914	2633.71
1918.245	2635.71
1922.485	2653.04
1926.722	2658.71
1930.954	2663.38
1935.183	2673.04
1939.408	2678.71
1943.628	2669.38
1947.845	2650.04
1952.058	2615.71
1956.267	2607.38
1960.472	2574.04
1964.673	2533.38
1968.87	2522.04
1973.063	2500.38
1977.252	2480.04
1981.438	2467.04
1985.619	2452.38
1989.797	2475.04
1993.971	2485.38
1998.14	2510.04
2002.306	2526.04
2006.469	2552.71
2010.627	2555.38
2014.781	2577.38
2018.932	2585.04
2023.078	2574.71
2027.221	2590.04
2031.36	2568.71
2035.495	2557.38
2039.627	2559.04
2043.754	2572.71
2047.878	2566.38
2051.998	2556.71
2056.114	2593.38
2060.226	2599.38
2064.334	2621.38
2068.439	2641.38
2072.54	2654.38
2076.637	2690.71
2080.73	2701.04
2084.82	2709.71
2088.906	2722.71
2092.988	2707.71
2097.066	2681.71
2101.14	2672.38
2105.211	2657.71
2109.278	2622.71
2113.342	2608.04
2117.401	2578.04
2121.457	2562.38
2125.509	2529.38
2129.558	2510.71
2133.602	2497.71
2137.643	2485.04
2141.681	2468.71
2145.714	2457.71
2149.744	2451.71
2153.77	2430.38
2157.793	2417.38
2161.812	2374.71
2165.827	2352.04
2169.838	2315.38
2173.846	2289.38
2177.851	2242.38
2181.851	2218.04
2185.848	2191.71
2189.841	2162.04
2193.831	2135.71
2197.817	2129.04
2201.799	2109.38
2205.778	2097.04
2209.753	2078.38
2213.725	2069.71
2217.693	2045.38
2221.657	2042.71
2225.618	2028.38
2229.575	2012.71
2233.529	1983.38
2237.479	1955.71
2241.425	1918.04
2245.368	1899.04
2249.307	1871.71
2253.243	1833.04
2257.175	1813.71
2261.104	1779.04
2265.029	1748.71
2268.95	1729.38
2272.868	1702.04
2276.783	1683.71
2280.694	1660.04
2284.601	1641.04
2288.505	1613.38
2292.405	1598.04
2296.302	1571.38
2300.195	1552.71
2304.085	1535.04
2307.971	1495.71
2311.854	1482.71
2315.734	1465.71
2319.609	1435.38
2323.482	1407.38
2327.351	1406.71
2331.216	1418.04
2335.078	1403.04
2338.937	1377.04
2342.792	1352.71
2346.643	1347.38
2350.492	1346.71
2354.336	1344.71
2358.178	1343.38
2362.015	1347.38
2365.85	1343.71
2369.681	1353.04
2373.508	1337.38
2377.333	1331.71
2381.153	1335.04
2384.971	1325.38
2388.785	1323.04
2392.595	1309.04
2396.402	1303.04
2400.206	1299.38
2404.007	1284.38
2407.804	1284.71
2411.597	1282.38
2415.388	1269.71
2419.174	1270.71
2422.958	1260.71
2426.738	1258.71
2430.515	1250.04
2434.289	1246.04
2438.059	1232.04
2441.825	1235.71
2445.589	1223.71
2449.349	1215.38
2453.106	1199.04
2456.859	1187.04
2460.61	1181.04
2464.356	1168.04
2468.1	1161.38
2471.84	1153.71
2475.577	1155.71
2479.311	1144.71
2483.041	1143.38
2486.768	1148.71
2490.492	1141.71
2494.213	1142.71
2497.93	1145.71
2501.644	1139.38
2505.355	1137.04
2509.062	1140.71
2512.766	1128.71
2516.467	1123.04
2520.165	1123.38
2523.859	1114.38
2527.551	1112.04
2531.239	1104.38
2534.923	1099.04
2538.605	1093.38
2542.283	1086.38
2545.958	1080.04
2549.63	1072.04
2553.299	1073.71
2556.964	1069.38
2560.626	1066.71
2564.285	1055.71
2567.941	1048.38
2571.594	1041.04
2575.243	1031.04
2578.89	1016.71
2582.533	1010.38
2586.173	1001.71
2589.809	995.38
2593.443	976.38
2597.073	977.38
2600.701	969.38
2604.325	961.04
2607.946	957.04
2611.564	951.04
2615.178	949.04
2618.79	951.04
2622.398	942.38
2626.004	933.04
2629.606	936.38
2633.205	918.38
2636.801	922.71
2640.394	910.71
2643.983	902.71
2647.57	907.38
2651.153	890.38
2654.734	893.71
2658.311	886.71
2661.885	892.04
2665.456	880.71
2669.025	901.04
2672.589	882.38
2676.151	873.38
2679.71	873.04
2683.266	877.04
2686.819	872.38
2690.368	868.38
2693.915	868.04
2697.458	860.71
2700.999	859.38
2704.536	845.38
2708.071	857.04
2711.602	845.38
2715.13	836.04
2718.656	846.38
2722.178	849.04
2725.697	859.38
2729.214	864.71
2732.727	866.71
2736.237	876.38
2739.744	889.38
2743.249	898.38
2746.75	894.38
2750.248	899.38
2753.743	896.04
2757.236	888.38
2760.725	893.38
2764.211	892.38
2767.695	885.71
2771.175	882.04
2774.652	884.71
2778.127	889.04
2781.598	895.38
2785.067	908.38
2788.532	919.38
2791.995	924.38
2795.455	942.38
2798.911	950.38
2802.365	957.71
2805.816	981.38
2809.264	989.71
2812.709	1004.38
2816.151	1013.38
2819.59	1023.38
2823.026	1038.04
2826.46	1053.71
2829.89	1062.04
2833.318	1061.71
2836.742	1085.71
2840.164	1104.71
2843.583	1110.38
2846.999	1126.71
2850.412	1141.04
2853.822	1149.04
2857.229	1176.38
2860.634	1196.04
2864.035	1205.71
2867.434	1233.38
2870.83	1251.04
2874.223	1269.71
2877.613	1280.38
2881	1293.38
2884.385	1311.71
2887.766	1325.71
2891.145	1340.71
2894.521	1359.71
2897.894	1374.04
2901.264	1392.38
2904.631	1415.71
2907.996	1426.71
2911.358	1467.04
2914.717	1487.04
2918.073	1514.38
2921.426	1534.38
2924.777	1571.38
2928.124	1604.71
2931.469	1641.04
2934.811	1689.71
2938.15	1720.71
2941.487	1756.38
2944.821	1793.04
2948.152	1832.04
2951.48	1853.38
2954.805	1891.04
2958.128	1931.04
2961.447	1966.38
2964.765	2014.71
2968.079	2060.38
2971.39	2105.38
2974.699	2163.04
2978.005	2219.71
2981.308	2285.71
2984.609	2350.38
2987.907	2411.04
2991.202	2481.04
2994.494	2550.04
2997.784	2621.04
3001.07	2685.71
3004.355	2750.71
3007.636	2826.04
3010.915	2880.71
3014.191	2934.04
3017.464	2989.04
3020.734	3042.71
3024.002	3107.71
3027.267	3170.04
3030.53	3240.38
3033.789	3317.04
3037.046	3386.71
3040.301	3469.71
3043.552	3565.04
3046.801	3683.38
3050.048	3775.38
3053.291	3870.71
3056.532	4005.04
3059.771	4116.38
3063.006	4261.04
3066.239	4374.38
3069.469	4508.04
3072.697	4655.71
3075.922	4765.04
3079.144	4889.71
3082.364	5024.38
3085.581	5136.71
3088.795	5248.71
3092.007	5400.38
3095.216	5517.71
3098.423	5650.38
3101.627	5774.71
3104.828	5904.71
3108.026	6041.71
3111.222	6173.71
3114.416	6317.71
3117.607	6439.04
3120.795	6604.04
3123.98	6762.38
3127.163	6931.71
3130.344	7071.71
3133.521	7246.71
3136.696	7382.04
3139.869	7499.04
3143.039	7649.04
3146.206	7764.71
3149.371	7866.38
3152.533	7954.04
3155.693	8026.38
3158.85	8095.04
3162.005	8138.04
3165.157	8167.71
3168.306	8224.71
3171.453	8248.71
3174.597	8295.71
3177.739	8324.38
3180.878	8343.04
3184.014	8406.71
3187.149	8407.38
3190.28	8471.71
3193.409	8500.71
3196.536	8548.38
3199.659	8584.04
3202.781	8618.04
3205.9	8647.71
3209.016	8657.71
3212.13	8632.38
3215.241	8630.71
3218.35	8563.71
3221.456	8525.04
3224.56	8445.04
3227.661	8421.04
3230.76	8331.38
3233.856	8309.38
3236.95	8253.38
3240.041	8169.71
3243.13	8124.38
3246.216	8091.04
3249.3	8057.04
3252.382	8013.38
3255.46	8000.04
3258.537	7996.04
3261.611	7930.38
3264.682	7884.38
3267.751	7883.04
3270.818	7856.04
3273.882	7816.04
3276.943	7793.04
3280.002	7718.71
3283.059	7667.38
3286.113	7564.71
3289.165	7485.71
3292.214	7400.04
3295.261	7293.04
3298.306	7220.04
3301.348	7088.71
3304.387	7026.38
3307.425	6954.71
3310.459	6867.04
3313.492	6794.38
3316.521	6733.38
3319.549	6683.38
3322.574	6641.04
3325.597	6614.04
3328.617	6562.71
3331.635	6548.04
3334.65	6527.04
3337.663	6491.71
3340.674	6467.71
3343.682	6457.71
3346.688	6463.04
3349.691	6463.71
3352.692	6417.38
3355.691	6389.38
3358.687	6336.71
3361.681	6303.38
3364.673	6245.04
3367.662	6165.04
3370.649	6105.38
3373.633	6042.04
3376.615	5978.71
3379.595	5906.38
3382.572	5837.38
3385.547	5795.04
3388.52	5730.38
3391.49	5649.04
3394.458	5605.04
3397.424	5560.71
3400.387	5486.04
3403.348	5456.38
3406.307	5404.71
3409.263	5363.04
3412.217	5310.71
3415.168	5262.71
3418.118	5231.04
3421.065	5181.04
3424.009	5124.38
3426.951	5060.38
3429.891	4999.38
3432.829	4929.38
3435.764	4872.71
3438.697	4769.38
3441.628	4680.71
3444.557	4573.71
3447.483	4484.71
3450.407	4383.04
3453.328	4274.38
3456.247	4183.04
3459.164	4096.71
3462.079	4012.04
3464.991	3889.71
3467.902	3799.71
3470.809	3717.04
3473.715	3624.04
3476.618	3545.71
3479.519	3457.04
3482.418	3387.38
3485.315	3310.71
3488.209	3247.71
3491.101	3178.71
3493.99	3109.38
3496.878	3038.04
3499.763	2972.04
3502.646	2905.04
3505.527	2824.04
3508.405	2749.04
3511.281	2677.71
3514.155	2583.04
3517.027	2495.04
3519.897	2423.04
3522.764	2347.04
3525.629	2256.38
3528.492	2173.04
3531.352	2098.38
3534.211	2026.04
3537.067	1950.38
3539.921	1880.04
3542.773	1821.71
3545.622	1741.71
3548.469	1695.71
3551.315	1628.71
3554.157	1575.38
3556.998	1528.04
3559.837	1482.71
3562.673	1433.71
3565.507	1399.38
3568.339	1353.04
3571.169	1308.71
3573.996	1274.04
3576.822	1229.38
3579.645	1189.38
3582.466	1144.04
3585.285	1105.04
3588.101	1072.71
3590.916	1033.38
3593.728	996.71
3596.538	962.71
3599.346	931.04
3602.152	886.71
3604.956	857.71
3607.757	826.38
3610.556	790.38
3613.354	767.38
3616.149	736.04
3618.942	707.71
3621.732	689.71
3624.521	673.71
3627.307	642.71
3630.092	633.38
3632.874	606.71
3635.654	584.04
3638.432	573.04
3641.208	548.38
3643.982	532.04
3646.753	515.71
3649.523	490.04
3652.29	486.04
3655.055	465.04
3657.818	440.71
3660.579	418.38
3663.338	409.38
3666.095	385.04
3668.849	373.38
3671.602	355.38
3674.352	344.38
3677.101	326.71
3679.847	308.71
3682.591	300.38
3685.333	286.38
3688.073	276.71
3690.811	264.71
3693.547	259.04
3696.281	243.38
3699.013	237.71
3701.742	227.04
3704.47	224.38
3707.195	213.04
3709.919	203.71
3712.64	195.71
3715.359	189.04
3718.076	188.38
3720.792	175.04
3723.505	166.71
3726.216	163.38
3728.925	155.04
3731.632	150.04
3734.336	150.04
3737.039	139.38
3739.74	134.04
3742.439	126.38
3745.136	122.71
3747.83	116.38
3750.523	114.71
3753.213	85.04
3755.902	109.38
3758.589	108.38
3761.273	105.04
3763.956	102.38
3766.636	100.71
3769.315	99.71
3771.991	93.71
3774.665	88.71
3777.338	83.71
3780.008	85.04
3782.677	84.38
3785.343	80.04
3788.007	75.04
3790.67	77.71
3793.33	74.71
3795.989	68.71
3798.645	71.71
3801.299	67.04
3803.952	67.04
3806.602	65.71
3809.251	65.04
3811.897	61.04
3814.542	63.71
3817.184	61.04
3819.825	63.71
3822.463	60.71
3825.1	58.71
3827.735	59.04
3830.367	57.71
3832.998	54.38
3835.627	55.04
3838.253	50.71
3840.878	46.71
3843.501	50.04
3846.122	44.04
3848.741	47.38
3851.358	47.71
3853.973	47.04
3856.586	46.04
3859.197	42.04
3861.806	43.04
3864.414	43.38
3867.019	48.38
3869.622	45.04
3872.224	54.38
3874.823	66.71
3877.421	85.04
3880.016	113.71
3882.61	134.38
3885.202	144.71
3887.792	117.38
3890.38	81.71
3892.966	33.38
3895.55	29.04
3898.132	35.71
3900.713	30.38
3903.291	26.71
3905.868	33.38
3908.442	27.71
3911.015	29.71
3913.586	30.71
3916.155	28.38
3918.722	25.71
3921.287	26.04
3923.85	25.71
3926.411	23.38
3928.971	21.71
3931.528	22.04
3934.084	25.04
3936.638	21.38
3939.19	21.71
3941.74	18.71
3944.288	23.38
3946.834	21.38
3949.378	23.71
3951.921	25.04
3954.462	23.04
3957	28.71
3959.537	25.71
3962.072	27.04
3964.606	25.71
3967.137	27.71
3969.667	24.04
3972.194	26.04
3974.72	26.38
3977.244	33.38
3979.766	32.38
3982.286	32.71
3984.805	34.71
3987.321	37.71
3989.836	37.71
3992.349	40.04
3994.86	43.04
3997.369	41.04
3999.877	38.71
4002.382	37.71
4004.886	36.38
4007.388	38.71
4009.888	36.71
4012.386	32.71
4014.883	35.04
4017.377	35.38
4019.87	32.71
4022.361	36.71
4024.85	29.04
4027.338	33.04
4029.823	33.38
4032.307	28.71
4034.789	28.71
4037.269	30.04
4039.747	28.04
4042.224	25.38
4044.699	28.38
4047.172	21.71
4049.643	25.71
4052.112	27.38
4054.58	25.38
4057.046	25.71
4059.51	25.38
4061.972	26.71
4064.432	29.38
4066.891	24.38
4069.348	26.38
4071.803	26.04
4074.256	31.04
4076.708	27.38
4079.158	29.38
4081.606	25.38
4084.052	28.38
4086.497	31.04
4088.939	26.38
4091.38	31.38
4093.819	27.71
4096.257	5.38
4098.693	-1.62
4101.127	-1.96
4103.559	1.04
4105.989	309.04
4108.418	315.38
4110.845	351.38
4113.27	374.04
4115.694	407.38
4118.115	465.04
4120.535	30.38
4122.954	25.38
4125.37	28.04
4127.785	25.04
4130.198	27.04
4132.609	23.71
4135.019	-3.29
4137.427	-0.62
4139.833	0.71
4142.237	0.38
