160.701	546.88
166.742	740.21
172.777	1261.21
178.805	2940.54
184.826	7158.87
190.841	14827.21
196.849	24153.21
202.85	31009.88
208.845	33115.88
214.833	32255.88
220.815	30953.88
226.789	30102.21
232.758	29295.54
238.719	28451.54
244.674	27359.88
250.623	26338.54
256.565	25159.54
262.5	24100.88
268.429	23060.21
274.351	22245.54
280.267	21396.21
286.176	20717.88
292.079	20184.88
297.975	19564.21
303.865	19052.21
309.748	18619.21
315.625	18257.21
321.495	17959.88
327.359	17673.54
333.217	17529.88
339.068	17461.21
344.912	17368.88
350.751	17277.88
356.583	17267.88
362.408	17224.21
368.227	17283.88
374.04	17412.54
379.847	17606.54
385.647	17789.21
391.44	17748.88
397.228	17665.21
403.009	17649.88
408.784	17913.54
414.553	18321.21
420.315	18956.88
426.071	19078.88
431.821	18501.21
437.565	17907.21
443.302	17666.21
449.033	17560.88
454.758	17441.54
460.477	17312.54
466.189	17225.54
471.896	17109.54
477.596	16972.54
483.29	16891.54
488.978	16795.88
494.66	16665.88
500.335	16452.21
506.005	16195.21
511.668	15873.88
517.325	15579.88
522.977	15370.54
528.622	15149.21
534.261	14975.87
539.894	14825.88
545.521	14688.54
551.141	14569.21
556.756	14501.54
562.365	14367.21
567.968	14268.88
573.565	14166.88
579.155	14098.21
584.74	13981.21
590.319	13877.54
595.892	13761.88
601.459	13667.54
607.02	13542.54
612.575	13397.21
618.124	13262.21
623.667	13127.54
629.204	13034.21
634.735	12933.54
640.261	12982.88
645.781	13076.21
651.294	13094.88
656.802	12930.54
662.304	12628.54
667.8	12485.88
673.29	12359.21
678.775	12255.88
684.254	12173.54
689.726	12119.54
695.193	12016.54
700.655	11928.54
706.11	11802.21
711.56	11732.88
717.004	11631.54
722.442	11550.88
727.874	11496.21
733.301	11457.21
738.722	11406.88
744.137	11349.88
749.547	11314.21
754.951	11294.54
760.349	11210.88
765.741	11114.54
771.128	11037.54
776.509	10988.54
781.885	10950.88
787.254	10867.88
792.618	10796.54
797.977	10712.88
803.33	10597.88
808.677	10504.88
814.019	10360.88
819.355	10227.54
824.686	10092.54
830.011	10012.21
835.33	9968.54
840.644	9874.88
845.952	9832.54
851.255	9738.21
856.552	9686.21
861.844	9607.21
867.13	9494.21
872.41	9430.54
877.686	9324.21
882.955	9183.88
888.219	9048.21
893.478	8895.54
898.731	8764.54
903.979	8647.54
909.221	8539.88
914.458	8481.21
919.69	8416.88
924.916	8390.54
930.136	8366.21
935.351	8329.88
940.561	8327.88
945.766	8265.88
950.965	8201.54
956.158	8135.54
961.347	8033.21
966.529	7900.21
971.707	7783.21
976.879	7677.54
982.046	7598.88
987.208	7529.21
992.364	7525.88
997.515	7547.21
1002.66	7580.54
1007.801	7615.21
1012.936	7679.54
1018.066	7718.21
1023.19	7762.87
1028.309	7770.88
1033.423	7722.21
1038.532	7690.21
1043.636	7588.88
1048.734	7555.54
1053.827	7433.87
1058.915	7360.21
1063.998	7323.87
1069.075	7310.21
1074.147	7307.54
1079.214	7327.88
1084.276	7342.54
1089.333	7387.54
1094.385	7415.88
1099.431	7444.54
1104.472	7429.88
1109.509	7412.21
1114.54	7312.21
1119.565	7227.54
1124.586	7150.21
1129.602	7070.88
1134.613	7030.54
1139.618	6974.54
1144.619	6988.21
1149.614	7005.21
1154.604	7029.21
1159.589	7058.21
1164.57	7090.88
1169.545	7087.21
1174.515	7090.54
1179.48	7062.21
1184.44	7011.87
1189.395	6976.88
1194.345	6931.21
1199.29	6902.88
1204.23	6918.54
1209.165	6919.21
1214.095	6950.87
1219.021	6989.88
1223.941	7046.21
1228.856	7084.88
1233.766	7090.88
1238.672	7093.21
1243.572	7059.87
1248.467	7021.21
1253.358	6947.21
1258.244	6843.87
1263.124	6743.87
1268	6649.54
1272.871	6668.54
1277.737	6546.21
1282.599	6510.88
1287.455	6511.54
1292.306	6590.21
1297.153	6585.54
1301.995	6653.21
1306.832	6649.54
1311.664	6670.21
1316.491	6638.54
1321.314	6614.21
1326.132	6562.87
1330.945	6494.87
1335.753	6418.54
1340.556	6361.54
1345.354	6302.21
1350.148	6238.54
1354.937	6173.88
1359.722	6085.87
1364.501	6002.54
1369.276	5941.21
1374.046	5911.88
1378.811	5864.88
1383.572	5827.88
1388.327	5799.21
1393.079	5792.21
1397.825	5704.88
1402.567	5660.54
1407.304	5632.54
1412.036	5638.21
1416.764	5613.88
1421.487	5635.88
1426.205	5656.21
1430.919	5682.21
1435.628	5750.88
1440.333	5786.88
1445.032	5843.54
1449.727	5870.54
1454.418	5884.87
1459.104	5888.21
1463.785	5855.88
1468.462	5797.54
1473.134	5770.54
1477.802	5742.54
1482.465	5722.87
1487.123	5711.21
1491.777	5736.21
1496.426	5762.88
1501.071	5794.88
1505.711	5853.54
1510.347	5861.54
1514.978	5891.21
1519.604	5910.21
1524.226	5907.21
1528.844	5871.21
1533.457	5845.54
1538.065	5831.87
1542.669	5809.21
1547.269	5821.21
1551.864	5855.88
1556.454	5929.88
1561.041	5983.88
1565.622	6079.54
1570.199	6199.21
1574.772	6288.88
1579.34	6417.21
1583.904	6581.87
1588.464	6729.54
1593.019	6847.54
1597.569	6965.54
1602.115	7076.87
1606.657	7173.21
1611.195	7277.88
1615.728	7366.21
1620.256	7512.54
1624.78	7648.21
1629.3	7761.88
1633.816	7941.21
1638.327	8035.87
1642.834	8143.21
1647.336	8216.21
1651.834	8231.54
1656.328	8188.21
1660.817	8109.54
1665.302	7980.87
1669.783	7819.87
1674.259	7587.88
1678.732	7360.88
1683.199	7104.54
1687.663	6846.21
1692.122	6531.54
1696.577	6234.88
1701.028	5942.54
1705.474	5638.21
1709.917	5419.88
1714.355	5222.88
1718.788	5059.88
1723.218	4956.21
1727.643	4822.54
1732.064	4693.21
1736.481	4566.21
1740.893	4404.21
1745.301	4264.21
1749.705	4133.21
1754.105	4022.54
1758.501	3898.88
1762.893	3808.88
1767.28	3731.54
1771.663	3699.54
1776.042	3668.54
1780.417	3650.54
1784.787	3636.88
1789.154	3620.88
1793.516	3571.54
1797.874	3518.54
1802.228	3453.21
1806.578	3373.21
1810.924	3309.21
1815.266	3244.21
1819.603	3191.54
1823.937	3181.21
1828.266	3158.88
1832.591	3155.88
1836.913	3154.21
1841.23	3154.87
1845.543	3158.21
1849.852	3181.54
1854.156	3168.54
1858.457	3196.21
1862.754	3216.88
1867.047	3230.54
1871.335	3229.88
1875.62	3246.21
1879.9	3256.54
1884.177	3248.54
1888.449	3241.54
1892.718	3238.54
1896.982	3205.88
1901.243	3196.54
1905.499	3204.88
1909.752	3191.21
1914	3199.88
1918.245	3192.88
1922.485	3204.87
1926.722	3221.88
1930.954	3222.21
1935.183	3220.88
1939.408	3222.88
1943.628	3200.21
1947.845	3186.54
1952.058	3144.87
1956.267	3116.21
1960.472	3069.54
1964.673	3020.87
1968.87	2994.54
1973.063	2957.87
1977.252	2949.21
1981.438	2941.54
1985.619	2935.54
1989.797	2946.54
1993.971	2961.21
1998.14	2983.87
2002.306	3011.88
2006.469	3028.21
2010.627	3049.88
2014.781	3063.54
2018.932	3063.54
2023.078	3054.87
2027.221	3054.87
2031.36	3043.21
2035.495	3021.54
2039.627	3017.88
2043.754	3009.54
2047.878	3001.54
2051.998	3002.88
2056.114	3044.21
2060.226	3049.54
2064.334	3066.54
2068.439	3080.54
2072.54	3109.21
2076.637	3143.21
2080.73	3143.21
2084.82	3159.21
2088.906	3158.21
2092.988	3146.21
2097.066	3133.21
2101.14	3100.54
2105.211	3058.21
2109.278	3027.54
2113.342	3007.87
2117.401	2977.54
2121.457	2951.87
2125.509	2929.54
2129.558	2885.54
2133.602	2888.87
2137.643	2875.21
2141.681	2848.88
2145.714	2843.54
2149.744	2814.54
2153.77	2803.87
2157.793	2787.88
2161.812	2751.87
2165.827	2719.54
2169.838	2681.54
2173.846	2645.88
2177.851	2597.54
2181.851	2557.21
2185.848	2526.21
2189.841	2511.21
2193.831	2479.88
2197.817	2468.88
2201.799	2443.88
2205.778	2432.21
2209.753	2410.88
2213.725	2399.88
2217.693	2376.88
2221.657	2377.54
2225.618	2363.88
2229.575	2346.88
2233.529	2318.54
2237.479	2271.88
2241.425	2233.87
2245.368	2225.88
2249.307	2184.54
2253.243	2157.88
2257.175	2111.21
2261.104	2076.54
2265.029	2045.21
2268.95	2019.54
2272.868	1998.21
2276.783	1970.54
2280.694	1946.21
2284.601	1915.21
2288.505	1892.88
2292.405	1879.54
2296.302	1846.54
2300.195	1813.21
2304.085	1804.21
2307.971	1849.88
2311.854	1754.87
2315.734	1728.88
2319.609	1691.54
2323.482	1672.21
2327.351	1664.21
2331.216	1673.21
2335.078	1655.54
2338.937	1639.88
2342.792	1623.21
2346.643	1605.54
2350.492	1607.88
2354.336	1605.88
2358.178	1616.21
2362.015	1612.21
2365.85	1621.21
2369.681	1615.21
2373.508	1617.88
2377.333	1610.21
2381.153	1609.88
2384.971	1593.88
2388.785	1593.88
2392.595	1590.21
2396.402	1584.21
2400.206	1569.54
2404.007	1551.21
2407.804	1551.88
2411.597	1549.88
2415.388	1541.21
2419.174	1535.88
2422.958	1520.88
2426.738	1516.54
2430.515	1509.88
2434.289	1504.88
2438.059	1500.88
2441.825	1494.54
2445.589	1481.21
2449.349	1481.54
2453.106	1460.54
2456.859	1448.21
2460.61	1439.54
2464.356	1436.21
2468.1	1427.54
2471.84	1407.54
2475.577	1404.88
2479.311	1401.54
2483.041	1399.54
2486.768	1397.21
2490.492	1397.88
2494.213	1390.88
2497.93	1398.88
2501.644	1391.21
2505.355	1391.21
2509.062	1391.21
2512.766	1380.54
2516.467	1377.88
2520.165	1369.21
2523.859	1361.88
2527.551	1353.21
2531.239	1352.54
2534.923	1341.21
2538.605	1338.88
2542.283	1334.54
2545.958	1322.54
2549.63	1320.54
2553.299	1317.54
2556.964	1314.21
2560.626	1305.54
2564.285	1290.54
2567.941	1279.88
2571.594	1272.88
2575.243	1259.54
2578.89	1251.88
2582.533	1250.88
2586.173	1223.54
2589.809	1201.21
2593.443	1200.88
2597.073	1191.54
2600.701	1184.21
2604.325	1173.54
2607.946	1173.88
2611.564	1176.21
2615.178	1163.88
2618.79	1162.54
2622.398	1156.21
2626.004	1145.21
2629.606	1135.54
2633.205	1126.21
2636.801	1126.54
2640.394	1112.88
2643.983	1108.54
2647.57	1117.21
2651.153	1092.88
2654.734	1095.88
2658.311	1085.21
2661.885	1086.54
2665.456	1076.21
2669.025	1078.88
2672.589	1077.88
2676.151	1074.21
2679.71	1067.21
2683.266	1065.54
2686.819	1054.21
2690.368	1051.54
2693.915	1049.54
2697.458	1041.54
2700.999	1042.21
2704.536	1026.88
2708.071	1033.21
2711.602	1017.88
2715.13	1027.21
2718.656	1018.54
2722.178	1018.54
2725.697	1023.21
2729.214	1029.54
2732.727	1042.21
2736.237	1047.88
2739.744	1061.88
2743.249	1060.21
2746.75	1059.21
2750.248	1057.88
2753.743	1053.54
2757.236	1038.88
2760.725	1040.21
2764.211	1030.54
2767.695	1021.54
2771.175	1021.21
2774.652	1013.88
2778.127	1023.21
2781.598	1026.54
2785.067	1033.54
2788.532	1043.88
2791.995	1066.54
2795.455	1071.88
2798.911	1088.21
2802.365	1096.21
2805.816	1110.21
2809.264	1129.54
2812.709	1134.54
2816.151	1148.21
2819.59	1152.21
2823.026	1172.88
2826.46	1185.54
2829.89	1191.54
2833.318	1198.88
2836.742	1210.54
2840.164	1213.88
2843.583	1239.21
2846.999	1248.21
2850.412	1264.88
2853.822	1287.21
2857.229	1297.88
2860.634	1307.21
2864.035	1327.21
2867.434	1340.21
2870.83	1363.54
2874.223	1384.21
2877.613	1389.21
2881	1403.54
2884.385	1409.88
2887.766	1418.88
2891.145	1440.88
2894.521	1454.88
2897.894	1477.21
2901.264	1490.88
2904.631	1507.21
2907.996	1512.54
2911.358	1545.88
2914.717	1567.21
2918.073	1598.54
2921.426	1623.21
2924.777	1646.21
2928.124	1677.88
2931.469	1727.54
2934.811	1753.88
2938.15	1796.54
2941.487	1822.54
2944.821	1865.88
2948.152	1895.21
2951.48	1926.54
2954.805	1967.87
2958.128	1989.88
2961.447	2034.21
2964.765	2088.21
2968.079	2131.87
2971.39	2174.88
2974.699	2236.88
2978.005	2287.88
2981.308	2348.88
2984.609	2418.54
2987.907	2484.21
2991.202	2545.88
2994.494	2616.87
2997.784	2675.88
3001.07	2737.87
3004.355	2809.21
3007.636	2866.88
3010.915	2924.54
3014.191	2983.54
3017.464	3028.54
3020.734	3074.54
3024.002	3130.87
3027.267	3190.21
3030.53	3255.21
3033.789	3325.21
3037.046	3410.21
3040.301	3483.21
3043.552	3570.88
3046.801	3658.21
3050.048	3766.21
3053.291	3873.88
3056.532	3976.87
3059.771	4108.88
3063.006	4228.21
3066.239	4356.21
3069.469	4502.88
3072.697	4634.88
3075.922	4749.54
3079.144	4884.88
3082.364	5001.21
3085.581	5114.54
3088.795	5237.21
3092.007	5375.21
3095.216	5494.21
3098.423	5626.88
3101.627	5760.21
3104.828	5887.88
3108.026	5995.54
3111.222	6152.54
3114.416	6275.21
3117.607	6393.88
3120.795	6577.21
3123.98	6717.21
3127.163	6895.21
3130.344	7055.54
3133.521	7196.54
3136.696	7342.21
3139.869	7487.21
3143.039	7622.21
3146.206	7720.21
3149.371	7827.54
3152.533	7890.54
3155.693	7962.21
3158.85	8018.88
3162.005	8060.54
3165.157	8113.21
3168.306	8143.54
3171.453	8201.21
3174.597	8192.21
3177.739	8249.54
3180.878	8268.88
3184.014	8298.88
3187.149	8319.88
3190.28	8374.21
3193.409	8396.88
3196.536	8424.21
3199.659	8483.54
3202.781	8496.21
3205.9	8510.54
3209.016	8562.88
3212.13	8545.21
3215.241	8499.88
3218.35	8493.88
3221.456	8457.21
3224.56	8399.88
3227.661	8323.88
3230.76	8285.21
3233.856	8233.54
3236.95	8179.54
3240.041	8135.21
3243.13	8104.88
3246.216	8069.54
3249.3	8013.54
3252.382	7993.21
3255.46	7954.88
3258.537	7988.54
3261.611	7928.54
3264.682	7892.54
3267.751	7850.21
3270.818	7847.88
3273.882	7790.54
3276.943	7739.54
3280.002	7678.88
3283.059	7613.87
3286.113	7518.54
3289.165	7421.88
3292.214	7333.88
3295.261	7208.88
3298.306	7116.87
3301.348	7028.21
3304.387	6930.54
3307.425	6854.21
3310.459	6771.54
3313.492	6694.21
3316.521	6614.21
3319.549	6552.54
3322.574	6511.21
3325.597	6474.21
3328.617	6437.88
3331.635	6408.54
3334.65	6392.54
3337.663	6355.87
3340.674	6338.21
3343.682	6327.54
3346.688	6316.54
3349.691	6320.88
3352.692	6270.21
3355.691	6244.54
3358.687	6210.21
3361.681	6173.88
3364.673	6107.88
3367.662	6039.21
3370.649	5993.54
3373.633	5913.88
3376.615	5845.54
3379.595	5793.54
3382.572	5739.54
3385.547	5662.54
3388.52	5601.88
3391.49	5563.21
3394.458	5501.54
3397.424	5449.88
3400.387	5405.54
3403.348	5348.21
3406.307	5304.54
3409.263	5270.88
3412.217	5225.21
3415.168	5175.54
3418.118	5136.54
3421.065	5094.88
3424.009	5044.88
3426.951	5001.54
3429.891	4924.54
3432.829	4873.54
3435.764	4785.88
3438.697	4695.54
3441.628	4621.54
3444.557	4540.21
3447.483	4430.54
3450.407	4353.88
3453.328	4235.88
3456.247	4144.54
3459.164	4060.88
3462.079	3958.87
3464.991	3873.87
3467.902	3777.21
3470.809	3696.21
3473.715	3601.54
3476.618	3531.21
3479.519	3450.87
3482.418	3373.54
3485.315	3314.54
3488.209	3230.88
3491.101	3182.54
3493.99	3101.54
3496.878	3056.54
3499.763	2970.87
3502.646	2896.54
3505.527	2822.54
3508.405	2746.21
3511.281	2670.54
3514.155	2585.21
3517.027	2510.87
3519.897	2429.54
3522.764	2338.88
3525.629	2268.88
3528.492	2185.54
3531.352	2101.54
3534.211	2018.21
3537.067	1957.54
3539.921	1886.54
3542.773	1822.21
3545.622	1738.54
3548.469	1685.54
3551.315	1635.54
3554.157	1570.54
3556.998	1528.21
3559.837	1475.54
3562.673	1429.88
3565.507	1396.54
3568.339	1341.88
3571.169	1312.88
3573.996	1264.54
3576.822	1222.54
3579.645	1183.54
3582.466	1145.21
3585.285	1100.21
3588.101	1066.54
3590.916	1030.88
3593.728	989.54
3596.538	946.88
3599.346	920.88
3602.152	889.54
3604.956	855.54
3607.757	817.54
3610.556	786.88
3613.354	766.21
3616.149	730.21
3618.942	706.88
3621.732	684.88
3624.521	662.88
3627.307	634.21
3630.092	618.54
3632.874	604.88
3635.654	579.21
3638.432	561.54
3641.208	543.88
3643.982	522.88
3646.753	511.21
3649.523	487.88
3652.29	466.54
3655.055	450.88
3657.818	429.21
3660.579	408.88
3663.338	401.88
3666.095	379.21
3668.849	363.88
3671.602	347.88
3674.352	333.88
3677.101	324.54
3679.847	309.21
3682.591	291.21
3685.333	282.21
3688.073	272.54
3690.811	263.54
3693.547	253.21
3696.281	246.21
3699.013	231.21
3701.742	226.21
3704.47	220.88
3707.195	207.88
3709.919	204.88
3712.64	190.88
3715.359	186.88
3718.076	181.54
3720.792	171.88
3723.505	165.54
3726.216	158.88
3728.925	154.88
3731.632	145.88
3734.336	146.21
3737.039	137.88
3739.74	130.54
3742.439	128.21
3745.136	124.21
3747.83	124.88
3750.523	117.21
3753.213	97.54
3755.902	109.88
3758.589	107.21
3761.273	102.21
3763.956	102.54
3766.636	101.54
3769.315	101.54
3771.991	94.54
3774.665	93.21
3777.338	88.21
3780.008	88.88
3782.677	89.21
3785.343	83.54
3788.007	79.21
3790.67	82.21
3793.33	80.54
3795.989	75.21
3798.645	70.88
3801.299	72.88
3803.952	67.88
3806.602	61.88
3809.251	67.54
3811.897	66.54
3814.542	65.54
3817.184	61.88
3819.825	62.88
3822.463	63.54
3825.1	61.21
3827.735	60.54
3830.367	57.88
3832.998	50.54
3835.627	57.21
3838.253	55.21
3840.878	49.21
3843.501	50.21
3846.122	45.88
3848.741	47.54
3851.358	46.21
3853.973	48.88
3856.586	47.21
3859.197	44.88
3861.806	41.88
3864.414	41.21
3867.019	51.88
3869.622	42.21
3872.224	50.88
3874.823	66.88
3877.421	84.54
3880.016	108.88
3882.61	129.21
3885.202	158.54
3887.792	125.21
3890.38	83.21
3892.966	35.21
3895.55	30.54
3898.132	37.88
3900.713	34.88
3903.291	33.21
3905.868	32.88
3908.442	34.88
3911.015	29.21
3913.586	30.21
3916.155	29.88
3918.722	24.88
3921.287	26.54
3923.85	29.54
3926.411	24.54
3928.971	25.21
3931.528	24.54
3934.084	24.88
3936.638	22.88
3939.19	23.54
3941.74	21.88
3944.288	22.54
3946.834	23.88
3949.378	24.54
3951.921	20.54
3954.462	23.21
3957	27.88
3959.537	27.21
3962.072	27.21
3964.606	27.54
3967.137	26.54
3969.667	26.21
3972.194	26.88
3974.72	29.21
3977.244	33.21
3979.766	36.54
3982.286	29.21
3984.805	32.88
3987.321	39.88
3989.836	40.54
3992.349	45.88
3994.86	42.88
3997.369	38.21
3999.877	40.21
4002.382	37.88
4004.886	36.54
4007.388	37.54
4009.888	39.54
4012.386	36.54
4014.883	33.21
4017.377	33.54
4019.87	35.21
4022.361	31.88
4024.85	32.54
4027.338	37.21
4029.823	36.54
4032.307	31.88
4034.789	33.54
4037.269	33.21
4039.747	28.88
4042.224	30.54
4044.699	31.54
4047.172	29.54
4049.643	28.88
4052.112	31.88
4054.58	24.54
4057.046	26.21
4059.51	27.21
4061.972	27.88
4064.432	29.21
4066.891	27.54
4069.348	26.21
4071.803	28.88
4074.256	26.54
4076.708	25.21
4079.158	27.54
4081.606	29.88
4084.052	26.54
4086.497	30.21
4088.939	27.54
4091.38	28.21
4093.819	32.21
4096.257	4.54
4098.693	-0.46
4101.127	-2.12
4103.559	2.54
4105.989	314.54
4108.418	325.54
4110.845	353.88
4113.27	375.21
4115.694	408.54
4118.115	472.88
4120.535	30.21
4122.954	28.54
4125.37	27.88
4127.785	28.88
4130.198	27.54
4132.609	27.54
4135.019	-3.79
4137.427	-1.12
4139.833	1.54
4142.237	-1.12
