160.701	576.67
166.742	762.33
172.777	1309.33
178.805	3039.67
184.826	7462.67
190.841	15489.67
196.849	25329.67
202.85	32632
208.845	34860.33
214.833	33950.67
220.815	32467
226.789	31488.67
232.758	30573.33
238.719	29619
244.674	28486
250.623	27247
256.565	25956.67
262.5	24737.67
268.429	23614.67
274.351	22658.67
280.267	21779
286.176	20982.33
292.079	20251.33
297.975	19610
303.865	19074
309.748	18587.67
315.625	18213.67
321.495	17870.33
327.359	17624.67
333.217	17439.67
339.068	17327
344.912	17230.67
350.751	17197.33
356.583	17169.67
362.408	17167
368.227	17178.67
374.04	17328.33
379.847	17491.67
385.647	17692.33
391.44	17638.67
397.228	17572
403.009	17618.33
408.784	17850.33
414.553	18329
420.315	18949.67
426.071	19136.33
431.821	18523.67
437.565	17858.67
443.302	17629
449.033	17445
454.758	17338.67
460.477	17206.67
466.189	17082
471.896	16976
477.596	16835.67
483.29	16705.33
488.978	16619.67
494.66	16491
500.335	16257
506.005	15937.67
511.668	15620.67
517.325	15280.33
522.977	14999
528.622	14761.33
534.261	14533.33
539.894	14394.67
545.521	14228.33
551.141	14138.67
556.756	14005.67
562.365	13879.33
567.968	13783.67
573.565	13667.67
579.155	13561.67
584.74	13446.33
590.319	13354
595.892	13206.33
601.459	13072
607.02	12988.67
612.575	12832
618.124	12689.33
623.667	12535.33
629.204	12465.67
634.735	12345.33
640.261	12374.67
645.781	12483
651.294	12531.33
656.802	12333.67
662.304	12053
667.8	11814.67
673.29	11727.67
678.775	11613.67
684.254	11522
689.726	11441.33
695.193	11359.67
700.655	11224.67
706.11	11121.67
711.56	11006.67
717.004	10945.33
722.442	10847
727.874	10757.67
733.301	10690.67
738.722	10613.67
744.137	10575
749.547	10600
754.951	10554
760.349	10496.33
765.741	10395.67
771.128	10301.33
776.509	10264
781.885	10241
787.254	10154.33
792.618	10110.33
797.977	9978
803.33	9893
808.677	9751.67
814.019	9639
819.355	9489.33
824.686	9396.33
830.011	9259
835.33	9178.67
840.644	9117
845.952	9045.33
851.255	8951
856.552	8866.33
861.844	8757.33
867.13	8674.33
872.41	8555
877.686	8443
882.955	8304.67
888.219	8179
893.478	8022.33
898.731	7872
903.979	7745.33
909.221	7650.67
914.458	7577
919.69	7515.33
924.916	7451.33
930.136	7443.67
935.351	7405.33
940.561	7357
945.766	7315.67
950.965	7256.67
956.158	7175
961.347	7076
966.529	6960.67
971.707	6868
976.879	6747.67
982.046	6662
987.208	6641
992.364	6598
997.515	6606.67
1002.66	6621
1007.801	6651.33
1012.936	6692.33
1018.066	6722.67
1023.19	6745.67
1028.309	6761
1033.423	6736.33
1038.532	6691.67
1043.636	6637
1048.734	6562.67
1053.827	6490
1058.915	6418
1063.998	6379
1069.075	6351.33
1074.147	6363
1079.214	6367
1084.276	6389.33
1089.333	6422.67
1094.385	6432.33
1099.431	6446
1104.472	6457.33
1109.509	6401.33
1114.54	6354.67
1119.565	6255.33
1124.586	6172
1129.602	6086
1134.613	6065.33
1139.618	6033
1144.619	6018.67
1149.614	6039.33
1154.604	6068
1159.589	6081
1164.57	6096.33
1169.545	6109
1174.515	6107.67
1179.48	6088.33
1184.44	6058.67
1189.395	6011.33
1194.345	5970.67
1199.29	5935
1204.23	5928
1209.165	5958.33
1214.095	5981.33
1219.021	6011
1223.941	6046
1228.856	6061.67
1233.766	6092
1238.672	6082
1243.572	6073.67
1248.467	6023
1253.358	5959.67
1258.244	5851.67
1263.124	5761.33
1268	5701.67
1272.871	5632.33
1277.737	5584.33
1282.599	5546.67
1287.455	5553.33
1292.306	5583.33
1297.153	5591.33
1301.995	5615.33
1306.832	5629.33
1311.664	5659
1316.491	5644.33
1321.314	5633.67
1326.132	5596.33
1330.945	5546.33
1335.753	5499.33
1340.556	5452
1345.354	5410.33
1350.148	5396.33
1354.937	5315.33
1359.722	5272.33
1364.501	5227.67
1369.276	5155
1374.046	5074.67
1378.811	5033.33
1383.572	4976
1388.327	4941.67
1393.079	4888.67
1397.825	4849
1402.567	4814
1407.304	4783.33
1412.036	4788
1416.764	4765
1421.487	4792.33
1426.205	4809.67
1430.919	4835
1435.628	4880
1440.333	4929.33
1445.032	4954.67
1449.727	4985.33
1454.418	5016.33
1459.104	5016.67
1463.785	4972.67
1468.462	4982.33
1473.134	4953
1477.802	4941
1482.465	4938.33
1487.123	4971
1491.777	5009
1496.426	5055.67
1501.071	5101
1505.711	5143
1510.347	5175
1514.978	5214.33
1519.604	5232.67
1524.226	5223
1528.844	5202.67
1533.457	5172
1538.065	5158
1542.669	5154
1547.269	5154.67
1551.864	5180.33
1556.454	5226.33
1561.041	5315.67
1565.622	5396.67
1570.199	5472
1574.772	5601.33
1579.34	5755.67
1583.904	5898.33
1588.464	6064.67
1593.019	6198
1597.569	6337
1602.115	6452
1606.657	6548
1611.195	6710
1615.728	6829
1620.256	6969
1624.78	7143.33
1629.3	7302.67
1633.816	7438.33
1638.327	7582
1642.834	7671
1647.336	7756.67
1651.834	7778.33
1656.328	7747.67
1660.817	7656.67
1665.302	7543.67
1669.783	7349.33
1674.259	7125
1678.732	6864.67
1683.199	6630.33
1687.663	6374.33
1692.122	6100.67
1696.577	5795.33
1701.028	5506.67
1705.474	5220.67
1709.917	4954
1714.355	4737.67
1718.788	4551.33
1723.218	4397.33
1727.643	4276
1732.064	4138.67
1736.481	3996.33
1740.893	3845.67
1745.301	3700.33
1749.705	3567.67
1754.105	3439.33
1758.501	3351.33
1762.893	3266.33
1767.28	3201
1771.663	3158
1776.042	3130.67
1780.417	3114
1784.787	3135.67
1789.154	3128.33
1793.516	3099
1797.874	3070.33
1802.228	2996
1806.578	2936.67
1810.924	2851.33
1815.266	2779.33
1819.603	2722.67
1823.937	2674.67
1828.266	2644.67
1832.591	2646.33
1836.913	2628.67
1841.23	2615.33
1845.543	2617.33
1849.852	2625
1854.156	2638.67
1858.457	2654.33
1862.754	2661
1867.047	2681.33
1871.335	2694.67
1875.62	2708.33
1879.9	2716
1884.177	2731
1888.449	2727.67
1892.718	2724.67
1896.982	2737
1901.243	2736.33
1905.499	2734
1909.752	2743
1914	2755.67
1918.245	2771.67
1922.485	2797
1926.722	2819.67
1930.954	2835
1935.183	2839.67
1939.408	2836.67
1943.628	2831.33
1947.845	2808
1952.058	2778
1956.267	2744.33
1960.472	2699.33
1964.673	2656.33
1968.87	2613.33
1973.063	2588.67
1977.252	2558.67
1981.438	2556.67
1985.619	2549.33
1989.797	2548.33
1993.971	2581
1998.14	2575.33
2002.306	2600.33
2006.469	2618
2010.627	2632.67
2014.781	2661
2018.932	2652.33
2023.078	2673.33
2027.221	2667
2031.36	2652.33
2035.495	2633.67
2039.627	2645
2043.754	2641
2047.878	2643.67
2051.998	2658.33
2056.114	2685.67
2060.226	2710
2064.334	2726.67
2068.439	2766.33
2072.54	2782.67
2076.637	2824.33
2080.73	2828.33
2084.82	2848
2088.906	2860.67
2092.988	2850
2097.066	2826.67
2101.14	2817.67
2105.211	2787.33
2109.278	2763.67
2113.342	2727.33
2117.401	2690.33
2121.457	2673.33
2125.509	2648
2129.558	2615
2133.602	2597.33
2137.643	2587
2141.681	2563
2145.714	2544
2149.744	2520.67
2153.77	2516
2157.793	2493.67
2161.812	2459.33
2165.827	2424.33
2169.838	2387
2173.846	2348.33
2177.851	2299.33
2181.851	2276
2185.848	2228.67
2189.841	2218
2193.831	2187.33
2197.817	2175
2201.799	2161.67
2205.778	2142.67
2209.753	2115.33
2213.725	2104.67
2217.693	2100.67
2221.657	2078.33
2225.618	2060
2229.575	2060.33
2233.529	2029
2237.479	1978
2241.425	1945.67
2245.368	1941
2249.307	1894.67
2253.243	1880
2257.175	1847.67
2261.104	1817
2265.029	1780
2268.95	1752.33
2272.868	1719.67
2276.783	1694.33
2280.694	1669.67
2284.601	1646.67
2288.505	1626
2292.405	1604.33
2296.302	1582.67
2300.195	1554
2304.085	1533.67
2307.971	1503
2311.854	1481.67
2315.734	1452.33
2319.609	1423.33
2323.482	1402.33
2327.351	1401.67
2331.216	1404.33
2335.078	1410.33
2338.937	1371
2342.792	1346
2346.643	1328.67
2350.492	1326.67
2354.336	1322
2358.178	1320.33
2362.015	1329
2365.85	1323.67
2369.681	1316
2373.508	1314
2377.333	1311.33
2381.153	1310
2384.971	1295.33
2388.785	1285
2392.595	1288.67
2396.402	1274.67
2400.206	1258
2404.007	1254.33
2407.804	1253
2411.597	1236.67
2415.388	1237.33
2419.174	1230.67
2422.958	1225.67
2426.738	1215.33
2430.515	1215
2434.289	1209.33
2438.059	1206.67
2441.825	1198
2445.589	1196
2449.349	1183.67
2453.106	1168
2456.859	1162.67
2460.61	1148
2464.356	1145
2468.1	1145
2471.84	1133
2475.577	1120
2479.311	1117.33
2483.041	1114.33
2486.768	1134
2490.492	1127.67
2494.213	1126.67
2497.93	1128.33
2501.644	1124
2505.355	1112
2509.062	1114.67
2512.766	1115.33
2516.467	1112.67
2520.165	1110.67
2523.859	1093.33
2527.551	1099.33
2531.239	1092.67
2534.923	1095
2538.605	1087.67
2542.283	1081.67
2545.958	1082.33
2549.63	1074.33
2553.299	1072
2556.964	1063.33
2560.626	1076.33
2564.285	1054.67
2567.941	1057.33
2571.594	1042.67
2575.243	1040.67
2578.89	1032.33
2582.533	1018.33
2586.173	1008.33
2589.809	987.33
2593.443	987.67
2597.073	979.33
2600.701	970.67
2604.325	962
2607.946	962.67
2611.564	955
2615.178	950.33
2618.79	948.67
2622.398	929.67
2626.004	931.33
2629.606	921
2633.205	916
2636.801	913
2640.394	903
2643.983	897
2647.57	896
2651.153	888.67
2654.734	877.67
2658.311	878.67
2661.885	877.33
2665.456	872.67
2669.025	865
2672.589	873
2676.151	866
2679.71	871
2683.266	860.67
2686.819	856
2690.368	859.67
2693.915	852.33
2697.458	851.67
2700.999	849
2704.536	841.67
2708.071	846.33
2711.602	838.67
2715.13	839.33
2718.656	846.33
2722.178	850
2725.697	861.33
2729.214	873
2732.727	875.33
2736.237	891.67
2739.744	910.67
2743.249	907
2746.75	914.33
2750.248	917
2753.743	917.67
2757.236	913.33
2760.725	908.67
2764.211	899.67
2767.695	894.33
2771.175	896
2774.652	900.67
2778.127	891.33
2781.598	906.33
2785.067	910.67
2788.532	924
2791.995	933.33
2795.455	946.33
2798.911	955.33
2802.365	971.33
2805.816	992.33
2809.264	1009.33
2812.709	1021.67
2816.151	1026.67
2819.59	1025
2823.026	1046.67
2826.46	1060.67
2829.89	1079.33
2833.318	1086.67
2836.742	1103.67
2840.164	1118
2843.583	1133.67
2846.999	1139.33
2850.412	1166.67
2853.822	1182.33
2857.229	1198.67
2860.634	1218.67
2864.035	1226.67
2867.434	1261
2870.83	1268.67
2874.223	1300
2877.613	1301.33
2881	1321
2884.385	1343.67
2887.766	1353.67
2891.145	1368
2894.521	1393
2897.894	1407.33
2901.264	1423.67
2904.631	1438
2907.996	1467.67
2911.358	1486.33
2914.717	1512.67
2918.073	1557.33
2921.426	1582.67
2924.777	1618.67
2928.124	1648
2931.469	1689.33
2934.811	1721
2938.15	1769.33
2941.487	1808.67
2944.821	1846.67
2948.152	1885.67
2951.48	1916.33
2954.805	1959.67
2958.128	2007
2961.447	2046.33
2964.765	2094
2968.079	2144.67
2971.39	2209
2974.699	2273.67
2978.005	2316.67
2981.308	2396.67
2984.609	2458.33
2987.907	2529.67
2991.202	2610.33
2994.494	2660
2997.784	2730.67
3001.07	2802.33
3004.355	2874.67
3007.636	2949.67
3010.915	3010.67
3014.191	3065.67
3017.464	3123.33
3020.734	3191.67
3024.002	3252.33
3027.267	3314
3030.53	3380
3033.789	3461.67
3037.046	3553.67
3040.301	3632.67
3043.552	3747.33
3046.801	3846
3050.048	3940.33
3053.291	4065.67
3056.532	4184.67
3059.771	4324
3063.006	4465.33
3066.239	4598.33
3069.469	4733.33
3072.697	4882
3075.922	5012
3079.144	5139.33
3082.364	5296.33
3085.581	5436.67
3088.795	5561
3092.007	5682.33
3095.216	5815.67
3098.423	5966.33
3101.627	6091.67
3104.828	6248.33
3108.026	6371
3111.222	6536
3114.416	6671
3117.607	6823.67
3120.795	6995.33
3123.98	7131.67
3127.163	7329
3130.344	7490.67
3133.521	7643.67
3136.696	7803
3139.869	7954
3143.039	8078.33
3146.206	8215.33
3149.371	8314.33
3152.533	8396
3155.693	8509.33
3158.85	8543
3162.005	8596.67
3165.157	8639
3168.306	8673
3171.453	8735.33
3174.597	8760.67
3177.739	8799.33
3180.878	8806
3184.014	8841.67
3187.149	8902
3190.28	8933
3193.409	8971
3196.536	9008
3199.659	9050
3202.781	9084.33
3205.9	9102.33
3209.016	9110
3212.13	9138
3215.241	9088.33
3218.35	9054.33
3221.456	9022.33
3224.56	8957.33
3227.661	8861.67
3230.76	8817.67
3233.856	8780.33
3236.95	8686
3240.041	8667.67
3243.13	8619
3246.216	8552.33
3249.3	8511.33
3252.382	8467
3255.46	8408
3258.537	8435.33
3261.611	8369.67
3264.682	8358.67
3267.751	8317.33
3270.818	8293.33
3273.882	8235.33
3276.943	8196.67
3280.002	8136.67
3283.059	8063.67
3286.113	7968.67
3289.165	7856.67
3292.214	7772
3295.261	7660.67
3298.306	7574
3301.348	7471.33
3304.387	7396
3307.425	7278.67
3310.459	7213.67
3313.492	7163.33
3316.521	7059
3319.549	7030.67
3322.574	6968.33
3325.597	6929
3328.617	6884
3331.635	6852.67
3334.65	6851
3337.663	6819.33
3340.674	6781.33
3343.682	6779.33
3346.688	6791
3349.691	6771.67
3352.692	6726.67
3355.691	6691.67
3358.687	6654.33
3361.681	6622.67
3364.673	6551
3367.662	6485
3370.649	6402
3373.633	6353.33
3376.615	6283
3379.595	6228
3382.572	6180
3385.547	6084.67
3388.52	6021.67
3391.49	5954.33
3394.458	5902
3397.424	5843
3400.387	5776
3403.348	5731.67
3406.307	5704
3409.263	5637.67
3412.217	5617
3415.168	5546.67
3418.118	5488.67
3421.065	5439.33
3424.009	5424
3426.951	5328.67
3429.891	5262
3432.829	5200.33
3435.764	5108.33
3438.697	5020
3441.628	4929.67
3444.557	4817.33
3447.483	4739.67
3450.407	4622.33
3453.328	4531.67
3456.247	4413
3459.164	4315.33
3462.079	4214.33
3464.991	4120.67
3467.902	4022.33
3470.809	3920
3473.715	3823.33
3476.618	3744.33
3479.519	3655.33
3482.418	3575
3485.315	3505.33
3488.209	3423.67
3491.101	3344.67
3493.99	3280.33
3496.878	3211.33
3499.763	3133.67
3502.646	3065
3505.527	2971.67
3508.405	2887.67
3511.281	2826.33
3514.155	2719.67
3517.027	2642.67
3519.897	2558
3522.764	2472.33
3525.629	2385.33
3528.492	2288.33
3531.352	2205.33
3534.211	2138.67
3537.067	2051.33
3539.921	1989
3542.773	1913.67
3545.622	1831
3548.469	1783.67
3551.315	1709.67
3554.157	1656.67
3556.998	1593
3559.837	1548
3562.673	1513.33
3565.507	1466.33
3568.339	1420.33
3571.169	1369
3573.996	1326
3576.822	1288.33
3579.645	1243.67
3582.466	1197
3585.285	1151.67
3588.101	1113.67
3590.916	1080
3593.728	1047.67
3596.538	1012.67
3599.346	965.33
3602.152	936
3604.956	896.67
3607.757	857.33
3610.556	822.67
3613.354	799
3616.149	776.67
3618.942	744
3621.732	716.67
3624.521	698.67
3627.307	677.33
3630.092	655.33
3632.874	637.67
3635.654	612
3638.432	601.33
3641.208	573.67
3643.982	553.67
3646.753	532
3649.523	508
3652.29	502
3655.055	474.33
3657.818	453.33
3660.579	433.67
3663.338	426.33
3666.095	403.67
3668.849	384.67
3671.602	364.33
3674.352	347.33
3677.101	336
3679.847	320.67
3682.591	309.33
3685.333	294
3688.073	285
3690.811	278.33
3693.547	262.33
3696.281	253.33
3699.013	241.33
3701.742	237
3704.47	230.33
3707.195	212.67
3709.919	211.67
3712.64	202.67
3715.359	194
3718.076	191.33
3720.792	179.33
3723.505	175
3726.216	168
3728.925	160
3731.632	154.33
3734.336	150.67
3737.039	144.33
3739.74	133.33
3742.439	133.67
3745.136	130.33
3747.83	122
3750.523	121.67
3753.213	121.67
3755.902	110.67
3758.589	110
3761.273	110.67
3763.956	106.33
3766.636	102
3769.315	100
3771.991	94.67
3774.665	93
3777.338	88.67
3780.008	88
3782.677	87.33
3785.343	85.33
3788.007	77.67
3790.67	81.33
3793.33	71.67
3795.989	73
3798.645	76.33
3801.299	72.33
3803.952	66.67
3806.602	65.33
3809.251	65.33
3811.897	64.67
3814.542	67
3817.184	63
3819.825	61.67
3822.463	61
3825.1	60
3827.735	58
3830.367	57
3832.998	51.67
3835.627	55
3838.253	51.67
3840.878	48.33
3843.501	47.67
3846.122	49.33
3848.741	48
3851.358	45.67
3853.973	50
3856.586	47.33
3859.197	46
3861.806	42
3864.414	42.33
3867.019	47
3869.622	47.33
3872.224	55.33
3874.823	73.67
3877.421	98.67
3880.016	121.33
3882.61	145
3885.202	151.33
3887.792	127.33
3890.38	90.33
3892.966	41.33
3895.55	33
3898.132	39
3900.713	35.33
3903.291	32
3905.868	36.67
3908.442	32.33
3911.015	30.33
3913.586	31
3916.155	31.67
3918.722	26
3921.287	29
3923.85	29
3926.411	27
3928.971	24.67
3931.528	24.33
3934.084	26.67
3936.638	23
3939.19	23
3941.74	22.67
3944.288	26
3946.834	25.33
3949.378	22
3951.921	21.67
3954.462	24.33
3957	28.33
3959.537	27.33
3962.072	28.67
3964.606	26.33
3967.137	28.33
3969.667	25.67
3972.194	27.67
3974.72	26.33
3977.244	34.67
3979.766	37.67
3982.286	39.33
3984.805	38
3987.321	40
3989.836	42
3992.349	44.33
3994.86	41
3997.369	36.67
3999.877	38.33
4002.382	37
4004.886	38.67
4007.388	38.33
4009.888	39
4012.386	33.67
4014.883	35
4017.377	35
4019.87	34.33
4022.361	34.67
4024.85	29.33
4027.338	34.33
4029.823	36.67
4032.307	31.67
4034.789	31.33
4037.269	32
4039.747	29
4042.224	30.33
4044.699	31.33
4047.172	28
4049.643	29.67
4052.112	29.67
4054.58	28.67
4057.046	28.33
4059.51	27.33
4061.972	26.33
4064.432	28
4066.891	29.67
4069.348	28.33
4071.803	28.33
4074.256	28.67
4076.708	27.33
4079.158	29.67
4081.606	30
4084.052	26.33
4086.497	28.33
4088.939	27.67
4091.38	28
4093.819	31
4096.257	5
4098.693	0
4101.127	-2
4103.559	0
4105.989	334.33
4108.418	342.33
4110.845	370
4113.27	391.33
4115.694	430.33
4118.115	495
4120.535	25.67
4122.954	28
4125.37	26
4127.785	25.33
4130.198	27
4132.609	27.67
4135.019	-3.33
4137.427	-0.67
4139.833	-0.33
4142.237	1.33
