160.701	518.33
166.742	686.33
172.777	1186.33
178.805	2763
184.826	6773.67
190.841	14077
196.849	23085.33
202.85	29726.67
208.845	31830.33
214.833	31110.67
220.815	29974.33
226.789	29233.33
232.758	28489.67
238.719	27742
244.674	26862.33
250.623	25878
256.565	24799.67
262.5	23819.67
268.429	22916
274.351	22117.33
280.267	21436.67
286.176	20817.67
292.079	20289.67
297.975	19787
303.865	19334.67
309.748	18936.67
315.625	18595.67
321.495	18283.33
327.359	18113.33
333.217	17936.33
339.068	17821.67
344.912	17777.67
350.751	17732.33
356.583	17722
362.408	17708
368.227	17711
374.04	17847.67
379.847	18031.33
385.647	18217.33
391.44	18177
397.228	18088
403.009	18121.67
408.784	18287.67
414.553	18746.67
420.315	19311.33
426.071	19471.67
431.821	18925
437.565	18333
443.302	18103
449.033	17937
454.758	17848
460.477	17764.67
466.189	17659.33
471.896	17541
477.596	17424.33
483.29	17341.33
488.978	17275.33
494.66	17116.33
500.335	16915
506.005	16713.67
511.668	16391.33
517.325	16120
522.977	15897
528.622	15692.33
534.261	15488
539.894	15385.33
545.521	15224.33
551.141	15172
556.756	15050
562.365	14937
567.968	14874
573.565	14770.67
579.155	14700.33
584.74	14615
590.319	14519
595.892	14381
601.459	14274
607.02	14131.67
612.575	13992.67
618.124	13898.33
623.667	13723
629.204	13641.67
634.735	13565.67
640.261	13578.67
645.781	13686
651.294	13707.33
656.802	13523.67
662.304	13254
667.8	13095.33
673.29	13016.33
678.775	12903.33
684.254	12853.33
689.726	12769.67
695.193	12647.67
700.655	12563.67
706.11	12479
711.56	12368
717.004	12267.67
722.442	12191.67
727.874	12160
733.301	12177.33
738.722	12115.67
744.137	12077
749.547	11980.67
754.951	11966.33
760.349	11887.67
765.741	11745
771.128	11687.67
776.509	11660
781.885	11575.33
787.254	11528
792.618	11459.67
797.977	11353.67
803.33	11261.67
808.677	11154.33
814.019	11036.33
819.355	10902
824.686	10785.67
830.011	10698
835.33	10635.67
840.644	10582.67
845.952	10520.67
851.255	10461.67
856.552	10368.33
861.844	10316.67
867.13	10252.33
872.41	10158
877.686	10013
882.955	9892.33
888.219	9768.67
893.478	9621
898.731	9476
903.979	9347
909.221	9268.33
914.458	9169
919.69	9130.33
924.916	9089.33
930.136	9097.67
935.351	9072.33
940.561	9045.33
945.766	9003.67
950.965	8968
956.158	8866
961.347	8786
966.529	8641
971.707	8516.67
976.879	8402.33
982.046	8321
987.208	8270.67
992.364	8258.67
997.515	8272
1002.66	8314.67
1007.801	8353
1012.936	8402.67
1018.066	8471.33
1023.19	8485.67
1028.309	8484.67
1033.423	8445.33
1038.532	8392.67
1043.636	8330.67
1048.734	8243.67
1053.827	8154.33
1058.915	8064
1063.998	8018.67
1069.075	7967.67
1074.147	7995
1079.214	8019.67
1084.276	8061
1089.333	8082.33
1094.385	8124
1099.431	8151.33
1104.472	8143.33
1109.509	8118.33
1114.54	8006.33
1119.565	7920
1124.586	7818
1129.602	7733.67
1134.613	7699.33
1139.618	7664
1144.619	7665.33
1149.614	7676.33
1154.604	7702
1159.589	7744
1164.57	7748
1169.545	7774.33
1174.515	7778.67
1179.48	7732
1184.44	7707
1189.395	7621
1194.345	7593.67
1199.29	7561.67
1204.23	7557.67
1209.165	7590.67
1214.095	7640
1219.021	7677
1223.941	7718.67
1228.856	7764
1233.766	7777
1238.672	7777
1243.572	7753.67
1248.467	7694
1253.358	7598.33
1258.244	7516.33
1263.124	7400.33
1268	7308.67
1272.871	7204.33
1277.737	7148.67
1282.599	7148.67
1287.455	7179
1292.306	7180.33
1297.153	7245
1301.995	7271
1306.832	7307.33
1311.664	7386.67
1316.491	7331.67
1321.314	7318.67
1326.132	7274
1330.945	7207.67
1335.753	7151.67
1340.556	7104.67
1345.354	7027.67
1350.148	7004
1354.937	6947.67
1359.722	6890.33
1364.501	6809.67
1369.276	6747.33
1374.046	6659.67
1378.811	6639.67
1383.572	6569.67
1388.327	6513.33
1393.079	6468.67
1397.825	6394.33
1402.567	6317
1407.304	6273.67
1412.036	6254.33
1416.764	6252.33
1421.487	6262.67
1426.205	6296.67
1430.919	6321.33
1435.628	6389.33
1440.333	6438.33
1445.032	6506
1449.727	6538.33
1454.418	6571
1459.104	6578.33
1463.785	6553
1468.462	6521
1473.134	6480.33
1477.802	6494.33
1482.465	6476
1487.123	6481.33
1491.777	6514.33
1496.426	6586
1501.071	6652
1505.711	6724.33
1510.347	6748
1514.978	6784.67
1519.604	6810.33
1524.226	6784.67
1528.844	6725.67
1533.457	6661
1538.065	6631.67
1542.669	6564.33
1547.269	6523
1551.864	6545.33
1556.454	6558.67
1561.041	6626
1565.622	6665
1570.199	6742.33
1574.772	6859.67
1579.34	6986.33
1583.904	7107
1588.464	7233
1593.019	7354.33
1597.569	7458.67
1602.115	7550
1606.657	7629.33
1611.195	7701
1615.728	7790
1620.256	7900.67
1624.78	8035.33
1629.3	8176
1633.816	8287.67
1638.327	8418.67
1642.834	8506
1647.336	8588.67
1651.834	8624.67
1656.328	8607.67
1660.817	8553.67
1665.302	8464.33
1669.783	8317
1674.259	8116.67
1678.732	7931.33
1683.199	7709.67
1687.663	7481.33
1692.122	7263.67
1696.577	6976
1701.028	6683.67
1705.474	6402.67
1709.917	6129.33
1714.355	5948.67
1718.788	5800.67
1723.218	5661.33
1727.643	5556.67
1732.064	5410.67
1736.481	5264.67
1740.893	5100.67
1745.301	4983.33
1749.705	4822
1754.105	4692.33
1758.501	4595.33
1762.893	4491
1767.28	4433.67
1771.663	4409
1776.042	4390
1780.417	4411.67
1784.787	4435
1789.154	4438.67
1793.516	4433.67
1797.874	4387.67
1802.228	4309
1806.578	4202.33
1810.924	4091.67
1815.266	4027.33
1819.603	3937.33
1823.937	3892.67
1828.266	3840.33
1832.591	3818
1836.913	3803.33
1841.23	3821.33
1845.543	3822
1849.852	3834.67
1854.156	3849
1858.457	3858
1862.754	3889
1867.047	3908
1871.335	3935.33
1875.62	3962
1879.9	3971.33
1884.177	3979.67
1888.449	3984.67
1892.718	3974.67
1896.982	3992.67
1901.243	3977
1905.499	3978
1909.752	3997
1914	4010.33
1918.245	4035
1922.485	4059
1926.722	4064
1930.954	4108.33
1935.183	4090.33
1939.408	4081.67
1943.628	4072.67
1947.845	4017.33
1952.058	3962
1956.267	3902.67
1960.472	3825.33
1964.673	3749.67
1968.87	3696.67
1973.063	3630
1977.252	3579.33
1981.438	3549.67
1985.619	3541.33
1989.797	3522.67
1993.971	3526.67
1998.14	3516.67
2002.306	3547.33
2006.469	3554.67
2010.627	3549.67
2014.781	3561
2018.932	3567.33
2023.078	3561.67
2027.221	3541.67
2031.36	3519
2035.495	3513.33
2039.627	3501.67
2043.754	3496.67
2047.878	3491.33
2051.998	3507
2056.114	3517.33
2060.226	3548.33
2064.334	3564.67
2068.439	3605.67
2072.54	3632
2076.637	3652.67
2080.73	3699.67
2084.82	3708
2088.906	3719
2092.988	3697.33
2097.066	3678.67
2101.14	3630.33
2105.211	3592
2109.278	3552
2113.342	3505.67
2117.401	3445.67
2121.457	3407.67
2125.509	3386
2129.558	3336.33
2133.602	3310.67
2137.643	3292.33
2141.681	3256
2145.714	3236
2149.744	3219
2153.77	3197.33
2157.793	3146.67
2161.812	3120.33
2165.827	3088.67
2169.838	3044.33
2173.846	2992.67
2177.851	2928.33
2181.851	2892.67
2185.848	2850.67
2189.841	2850.33
2193.831	2788.67
2197.817	2772.67
2201.799	2761.33
2205.778	2726.33
2209.753	2709.33
2213.725	2720.33
2217.693	2686.67
2221.657	2678.67
2225.618	2673
2229.575	2644
2233.529	2608
2237.479	2566
2241.425	2520.33
2245.368	2493.33
2249.307	2463
2253.243	2410
2257.175	2388
2261.104	2354.67
2265.029	2316.67
2268.95	2280.33
2272.868	2244.67
2276.783	2218
2280.694	2191.67
2284.601	2160
2288.505	2119
2292.405	2104.33
2296.302	2071.67
2300.195	2033.33
2304.085	2012.67
2307.971	1970.33
2311.854	1945.33
2315.734	1899
2319.609	1882.33
2323.482	1838.33
2327.351	1837.67
2331.216	1836.67
2335.078	1823
2338.937	1796
2342.792	1782
2346.643	1757
2350.492	1755.67
2354.336	1753
2358.178	1755.33
2362.015	1757
2365.85	1751.33
2369.681	1751
2373.508	1750.33
2377.333	1746
2381.153	1754
2384.971	1733
2388.785	1721.67
2392.595	1713.67
2396.402	1705.67
2400.206	1696.67
2404.007	1686.33
2407.804	1678.67
2411.597	1675.67
2415.388	1662.67
2419.174	1669.33
2422.958	1657.33
2426.738	1646.33
2430.515	1641.67
2434.289	1638.33
2438.059	1616.67
2441.825	1619
2445.589	1606.33
2449.349	1594.67
2453.106	1573
2456.859	1568
2460.61	1560
2464.356	1554.33
2468.1	1538.67
2471.84	1534
2475.577	1529.67
2479.311	1527.33
2483.041	1524.67
2486.768	1524
2490.492	1523.67
2494.213	1531.33
2497.93	1528.67
2501.644	1527
2505.355	1527.33
2509.062	1521.67
2512.766	1519.33
2516.467	1525.67
2520.165	1509.67
2523.859	1509.67
2527.551	1507
2531.239	1498.33
2534.923	1494
2538.605	1492.33
2542.283	1495.33
2545.958	1487.33
2549.63	1485
2553.299	1479.67
2556.964	1471.33
2560.626	1472.67
2564.285	1457
2567.941	1450.67
2571.594	1434
2575.243	1431.33
2578.89	1414.33
2582.533	1393
2586.173	1380.33
2589.809	1371.33
2593.443	1347
2597.073	1339.33
2600.701	1320
2604.325	1318.67
2607.946	1308
2611.564	1309.67
2615.178	1283.67
2618.79	1289.33
2622.398	1272
2626.004	1267.33
2629.606	1255.67
2633.205	1242
2636.801	1230.67
2640.394	1224.33
2643.983	1212
2647.57	1208
2651.153	1192
2654.734	1188
2658.311	1185.67
2661.885	1172.33
2665.456	1159.33
2669.025	1157.33
2672.589	1153.67
2676.151	1152.67
2679.71	1146.33
2683.266	1140.67
2686.819	1135.67
2690.368	1134.33
2693.915	1129.67
2697.458	1122.33
2700.999	1108.33
2704.536	1100.67
2708.071	1096.33
2711.602	1093.67
2715.13	1100
2718.656	1101
2722.178	1096.33
2725.697	1109.33
2729.214	1121.33
2732.727	1132
2736.237	1149.67
2739.744	1155.33
2743.249	1168.67
2746.75	1164.67
2750.248	1166.33
2753.743	1155.67
2757.236	1147.33
2760.725	1135.67
2764.211	1124.33
2767.695	1108
2771.175	1098.67
2774.652	1090
2778.127	1095.33
2781.598	1094.33
2785.067	1100
2788.532	1107.67
2791.995	1124.67
2795.455	1132.67
2798.911	1147
2802.365	1156.33
2805.816	1180.33
2809.264	1189
2812.709	1195.67
2816.151	1201.67
2819.59	1206
2823.026	1219
2826.46	1226.33
2829.89	1243
2833.318	1249.67
2836.742	1248
2840.164	1266.33
2843.583	1274.33
2846.999	1292.33
2850.412	1300.33
2853.822	1318
2857.229	1331.33
2860.634	1341.67
2864.035	1351.33
2867.434	1371.33
2870.83	1381.33
2874.223	1406
2877.613	1411.67
2881	1418
2884.385	1427.67
2887.766	1423.67
2891.145	1434.33
2894.521	1446.33
2897.894	1457.67
2901.264	1474
2904.631	1483.33
2907.996	1511.67
2911.358	1513.67
2914.717	1537
2918.073	1567.67
2921.426	1587.33
2924.777	1613.33
2928.124	1642.67
2931.469	1673.67
2934.811	1714
2938.15	1762.33
2941.487	1778
2944.821	1814.33
2948.152	1834.33
2951.48	1875.33
2954.805	1906.67
2958.128	1931.33
2961.447	1966.33
2964.765	2008.67
2968.079	2044.33
2971.39	2101
2974.699	2139.67
2978.005	2204
2981.308	2257.67
2984.609	2319.33
2987.907	2381.67
2991.202	2430.33
2994.494	2503.67
2997.784	2548
3001.07	2612
3004.355	2662.33
3007.636	2716.33
3010.915	2773.67
3014.191	2805
3017.464	2879
3020.734	2897
3024.002	2962.33
3027.267	3002.33
3030.53	3063.33
3033.789	3133
3037.046	3213
3040.301	3248.33
3043.552	3339
3046.801	3428.33
3050.048	3517.67
3053.291	3638.67
3056.532	3726.33
3059.771	3840.67
3063.006	3962.67
3066.239	4065.33
3069.469	4199.67
3072.697	4320.33
3075.922	4428
3079.144	4547.33
3082.364	4657
3085.581	4772
3088.795	4883.67
3092.007	4983
3095.216	5120.67
3098.423	5211.33
3101.627	5334.67
3104.828	5443
3108.026	5547
3111.222	5684.33
3114.416	5794.33
3117.607	5945
3120.795	6070.67
3123.98	6209.67
3127.163	6356.67
3130.344	6502
3133.521	6634.33
3136.696	6785.33
3139.869	6887.33
3143.039	7009.33
3146.206	7122.67
3149.371	7211.67
3152.533	7276.33
3155.693	7334
3158.85	7373.67
3162.005	7431.33
3165.157	7491.67
3168.306	7497
3171.453	7537.33
3174.597	7552.33
3177.739	7582.67
3180.878	7615.67
3184.014	7635.33
3187.149	7657.67
3190.28	7710
3193.409	7699.33
3196.536	7767
3199.659	7794
3202.781	7819.67
3205.9	7824
3209.016	7832.67
3212.13	7875.33
3215.241	7832.33
3218.35	7779
3221.456	7768.33
3224.56	7716.67
3227.661	7660.67
3230.76	7602.33
3233.856	7576.67
3236.95	7509
3240.041	7445
3243.13	7414
3246.216	7382
3249.3	7360
3252.382	7314.67
3255.46	7291.33
3258.537	7265
3261.611	7266
3264.682	7218.67
3267.751	7181.33
3270.818	7166.67
3273.882	7131.67
3276.943	7092.33
3280.002	7024.33
3283.059	6947
3286.113	6870.67
3289.165	6785
3292.214	6697.67
3295.261	6599.33
3298.306	6498.33
3301.348	6450.67
3304.387	6323.67
3307.425	6286.33
3310.459	6198.67
3313.492	6113.33
3316.521	6066.67
3319.549	6032
3322.574	5993.33
3325.597	5953.67
3328.617	5924
3331.635	5900.33
3334.65	5891.67
3337.663	5842.67
3340.674	5825.33
3343.682	5812.33
3346.688	5825.67
3349.691	5795
3352.692	5768.67
3355.691	5748
3358.687	5689.33
3361.681	5666
3364.673	5642.33
3367.662	5537.33
3370.649	5499
3373.633	5451.67
3376.615	5392
3379.595	5326.67
3382.572	5278.33
3385.547	5206.67
3388.52	5146.67
3391.49	5110.67
3394.458	5048
3397.424	4992.67
3400.387	4942.67
3403.348	4936.67
3406.307	4868.33
3409.263	4826
3412.217	4788.33
3415.168	4747.67
3418.118	4704.33
3421.065	4669.33
3424.009	4631.67
3426.951	4569.33
3429.891	4537.33
3432.829	4459.33
3435.764	4397.33
3438.697	4299.33
3441.628	4231.33
3444.557	4139.33
3447.483	4062.33
3450.407	3960
3453.328	3885.33
3456.247	3792
3459.164	3707
3462.079	3620.33
3464.991	3529.67
3467.902	3465.33
3470.809	3374
3473.715	3291.33
3476.618	3228
3479.519	3155.33
3482.418	3071.67
3485.315	3016
3488.209	2961
3491.101	2896.67
3493.99	2824.67
3496.878	2774.33
3499.763	2712.33
3502.646	2651.67
3505.527	2589.67
3508.405	2510.33
3511.281	2442
3514.155	2353
3517.027	2288.67
3519.897	2211
3522.764	2145
3525.629	2055.67
3528.492	1993.33
3531.352	1924.33
3534.211	1840.67
3537.067	1785.67
3539.921	1713.67
3542.773	1655
3545.622	1601
3548.469	1542.33
3551.315	1483
3554.157	1444.33
3556.998	1394.67
3559.837	1351
3562.673	1316.33
3565.507	1271.33
3568.339	1233.33
3571.169	1200.33
3573.996	1155.67
3576.822	1122.33
3579.645	1088
3582.466	1050.67
3585.285	1007.67
3588.101	980.33
3590.916	947
3593.728	912
3596.538	878.33
3599.346	844.67
3602.152	808.33
3604.956	787
3607.757	758.33
3610.556	724
3613.354	703.67
3616.149	675.67
3618.942	656.33
3621.732	625.67
3624.521	613
3627.307	586.67
3630.092	577
3632.874	558.33
3635.654	536.67
3638.432	523
3641.208	505.67
3643.982	485.33
3646.753	467.67
3649.523	445.67
3652.29	436.33
3655.055	423
3657.818	400
3660.579	389.67
3663.338	375
3666.095	357
3668.849	339
3671.602	321
3674.352	313.33
3677.101	297.33
3679.847	282.33
3682.591	272
3685.333	266.67
3688.073	253.67
3690.811	241.33
3693.547	240
3696.281	222
3699.013	218.33
3701.742	207.33
3704.47	204.33
3707.195	198
3709.919	184.67
3712.64	179.33
3715.359	173.33
3718.076	168.67
3720.792	156.67
3723.505	153.67
3726.216	149.33
3728.925	143.67
3731.632	141.33
3734.336	135.67
3737.039	126.33
3739.74	124.33
3742.439	118.33
3745.136	114.67
3747.83	114.67
3750.523	112
3753.213	110.33
3755.902	108
3758.589	99
3761.273	99.67
3763.956	98
3766.636	97.33
3769.315	93
3771.991	87.67
3774.665	84
3777.338	80.33
3780.008	84
3782.677	80
3785.343	79.33
3788.007	74.67
3790.67	73
3793.33	69
3795.989	70.33
3798.645	69.33
3801.299	67
3803.952	60.67
3806.602	57.67
3809.251	61.67
3811.897	59.67
3814.542	60.33
3817.184	73
3819.825	60.67
3822.463	55.33
3825.1	54
3827.735	53
3830.367	52.33
3832.998	53.67
3835.627	207
3838.253	79.33
3840.878	47.33
3843.501	43.67
3846.122	49.33
3848.741	45.67
3851.358	46.67
3853.973	44.33
3856.586	43
3859.197	44
3861.806	42
3864.414	40.67
3867.019	44.33
3869.622	41
3872.224	50.67
3874.823	64.33
3877.421	79.33
3880.016	94
3882.61	107.67
3885.202	107.67
3887.792	91
3890.38	63.33
3892.966	21
3895.55	24.33
3898.132	31.67
3900.713	30.33
3903.291	29
3905.868	28
3908.442	25.33
3911.015	31
3913.586	29.33
3916.155	27
3918.722	26
3921.287	29.33
3923.85	25.67
3926.411	25.67
3928.971	25
3931.528	22.67
3934.084	20
3936.638	21.33
3939.19	22.67
3941.74	19.67
3944.288	25.67
3946.834	21.33
3949.378	20.33
3951.921	23.67
3954.462	22.33
3957	23.33
3959.537	23
3962.072	23.67
3964.606	25
3967.137	25.67
3969.667	26.67
3972.194	25.33
3974.72	27.67
3977.244	33.67
3979.766	31.67
3982.286	29.33
3984.805	31.33
3987.321	36.33
3989.836	36
3992.349	41.67
3994.86	34.67
3997.369	37
3999.877	41
4002.382	34.33
4004.886	36.33
4007.388	39.33
4009.888	36.33
4012.386	36.33
4014.883	36.67
4017.377	36
4019.87	34.33
4022.361	34
4024.85	32.67
4027.338	33.33
4029.823	36.67
4032.307	30
4034.789	31.33
4037.269	32.67
4039.747	27.67
4042.224	28.33
4044.699	29.33
4047.172	25
4049.643	31.33
4052.112	30.33
4054.58	25.33
4057.046	25
4059.51	26.33
4061.972	25
4064.432	28.33
4066.891	26.33
4069.348	26
4071.803	27.33
4074.256	25.67
4076.708	24.67
4079.158	29.67
4081.606	28.67
4084.052	29.67
4086.497	27.33
4088.939	28
4091.38	30.67
4093.819	33.67
4096.257	4.67
4098.693	1
4101.127	-1
4103.559	0
4105.989	283.67
4108.418	286
4110.845	320.33
4113.27	347.67
4115.694	385
4118.115	437
4120.535	29.67
4122.954	27
4125.37	31
4127.785	25.67
4130.198	32.33
4132.609	30
4135.019	-2.67
4137.427	-0.33
4139.833	-1.33
4142.237	-0.33
