160.701	572.25
166.742	759.58
172.777	1304.25
178.805	3018.58
184.826	7350.25
190.841	15124.25
196.849	24613.92
202.85	31513.58
208.845	33562.58
214.833	32636.92
220.815	31296.58
226.789	30263.58
232.758	29368.58
238.719	28463.58
244.674	27398.92
250.623	26160.92
256.565	24949.58
262.5	23803.92
268.429	22738.92
274.351	21750.92
280.267	20904.25
286.176	20135.92
292.079	19479.25
297.975	18858.92
303.865	18342.92
309.748	17897.58
315.625	17498.92
321.495	17181.25
327.359	16947.58
333.217	16773.92
339.068	16656.92
344.912	16573.25
350.751	16516.92
356.583	16466.58
362.408	16453.25
368.227	16528.58
374.04	16624.92
379.847	16849.58
385.647	16983.58
391.44	16957.58
397.228	16871.58
403.009	16880.25
408.784	17202.58
414.553	17660.58
420.315	18259.25
426.071	18384.58
431.821	17779.92
437.565	17154.92
443.302	16939.92
449.033	16770.58
454.758	16632.58
460.477	16543.92
466.189	16410.92
471.896	16287.92
477.596	16180.58
483.29	16069.25
488.978	15966.92
494.66	15830.25
500.335	15625.25
506.005	15334.92
511.668	14984.92
517.325	14686.58
522.977	14406.92
528.622	14183.58
534.261	13998.25
539.894	13841.92
545.521	13693.58
551.141	13562.58
556.756	13461.92
562.365	13347.25
567.968	13253.92
573.565	13144.58
579.155	13035.58
584.74	12950.25
590.319	12812.25
595.892	12707.25
601.459	12609.92
607.02	12485.58
612.575	12359.58
618.124	12218.58
623.667	12069.25
629.204	11997.25
634.735	11881.25
640.261	11923.25
645.781	12034.92
651.294	12070.92
656.802	11884.58
662.304	11567.25
667.8	11419.25
673.29	11277.25
678.775	11195.25
684.254	11090.58
689.726	11011.58
695.193	10926.92
700.655	10830.58
706.11	10725.92
711.56	10588.92
717.004	10532.58
722.442	10408.58
727.874	10336.58
733.301	10267.58
738.722	10220.58
744.137	10185.25
749.547	10207.58
754.951	10169.25
760.349	10110.92
765.741	10013.58
771.128	9933.92
776.509	9901.92
781.885	9857.58
787.254	9782.92
792.618	9716.92
797.977	9622.92
803.33	9490.25
808.677	9413.58
814.019	9273.25
819.355	9139.25
824.686	9035.92
830.011	8921.92
835.33	8836.92
840.644	8777.58
845.952	8704.58
851.255	8631.58
856.552	8527.25
861.844	8428.58
867.13	8346.92
872.41	8254.58
877.686	8139.92
882.955	8000.92
888.219	7864.92
893.478	7727.58
898.731	7587.58
903.979	7479.58
909.221	7384.92
914.458	7272.25
919.69	7254.92
924.916	7208.92
930.136	7169.58
935.351	7135.25
940.561	7081.92
945.766	7080.25
950.965	7000.92
956.158	6946.92
961.347	6823.58
966.529	6729.92
971.707	6622.92
976.879	6532.25
982.046	6431.92
987.208	6403.25
992.364	6391.58
997.515	6385.58
1002.66	6394.92
1007.801	6444.92
1012.936	6487.58
1018.066	6506.92
1023.19	6547.92
1028.309	6532.92
1033.423	6508.25
1038.532	6480.25
1043.636	6406.58
1048.734	6346.25
1053.827	6279.92
1058.915	6216.25
1063.998	6150.58
1069.075	6148.25
1074.147	6141.92
1079.214	6175.25
1084.276	6180.58
1089.333	6223.25
1094.385	6239.58
1099.431	6266.25
1104.472	6243.92
1109.509	6209.25
1114.54	6130.58
1119.565	6055.25
1124.586	5978.58
1129.602	5925.25
1134.613	5874.58
1139.618	5863.58
1144.619	5853.25
1149.614	5875.58
1154.604	5901.92
1159.589	5912.25
1164.57	5925.25
1169.545	5943.25
1174.515	5966.92
1179.48	5920.58
1184.44	5880.92
1189.395	5874.25
1194.345	5815.92
1199.29	5782.58
1204.23	5775.92
1209.165	5802.58
1214.095	5819.92
1219.021	5852.92
1223.941	5892.92
1228.856	5899.58
1233.766	5926.58
1238.672	5922.58
1243.572	5909.58
1248.467	5878.25
1253.358	5798.25
1258.244	5710.92
1263.124	5639.92
1268	5536.25
1272.871	5468.92
1277.737	5437.92
1282.599	5413.58
1287.455	5417.92
1292.306	5424.25
1297.153	5450.25
1301.995	5493.25
1306.832	5499.58
1311.664	5529.92
1316.491	5528.58
1321.314	5516.58
1326.132	5447.25
1330.945	5428.25
1335.753	5366.58
1340.556	5323.92
1345.354	5293.58
1350.148	5242.58
1354.937	5215.25
1359.722	5144.92
1364.501	5076.25
1369.276	5026.25
1374.046	4963.92
1378.811	4924.58
1383.572	4877.25
1388.327	4819.58
1393.079	4765.25
1397.825	4749.92
1402.567	4711.92
1407.304	4671.92
1412.036	4674.92
1416.764	4678.92
1421.487	4654.58
1426.205	4692.92
1430.919	4719.92
1435.628	4784.58
1440.333	4814.92
1445.032	4839.25
1449.727	4881.58
1454.418	4901.25
1459.104	4905.58
1463.785	4900.25
1468.462	4866.92
1473.134	4851.92
1477.802	4857.92
1482.465	4867.92
1487.123	4866.92
1491.777	4914.92
1496.426	4959.25
1501.071	5016.92
1505.711	5047.92
1510.347	5088.25
1514.978	5141.25
1519.604	5140.25
1524.226	5143.58
1528.844	5122.92
1533.457	5106.58
1538.065	5090.25
1542.669	5060.25
1547.269	5064.25
1551.864	5109.58
1556.454	5149.92
1561.041	5238.58
1565.622	5297.25
1570.199	5395.92
1574.772	5524.58
1579.34	5666.58
1583.904	5804.58
1588.464	5959.92
1593.019	6095.58
1597.569	6236.58
1602.115	6359.58
1606.657	6473.92
1611.195	6625.25
1615.728	6750.25
1620.256	6893.25
1624.78	7046.92
1629.3	7213.92
1633.816	7380.25
1638.327	7511.25
1642.834	7607.92
1647.336	7676.58
1651.834	7693.92
1656.328	7676.25
1660.817	7642.58
1665.302	7481.92
1669.783	7317.58
1674.259	7080.25
1678.732	6841.25
1683.199	6597.25
1687.663	6366.58
1692.122	6075.92
1696.577	5791.25
1701.028	5493.25
1705.474	5214.25
1709.917	4927.58
1714.355	4722.58
1718.788	4554.58
1723.218	4400.92
1727.643	4247.58
1732.064	4096.25
1736.481	3955.25
1740.893	3822.58
1745.301	3672.25
1749.705	3540.25
1754.105	3430.25
1758.501	3320.58
1762.893	3228.25
1767.28	3180.25
1771.663	3132.58
1776.042	3110.25
1780.417	3113.92
1784.787	3095.58
1789.154	3093.25
1793.516	3077.25
1797.874	3018.92
1802.228	2967.25
1806.578	2878.25
1810.924	2794.92
1815.266	2776.92
1819.603	2697.25
1823.937	2652.58
1828.266	2636.58
1832.591	2605.25
1836.913	2608.58
1841.23	2604.58
1845.543	2591.58
1849.852	2616.58
1854.156	2598.58
1858.457	2638.25
1862.754	2650.25
1867.047	2662.92
1871.335	2678.25
1875.62	2681.25
1879.9	2709.58
1884.177	2704.92
1888.449	2711.58
1892.718	2734.25
1896.982	2714.25
1901.243	2719.92
1905.499	2728.58
1909.752	2719.58
1914	2740.92
1918.245	2755.92
1922.485	2772.92
1926.722	2784.92
1930.954	2800.25
1935.183	2811.25
1939.408	2823.92
1943.628	2795.58
1947.845	2797.92
1952.058	2739.92
1956.267	2738.92
1960.472	2689.25
1964.673	2624.58
1968.87	2593.58
1973.063	2579.58
1977.252	2550.58
1981.438	2555.25
1985.619	2542.92
1989.797	2544.58
1993.971	2560.58
1998.14	2571.25
2002.306	2596.25
2006.469	2617.92
2010.627	2637.58
2014.781	2652.58
2018.932	2666.92
2023.078	2675.25
2027.221	2670.92
2031.36	2659.25
2035.495	2657.58
2039.627	2651.25
2043.754	2651.25
2047.878	2665.25
2051.998	2683.25
2056.114	2697.25
2060.226	2729.58
2064.334	2751.92
2068.439	2774.92
2072.54	2806.58
2076.637	2840.92
2080.73	2857.25
2084.82	2874.92
2088.906	2889.25
2092.988	2882.92
2097.066	2861.92
2101.14	2825.58
2105.211	2793.92
2109.278	2778.58
2113.342	2751.92
2117.401	2714.92
2121.457	2690.25
2125.509	2659.25
2129.558	2644.25
2133.602	2622.58
2137.643	2603.58
2141.681	2586.25
2145.714	2558.92
2149.744	2556.25
2153.77	2523.58
2157.793	2502.92
2161.812	2482.92
2165.827	2432.25
2169.838	2397.58
2173.846	2358.92
2177.851	2320.25
2181.851	2289.25
2185.848	2250.58
2189.841	2232.25
2193.831	2199.25
2197.817	2192.92
2201.799	2179.58
2205.778	2155.25
2209.753	2134.58
2213.725	2134.25
2217.693	2112.92
2221.657	2105.58
2225.618	2082.92
2229.575	2077.58
2233.529	2038.25
2237.479	1998.25
2241.425	1976.58
2245.368	1949.25
2249.307	1927.25
2253.243	1879.92
2257.175	1852.58
2261.104	1823.58
2265.029	1800.58
2268.95	1769.92
2272.868	1741.58
2276.783	1715.25
2280.694	1694.92
2284.601	1661.58
2288.505	1649.92
2292.405	1621.25
2296.302	1596.92
2300.195	1575.25
2304.085	1548.92
2307.971	1519.25
2311.854	1497.25
2315.734	1478.25
2319.609	1442.92
2323.482	1430.25
2327.351	1410.25
2331.216	1417.58
2335.078	1412.58
2338.937	1385.25
2342.792	1362.25
2346.643	1350.25
2350.492	1345.92
2354.336	1334.58
2358.178	1337.25
2362.015	1341.58
2365.85	1334.92
2369.681	1339.92
2373.508	1341.25
2377.333	1331.25
2381.153	1326.58
2384.971	1319.25
2388.785	1306.58
2392.595	1304.25
2396.402	1302.25
2400.206	1288.58
2404.007	1272.25
2407.804	1260.25
2411.597	1273.92
2415.388	1270.92
2419.174	1255.25
2422.958	1252.25
2426.738	1244.92
2430.515	1243.92
2434.289	1225.25
2438.059	1226.92
2441.825	1228.25
2445.589	1221.25
2449.349	1203.25
2453.106	1198.58
2456.859	1180.58
2460.61	1178.58
2464.356	1164.92
2468.1	1166.58
2471.84	1148.58
2475.577	1157.25
2479.311	1148.25
2483.041	1152.58
2486.768	1150.58
2490.492	1152.25
2494.213	1151.58
2497.93	1152.25
2501.644	1158.25
2505.355	1148.25
2509.062	1146.25
2512.766	1143.58
2516.467	1143.58
2520.165	1138.25
2523.859	1136.58
2527.551	1134.92
2531.239	1125.58
2534.923	1130.58
2538.605	1121.58
2542.283	1114.92
2545.958	1109.92
2549.63	1105.25
2553.299	1102.58
2556.964	1099.25
2560.626	1097.92
2564.285	1090.25
2567.941	1081.92
2571.594	1069.58
2575.243	1069.25
2578.89	1052.92
2582.533	1047.92
2586.173	1035.25
2589.809	1015.58
2593.443	1021.58
2597.073	1007.58
2600.701	1001.25
2604.325	990.58
2607.946	994.25
2611.564	983.25
2615.178	981.58
2618.79	973.58
2622.398	972.58
2626.004	967.58
2629.606	953.92
2633.205	950.58
2636.801	940.58
2640.394	936.92
2643.983	921.58
2647.57	922.25
2651.153	914.25
2654.734	914.58
2658.311	908.58
2661.885	904.92
2665.456	907.25
2669.025	897.58
2672.589	895.58
2676.151	894.25
2679.71	892.92
2683.266	891.25
2686.819	893.25
2690.368	887.58
2693.915	889.92
2697.458	880.92
2700.999	873.92
2704.536	872.92
2708.071	874.25
2711.602	866.58
2715.13	871.25
2718.656	876.92
2722.178	872.25
2725.697	882.25
2729.214	899.58
2732.727	910.92
2736.237	920.58
2739.744	936.25
2743.249	938.92
2746.75	948.58
2750.248	956.25
2753.743	946.58
2757.236	943.92
2760.725	936.92
2764.211	931.92
2767.695	924.58
2771.175	920.58
2774.652	919.25
2778.127	925.25
2781.598	932.58
2785.067	936.58
2788.532	942.58
2791.995	964.92
2795.455	971.58
2798.911	992.25
2802.365	1003.58
2805.816	1026.25
2809.264	1035.25
2812.709	1042.25
2816.151	1052.58
2819.59	1066.58
2823.026	1081.25
2826.46	1100.58
2829.89	1098.25
2833.318	1114.92
2836.742	1132.92
2840.164	1134.92
2843.583	1154.58
2846.999	1170.58
2850.412	1193.58
2853.822	1214.58
2857.229	1230.58
2860.634	1247.58
2864.035	1256.58
2867.434	1287.58
2870.83	1299.58
2874.223	1319.92
2877.613	1334.25
2881	1347.92
2884.385	1373.25
2887.766	1377.25
2891.145	1391.92
2894.521	1407.92
2897.894	1437.92
2901.264	1445.58
2904.631	1475.92
2907.996	1487.92
2911.358	1515.92
2914.717	1535.58
2918.073	1572.25
2921.426	1592.92
2924.777	1625.92
2928.124	1655.92
2931.469	1705.25
2934.811	1749.25
2938.15	1786.25
2941.487	1819.92
2944.821	1867.58
2948.152	1895.58
2951.48	1943.58
2954.805	1981.58
2958.128	2012.25
2961.447	2058.25
2964.765	2119.25
2968.079	2156.25
2971.39	2224.58
2974.699	2291.25
2978.005	2356.92
2981.308	2422.92
2984.609	2497.92
2987.907	2572.25
2991.202	2634.25
2994.494	2712.58
2997.784	2784.92
3001.07	2863.58
3004.355	2932.92
3007.636	2999.25
3010.915	3064.58
3014.191	3104.58
3017.464	3163.25
3020.734	3220.92
3024.002	3279.92
3027.267	3337.58
3030.53	3412.58
3033.789	3484.92
3037.046	3566.58
3040.301	3639.25
3043.552	3735.92
3046.801	3841.58
3050.048	3972.25
3053.291	4072.92
3056.532	4193.58
3059.771	4316.92
3063.006	4468.92
3066.239	4585.58
3069.469	4743.25
3072.697	4885.92
3075.922	5023.92
3079.144	5145.25
3082.364	5305.92
3085.581	5422.58
3088.795	5567.25
3092.007	5692.25
3095.216	5844.92
3098.423	5977.25
3101.627	6117.92
3104.828	6252.92
3108.026	6400.58
3111.222	6556.58
3114.416	6693.58
3117.607	6849.25
3120.795	7026.25
3123.98	7185.58
3127.163	7360.58
3130.344	7534.92
3133.521	7693.92
3136.696	7878.25
3139.869	8016.25
3143.039	8157.25
3146.206	8284.25
3149.371	8411.92
3152.533	8482.25
3155.693	8563.58
3158.85	8610.92
3162.005	8643.58
3165.157	8697.58
3168.306	8730.92
3171.453	8797.92
3174.597	8821.58
3177.739	8844.58
3180.878	8879.58
3184.014	8903.92
3187.149	8979.25
3190.28	8989.92
3193.409	9049.92
3196.536	9076.92
3199.659	9127.92
3202.781	9152.58
3205.9	9182.92
3209.016	9205.92
3212.13	9221.92
3215.241	9181.58
3218.35	9145.92
3221.456	9095.92
3224.56	9084.25
3227.661	9016.58
3230.76	8951.25
3233.856	8912.58
3236.95	8870.25
3240.041	8815.25
3243.13	8788.92
3246.216	8735.25
3249.3	8704.92
3252.382	8679.58
3255.46	8635.92
3258.537	8661.25
3261.611	8585.58
3264.682	8557.92
3267.751	8557.92
3270.818	8519.92
3273.882	8456.92
3276.943	8397.25
3280.002	8330.58
3283.059	8230.92
3286.113	8139.58
3289.165	8005.92
3292.214	7906.25
3295.261	7795.92
3298.306	7673.92
3301.348	7582.92
3304.387	7472.58
3307.425	7391.58
3310.459	7303.25
3313.492	7224.58
3316.521	7149.92
3319.549	7066.25
3322.574	7021.25
3325.597	6965.58
3328.617	6945.58
3331.635	6909.25
3334.65	6885.92
3337.663	6851.92
3340.674	6833.25
3343.682	6812.92
3346.688	6820.58
3349.691	6800.92
3352.692	6773.25
3355.691	6729.58
3358.687	6707.58
3361.681	6645.25
3364.673	6573.92
3367.662	6513.58
3370.649	6446.25
3373.633	6386.58
3376.615	6323.58
3379.595	6253.25
3382.572	6206.58
3385.547	6125.25
3388.52	6057.92
3391.49	5988.25
3394.458	5922.92
3397.424	5898.92
3400.387	5836.92
3403.348	5790.58
3406.307	5717.58
3409.263	5688.58
3412.217	5662.25
3415.168	5622.25
3418.118	5576.58
3421.065	5510.25
3424.009	5461.25
3426.951	5401.92
3429.891	5349.25
3432.829	5264.58
3435.764	5185.25
3438.697	5089.92
3441.628	5012.58
3444.557	4911.25
3447.483	4818.92
3450.407	4709.25
3453.328	4590.92
3456.247	4520.92
3459.164	4391.92
3462.079	4300.58
3464.991	4211.25
3467.902	4096.25
3470.809	4007.58
3473.715	3930.25
3476.618	3839.92
3479.519	3743.25
3482.418	3674.58
3485.315	3606.58
3488.209	3533.58
3491.101	3453.58
3493.99	3358.92
3496.878	3313.92
3499.763	3234.58
3502.646	3142.58
3505.527	3076.58
3508.405	2992.58
3511.281	2902.92
3514.155	2802.58
3517.027	2726.25
3519.897	2634.92
3522.764	2553.92
3525.629	2478.92
3528.492	2381.58
3531.352	2285.58
3534.211	2199.92
3537.067	2121.25
3539.921	2039.25
3542.773	1962.92
3545.622	1901.58
3548.469	1830.58
3551.315	1771.58
3554.157	1714.25
3556.998	1654.25
3559.837	1610.25
3562.673	1556.25
3565.507	1517.25
3568.339	1465.92
3571.169	1415.25
3573.996	1367.58
3576.822	1326.25
3579.645	1285.92
3582.466	1236.25
3585.285	1202.25
3588.101	1154.58
3590.916	1121.58
3593.728	1076.58
3596.538	1035.92
3599.346	991.25
3602.152	958.58
3604.956	920.25
3607.757	894.25
3610.556	853.25
3613.354	825.25
3616.149	795.58
3618.942	766.58
3621.732	736.25
3624.521	716.58
3627.307	692.92
3630.092	667.58
3632.874	649.25
3635.654	626.25
3638.432	602.92
3641.208	586.58
3643.982	562.25
3646.753	536.25
3649.523	521.58
3652.29	500.58
3655.055	480.92
3657.818	465.58
3660.579	440.25
3663.338	423.58
3666.095	401.25
3668.849	385.25
3671.602	371.58
3674.352	355.58
3677.101	337.58
3679.847	324.92
3682.591	317.25
3685.333	296.92
3688.073	285.58
3690.811	274.58
3693.547	266.25
3696.281	256.92
3699.013	248.58
3701.742	234.25
3704.47	232.58
3707.195	218.58
3709.919	209.92
3712.64	202.92
3715.359	195.58
3718.076	192.25
3720.792	177.25
3723.505	179.25
3726.216	167.25
3728.925	165.92
3731.632	155.92
3734.336	153.58
3737.039	147.25
3739.74	137.58
3742.439	129.25
3745.136	128.58
3747.83	127.58
3750.523	122.92
3753.213	96.25
3755.902	113.92
3758.589	106.92
3761.273	110.92
3763.956	103.58
3766.636	101.92
3769.315	98.92
3771.991	93.25
3774.665	90.58
3777.338	86.92
3780.008	91.25
3782.677	88.92
3785.343	85.58
3788.007	78.25
3790.67	78.92
3793.33	79.58
3795.989	75.58
3798.645	73.92
3801.299	71.25
3803.952	69.58
3806.602	66.58
3809.251	72.25
3811.897	65.25
3814.542	68.25
3817.184	62.25
3819.825	62.92
3822.463	60.58
3825.1	59.25
3827.735	60.58
3830.367	58.25
3832.998	54.92
3835.627	55.58
3838.253	57.25
3840.878	50.92
3843.501	49.92
3846.122	49.58
3848.741	47.25
3851.358	49.58
3853.973	52.58
3856.586	45.92
3859.197	46.58
3861.806	42.92
3864.414	42.58
3867.019	47.25
3869.622	50.92
3872.224	60.92
3874.823	77.58
3877.421	95.25
3880.016	130.92
3882.61	156.25
3885.202	167.92
3887.792	135.92
3890.38	93.92
3892.966	40.92
3895.55	32.58
3898.132	36.92
3900.713	33.58
3903.291	32.58
3905.868	36.25
3908.442	30.92
3911.015	32.58
3913.586	30.92
3916.155	31.58
3918.722	29.58
3921.287	29.25
3923.85	28.58
3926.411	28.25
3928.971	25.25
3931.528	24.92
3934.084	25.58
3936.638	23.92
3939.19	23.92
3941.74	22.92
3944.288	26.25
3946.834	23.92
3949.378	22.58
3951.921	23.92
3954.462	27.58
3957	28.92
3959.537	27.92
3962.072	27.92
3964.606	27.92
3967.137	28.58
3969.667	23.25
3972.194	29.25
3974.72	29.92
3977.244	33.58
3979.766	37.25
3982.286	31.92
3984.805	36.25
3987.321	39.58
3989.836	41.25
3992.349	39.92
3994.86	37.92
3997.369	34.92
3999.877	39.25
4002.382	37.25
4004.886	35.92
4007.388	35.25
4009.888	36.92
4012.386	40.58
4014.883	32.58
4017.377	32.25
4019.87	35.25
4022.361	37.58
4024.85	30.58
4027.338	35.25
4029.823	33.92
4032.307	32.92
4034.789	30.92
4037.269	32.25
4039.747	30.92
4042.224	28.58
4044.699	26.92
4047.172	23.92
4049.643	27.25
4052.112	30.92
4054.58	25.92
4057.046	26.58
4059.51	26.92
4061.972	24.25
4064.432	26.58
4066.891	24.92
4069.348	25.58
4071.803	26.92
4074.256	23.58
4076.708	26.58
4079.158	29.25
4081.606	29.92
4084.052	28.25
4086.497	25.92
4088.939	28.92
4091.38	28.58
4093.819	27.58
4096.257	2.92
4098.693	0.92
4101.127	-2.75
4103.559	0.25
4105.989	340.58
4108.418	347.58
4110.845	377.25
4113.27	400.25
4115.694	431.58
4118.115	491.92
4120.535	29.92
4122.954	27.25
4125.37	27.58
4127.785	27.92
4130.198	25.25
4132.609	29.58
4135.019	-1.75
4137.427	-0.42
4139.833	1.58
4142.237	-0.75
