160.701	588.92
166.742	784.25
172.777	1346.25
178.805	3082.25
184.826	7463.25
190.841	15459.58
196.849	25203.58
202.85	32371.25
208.845	34630.58
214.833	33807.25
220.815	32589.92
226.789	31747.92
232.758	30959.25
238.719	30207.25
244.674	29207.58
250.623	28112.25
256.565	26988.92
262.5	25872.25
268.429	24877.25
274.351	24024.58
280.267	23290.58
286.176	22680.25
292.079	22097.25
297.975	21546.92
303.865	21008.58
309.748	20576.58
315.625	20175.25
321.495	19878.25
327.359	19656.92
333.217	19481.58
339.068	19376.92
344.912	19305.92
350.751	19248.92
356.583	19212.58
362.408	19236.58
368.227	19258.25
374.04	19389.25
379.847	19609.58
385.647	19829.58
391.44	19804.58
397.228	19681.25
403.009	19692.58
408.784	19914.58
414.553	20376.58
420.315	21010.58
426.071	21122.92
431.821	20513.58
437.565	19918.58
443.302	19677.58
449.033	19547.92
454.758	19420.25
460.477	19312.25
466.189	19224.58
471.896	19090.25
477.596	18961.58
483.29	18858.58
488.978	18782.92
494.66	18645.92
500.335	18455.92
506.005	18206.58
511.668	17872.25
517.325	17571.58
522.977	17299.58
528.622	17091.25
534.261	16899.25
539.894	16737.92
545.521	16639.58
551.141	16519.92
556.756	16439.58
562.365	16332.92
567.968	16203.25
573.565	16094.58
579.155	16045.25
584.74	15941.25
590.319	15808.25
595.892	15667.25
601.459	15583.25
607.02	15439.25
612.575	15291.58
618.124	15138.92
623.667	14998.25
629.204	14881.25
634.735	14807.25
640.261	14877.25
645.781	14935.25
651.294	14959.58
656.802	14771.58
662.304	14508.58
667.8	14313.58
673.29	14211.92
678.775	14112.58
684.254	14039.25
689.726	13961.58
695.193	13828.58
700.655	13720.92
706.11	13633.25
711.56	13519.58
717.004	13406.25
722.442	13373.58
727.874	13343.92
733.301	13384.92
738.722	13393.25
744.137	13301.92
749.547	13123.58
754.951	13056.25
760.349	12979.58
765.741	12864.25
771.128	12776.92
776.509	12718.92
781.885	12690.58
787.254	12583.58
792.618	12534.25
797.977	12399.58
803.33	12297.58
808.677	12178.92
814.019	12047.92
819.355	11876.25
824.686	11795.58
830.011	11693.92
835.33	11603.25
840.644	11537.92
845.952	11482.92
851.255	11414.58
856.552	11355.25
861.844	11272.92
867.13	11183.58
872.41	11094.25
877.686	10980.58
882.955	10821.58
888.219	10678.25
893.478	10533.58
898.731	10377.25
903.979	10234.25
909.221	10111.58
914.458	10042.25
919.69	10006.58
924.916	9975.25
930.136	9954.58
935.351	9925.92
940.561	9894.25
945.766	9844.92
950.965	9801.25
956.158	9708.58
961.347	9589.58
966.529	9455.92
971.707	9315.58
976.879	9213.58
982.046	9096.25
987.208	9053.25
992.364	9017.25
997.515	9055.58
1002.66	9074.58
1007.801	9157.25
1012.936	9195.25
1018.066	9271.25
1023.19	9290.58
1028.309	9311.58
1033.423	9296.58
1038.532	9213.92
1043.636	9118.25
1048.734	9046.25
1053.827	8929.58
1058.915	8826.25
1063.998	8778.25
1069.075	8728.92
1074.147	8742.58
1079.214	8792.92
1084.276	8802.25
1089.333	8844.25
1094.385	8898.92
1099.431	8923.58
1104.472	8928.92
1109.509	8914.25
1114.54	8819.92
1119.565	8673.58
1124.586	8578.58
1129.602	8485.25
1134.613	8429.92
1139.618	8406.25
1144.619	8402.58
1149.614	8427.58
1154.604	8439.25
1159.589	8470.92
1164.57	8506.92
1169.545	8510.25
1174.515	8522.92
1179.48	8515.92
1184.44	8431.25
1189.395	8370.25
1194.345	8317.58
1199.29	8271.58
1204.23	8297.25
1209.165	8335.25
1214.095	8367.92
1219.021	8442.92
1223.941	8491.58
1228.856	8538.58
1233.766	8528.58
1238.672	8535.92
1243.572	8503.92
1248.467	8449.25
1253.358	8336.58
1258.244	8243.58
1263.124	8124.58
1268	8000.25
1272.871	7917.58
1277.737	7834.92
1282.599	7834.25
1287.455	7841.25
1292.306	7889.25
1297.153	7940.58
1301.995	8026.25
1306.832	8050.92
1311.664	8094.58
1316.491	8057.25
1321.314	8012.58
1326.132	7946.92
1330.945	7876.92
1335.753	7747.58
1340.556	7675.92
1345.354	7592.58
1350.148	7546.58
1354.937	7513.92
1359.722	7425.92
1364.501	7372.25
1369.276	7331.92
1374.046	7306.58
1378.811	7270.25
1383.572	7284.92
1388.327	7243.92
1393.079	7142.25
1397.825	7032.58
1402.567	6946.92
1407.304	6899.92
1412.036	6865.92
1416.764	6836.25
1421.487	6853.92
1426.205	6875.58
1430.919	6904.92
1435.628	6971.92
1440.333	7045.92
1445.032	7082.92
1449.727	7156.92
1454.418	7143.25
1459.104	7152.58
1463.785	7105.92
1468.462	7079.92
1473.134	7043.25
1477.802	6985.25
1482.465	6988.58
1487.123	6997.25
1491.777	7025.58
1496.426	7100.58
1501.071	7168.25
1505.711	7221.25
1510.347	7259.92
1514.978	7319.58
1519.604	7367.92
1524.226	7350.58
1528.844	7331.58
1533.457	7278.58
1538.065	7216.25
1542.669	7189.92
1547.269	7154.25
1551.864	7141.92
1556.454	7192.25
1561.041	7236.25
1565.622	7286.92
1570.199	7379.58
1574.772	7492.25
1579.34	7611.25
1583.904	7771.92
1588.464	7901.92
1593.019	8032.92
1597.569	8120.58
1602.115	8209.25
1606.657	8316.58
1611.195	8396.58
1615.728	8467.92
1620.256	8602.92
1624.78	8773.92
1629.3	8890.92
1633.816	9021.92
1638.327	9187.25
1642.834	9280.58
1647.336	9356.25
1651.834	9398.92
1656.328	9387.58
1660.817	9315.25
1665.302	9219.92
1669.783	9055.92
1674.259	8840.92
1678.732	8607.25
1683.199	8321.92
1687.663	8065.58
1692.122	7786.92
1696.577	7522.25
1701.028	7221.58
1705.474	6943.92
1709.917	6718.58
1714.355	6519.25
1718.788	6341.25
1723.218	6193.92
1727.643	6059.92
1732.064	5903.92
1736.481	5752.25
1740.893	5595.58
1745.301	5404.58
1749.705	5250.92
1754.105	5115.58
1758.501	4983.92
1762.893	4897.58
1767.28	4792.58
1771.663	4726.92
1776.042	4706.25
1780.417	4705.92
1784.787	4703.25
1789.154	4718.58
1793.516	4700.92
1797.874	4660.92
1802.228	4609.58
1806.578	4511.92
1810.924	4432.58
1815.266	4345.58
1819.603	4258.25
1823.937	4203.92
1828.266	4154.92
1832.591	4130.25
1836.913	4106.25
1841.23	4098.58
1845.543	4105.92
1849.852	4103.58
1854.156	4116.92
1858.457	4137.25
1862.754	4160.92
1867.047	4175.58
1871.335	4182.25
1875.62	4219.92
1879.9	4225.58
1884.177	4231.92
1888.449	4248.25
1892.718	4218.58
1896.982	4206.58
1901.243	4201.25
1905.499	4206.92
1909.752	4210.92
1914	4229.25
1918.245	4239.58
1922.485	4264.92
1926.722	4298.25
1930.954	4331.25
1935.183	4324.58
1939.408	4316.25
1943.628	4316.92
1947.845	4261.25
1952.058	4215.92
1956.267	4157.92
1960.472	4094.58
1964.673	3992.58
1968.87	3937.58
1973.063	3882.25
1977.252	3835.58
1981.438	3814.58
1985.619	3777.58
1989.797	3767.58
1993.971	3774.92
1998.14	3764.58
2002.306	3781.25
2006.469	3777.92
2010.627	3799.25
2014.781	3803.25
2018.932	3819.25
2023.078	3807.58
2027.221	3794.25
2031.36	3744.58
2035.495	3752.92
2039.627	3721.58
2043.754	3704.92
2047.878	3695.92
2051.998	3713.25
2056.114	3736.58
2060.226	3759.92
2064.334	3787.58
2068.439	3813.25
2072.54	3861.58
2076.637	3893.92
2080.73	3907.92
2084.82	3928.58
2088.906	3932.25
2092.988	3929.92
2097.066	3895.25
2101.14	3862.25
2105.211	3804.25
2109.278	3784.25
2113.342	3712.58
2117.401	3684.25
2121.457	3663.92
2125.509	3617.92
2129.558	3576.58
2133.602	3539.58
2137.643	3500.58
2141.681	3485.58
2145.714	3469.58
2149.744	3436.25
2153.77	3401.25
2157.793	3372.25
2161.812	3334.58
2165.827	3290.58
2169.838	3217.92
2173.846	3180.58
2177.851	3133.92
2181.851	3089.92
2185.848	3044.92
2189.841	3017.92
2193.831	2980.25
2197.817	2962.25
2201.799	2941.92
2205.778	2918.25
2209.753	2894.92
2213.725	2873.25
2217.693	2861.92
2221.657	2832.92
2225.618	2818.92
2229.575	2801.25
2233.529	2757.92
2237.479	2713.92
2241.425	2677.92
2245.368	2635.58
2249.307	2604.92
2253.243	2553.58
2257.175	2507.25
2261.104	2467.58
2265.029	2442.58
2268.95	2394.92
2272.868	2363.58
2276.783	2324.25
2280.694	2297.58
2284.601	2263.92
2288.505	2242.25
2292.405	2190.92
2296.302	2170.25
2300.195	2147.92
2304.085	2114.58
2307.971	2079.25
2311.854	2049.25
2315.734	2002.58
2319.609	1978.25
2323.482	1934.92
2327.351	1924.25
2331.216	1928.92
2335.078	1914.25
2338.937	1893.92
2342.792	1861.58
2346.643	1854.25
2350.492	1851.25
2354.336	1844.25
2358.178	1859.58
2362.015	1850.92
2365.85	1846.58
2369.681	1840.92
2373.508	1849.58
2377.333	1847.25
2381.153	1834.58
2384.971	1836.25
2388.785	1814.92
2392.595	1811.25
2396.402	1794.58
2400.206	1781.92
2404.007	1775.92
2407.804	1756.25
2411.597	1762.58
2415.388	1753.25
2419.174	1747.58
2422.958	1734.92
2426.738	1727.58
2430.515	1715.92
2434.289	1721.92
2438.059	1700.25
2441.825	1696.25
2445.589	1678.58
2449.349	1674.92
2453.106	1660.25
2456.859	1634.58
2460.61	1626.58
2464.356	1618.92
2468.1	1617.92
2471.84	1602.58
2475.577	1600.25
2479.311	1578.25
2483.041	1585.92
2486.768	1590.58
2490.492	1579.25
2494.213	1590.92
2497.93	1588.92
2501.644	1585.58
2505.355	1574.92
2509.062	1568.25
2512.766	1566.58
2516.467	1552.92
2520.165	1558.58
2523.859	1557.25
2527.551	1546.58
2531.239	1541.58
2534.923	1530.25
2538.605	1528.25
2542.283	1520.58
2545.958	1507.25
2549.63	1509.25
2553.299	1505.25
2556.964	1497.92
2560.626	1489.25
2564.285	1480.58
2567.941	1482.58
2571.594	1459.58
2575.243	1455.25
2578.89	1437.92
2582.533	1431.58
2586.173	1407.58
2589.809	1390.25
2593.443	1375.25
2597.073	1354.58
2600.701	1356.58
2604.325	1344.58
2607.946	1334.58
2611.564	1329.25
2615.178	1323.92
2618.79	1321.58
2622.398	1313.92
2626.004	1293.92
2629.606	1285.25
2633.205	1281.58
2636.801	1266.58
2640.394	1250.58
2643.983	1246.25
2647.57	1233.58
2651.153	1226.92
2654.734	1217.58
2658.311	1212.58
2661.885	1193.92
2665.456	1197.92
2669.025	1195.92
2672.589	1195.58
2676.151	1180.25
2679.71	1182.92
2683.266	1178.25
2686.819	1167.25
2690.368	1162.92
2693.915	1157.92
2697.458	1150.25
2700.999	1143.92
2704.536	1136.25
2708.071	1135.58
2711.602	1126.92
2715.13	1137.25
2718.656	1126.25
2722.178	1129.25
2725.697	1137.58
2729.214	1141.25
2732.727	1150.92
2736.237	1164.58
2739.744	1175.92
2743.249	1179.92
2746.75	1184.92
2750.248	1196.92
2753.743	1186.92
2757.236	1177.58
2760.725	1176.92
2764.211	1169.92
2767.695	1150.25
2771.175	1152.92
2774.652	1160.25
2778.127	1150.58
2781.598	1156.25
2785.067	1162.92
2788.532	1177.58
2791.995	1189.58
2795.455	1202.25
2798.911	1215.92
2802.365	1229.92
2805.816	1244.58
2809.264	1251.92
2812.709	1264.58
2816.151	1273.25
2819.59	1276.92
2823.026	1299.92
2826.46	1310.58
2829.89	1315.25
2833.318	1320.25
2836.742	1334.58
2840.164	1334.92
2843.583	1357.25
2846.999	1372.92
2850.412	1379.58
2853.822	1391.58
2857.229	1421.25
2860.634	1415.92
2864.035	1446.25
2867.434	1465.92
2870.83	1482.25
2874.223	1494.92
2877.613	1510.92
2881	1519.58
2884.385	1525.92
2887.766	1530.92
2891.145	1555.58
2894.521	1555.92
2897.894	1561.25
2901.264	1596.92
2904.631	1598.92
2907.996	1619.25
2911.358	1644.92
2914.717	1657.92
2918.073	1694.58
2921.426	1706.25
2924.777	1743.58
2928.124	1763.92
2931.469	1812.92
2934.811	1862.92
2938.15	1877.92
2941.487	1903.92
2944.821	1963.58
2948.152	1991.58
2951.48	2020.25
2954.805	2054.92
2958.128	2080.58
2961.447	2133.25
2964.765	2172.92
2968.079	2217.25
2971.39	2278.92
2974.699	2326.25
2978.005	2387.58
2981.308	2457.25
2984.609	2519.58
2987.907	2578.25
2991.202	2652.25
2994.494	2722.58
2997.784	2793.25
3001.07	2864.58
3004.355	2928.58
3007.636	2981.92
3010.915	3038.92
3014.191	3100.92
3017.464	3141.25
3020.734	3190.58
3024.002	3258.25
3027.267	3317.25
3030.53	3369.25
3033.789	3451.92
3037.046	3517.58
3040.301	3586.58
3043.552	3678.25
3046.801	3774.92
3050.048	3863.25
3053.291	3977.92
3056.532	4077.25
3059.771	4237.25
3063.006	4351.58
3066.239	4477.92
3069.469	4605.25
3072.697	4734.92
3075.922	4868.92
3079.144	4976.92
3082.364	5109.25
3085.581	5228.25
3088.795	5361.58
3092.007	5469.92
3095.216	5621.92
3098.423	5734.58
3101.627	5865.25
3104.828	5985.92
3108.026	6136.58
3111.222	6278.92
3114.416	6406.25
3117.607	6540.92
3120.795	6689.92
3123.98	6840.58
3127.163	7014.25
3130.344	7145.58
3133.521	7327.92
3136.696	7477.25
3139.869	7611.58
3143.039	7753.25
3146.206	7848.92
3149.371	7969.25
3152.533	8033.92
3155.693	8114.92
3158.85	8163.25
3162.005	8220.92
3165.157	8237.58
3168.306	8322.92
3171.453	8329.25
3174.597	8395.92
3177.739	8427.25
3180.878	8443.58
3184.014	8454.58
3187.149	8493.25
3190.28	8545.25
3193.409	8584.92
3196.536	8625.25
3199.659	8664.25
3202.781	8690.25
3205.9	8714.92
3209.016	8728.92
3212.13	8738.92
3215.241	8705.25
3218.35	8692.92
3221.456	8635.92
3224.56	8579.92
3227.661	8519.25
3230.76	8445.58
3233.856	8408.58
3236.95	8354.58
3240.041	8334.25
3243.13	8261.58
3246.216	8243.58
3249.3	8192.58
3252.382	8172.92
3255.46	8159.25
3258.537	8131.58
3261.611	8081.58
3264.682	8057.25
3267.751	8029.25
3270.818	8007.58
3273.882	7964.58
3276.943	7920.92
3280.002	7859.92
3283.059	7801.25
3286.113	7665.25
3289.165	7597.92
3292.214	7489.58
3295.261	7392.25
3298.306	7305.25
3301.348	7208.92
3304.387	7095.58
3307.425	7019.25
3310.459	6918.25
3313.492	6861.92
3316.521	6794.92
3319.549	6731.58
3322.574	6677.58
3325.597	6633.25
3328.617	6593.58
3331.635	6564.25
3334.65	6541.92
3337.663	6511.92
3340.674	6499.58
3343.682	6465.58
3346.688	6450.58
3349.691	6448.58
3352.692	6418.25
3355.691	6373.58
3358.687	6341.92
3361.681	6284.58
3364.673	6235.58
3367.662	6174.92
3370.649	6088.58
3373.633	6017.25
3376.615	5963.58
3379.595	5913.92
3382.572	5844.58
3385.547	5754.25
3388.52	5715.25
3391.49	5646.25
3394.458	5585.58
3397.424	5556.58
3400.387	5495.25
3403.348	5445.25
3406.307	5398.25
3409.263	5369.25
3412.217	5326.25
3415.168	5289.58
3418.118	5251.92
3421.065	5184.58
3424.009	5145.92
3426.951	5080.25
3429.891	5007.58
3432.829	4953.58
3435.764	4863.58
3438.697	4796.92
3441.628	4693.92
3444.557	4595.58
3447.483	4509.25
3450.407	4407.92
3453.328	4323.92
3456.247	4230.58
3459.164	4122.25
3462.079	4039.25
3464.991	3943.25
3467.902	3860.92
3470.809	3763.58
3473.715	3679.92
3476.618	3597.92
3479.519	3501.58
3482.418	3441.92
3485.315	3375.25
3488.209	3305.92
3491.101	3230.92
3493.99	3162.25
3496.878	3102.92
3499.763	3043.58
3502.646	2955.92
3505.527	2885.58
3508.405	2805.58
3511.281	2727.25
3514.155	2636.92
3517.027	2555.25
3519.897	2481.92
3522.764	2388.25
3525.629	2316.58
3528.492	2223.58
3531.352	2149.92
3534.211	2063.58
3537.067	1991.25
3539.921	1909.92
3542.773	1853.92
3545.622	1790.58
3548.469	1720.92
3551.315	1666.92
3554.157	1611.25
3556.998	1565.58
3559.837	1512.58
3562.673	1469.25
3565.507	1427.25
3568.339	1375.58
3571.169	1333.92
3573.996	1295.58
3576.822	1244.92
3579.645	1213.25
3582.466	1164.58
3585.285	1128.58
3588.101	1085.58
3590.916	1055.58
3593.728	1023.25
3596.538	984.58
3599.346	948.25
3602.152	904.92
3604.956	874.58
3607.757	843.25
3610.556	803.92
3613.354	781.25
3616.149	755.58
3618.942	726.25
3621.732	704.92
3624.521	684.92
3627.307	657.58
3630.092	643.25
3632.874	618.58
3635.654	599.25
3638.432	582.92
3641.208	557.92
3643.982	542.25
3646.753	523.58
3649.523	501.25
3652.29	483.92
3655.055	461.58
3657.818	440.58
3660.579	423.58
3663.338	408.25
3666.095	392.58
3668.849	370.25
3671.602	355.92
3674.352	339.58
3677.101	325.25
3679.847	311.92
3682.591	301.25
3685.333	290.92
3688.073	282.58
3690.811	268.25
3693.547	263.92
3696.281	247.92
3699.013	235.92
3701.742	232.58
3704.47	223.58
3707.195	216.25
3709.919	204.92
3712.64	200.25
3715.359	192.58
3718.076	184.58
3720.792	172.58
3723.505	171.25
3726.216	161.92
3728.925	159.58
3731.632	154.92
3734.336	150.92
3737.039	147.58
3739.74	134.58
3742.439	134.92
3745.136	130.92
3747.83	119.58
3750.523	124.25
3753.213	114.25
3755.902	116.92
3758.589	109.92
3761.273	110.58
3763.956	108.92
3766.636	104.25
3769.315	102.58
3771.991	95.58
3774.665	94.92
3777.338	92.92
3780.008	89.92
3782.677	92.25
3785.343	86.92
3788.007	80.25
3790.67	84.25
3793.33	81.58
3795.989	80.25
3798.645	76.92
3801.299	75.25
3803.952	69.58
3806.602	67.92
3809.251	72.25
3811.897	65.92
3814.542	66.25
3817.184	72.25
3819.825	62.58
3822.463	65.25
3825.1	60.25
3827.735	62.92
3830.367	58.58
3832.998	54.58
3835.627	59.58
3838.253	56.25
3840.878	47.25
3843.501	51.58
3846.122	51.92
3848.741	50.92
3851.358	48.25
3853.973	49.58
3856.586	47.92
3859.197	46.25
3861.806	48.58
3864.414	44.25
3867.019	51.92
3869.622	50.58
3872.224	59.25
3874.823	76.92
3877.421	93.92
3880.016	122.25
3882.61	144.58
3885.202	158.25
3887.792	127.92
3890.38	90.92
3892.966	41.92
3895.55	35.25
3898.132	40.92
3900.713	37.92
3903.291	33.92
3905.868	37.58
3908.442	34.92
3911.015	35.58
3913.586	35.92
3916.155	33.58
3918.722	30.25
3921.287	29.58
3923.85	31.92
3926.411	29.58
3928.971	29.58
3931.528	27.25
3934.084	23.58
3936.638	24.58
3939.19	26.92
3941.74	25.92
3944.288	28.25
3946.834	24.92
3949.378	23.58
3951.921	21.25
3954.462	22.92
3957	31.58
3959.537	30.25
3962.072	30.92
3964.606	27.58
3967.137	30.92
3969.667	29.92
3972.194	32.25
3974.72	36.92
3977.244	38.92
3979.766	39.58
3982.286	38.58
3984.805	37.58
3987.321	43.58
3989.836	46.25
3992.349	46.58
3994.86	44.25
3997.369	42.92
3999.877	40.92
4002.382	42.25
4004.886	43.25
4007.388	43.92
4009.888	41.92
4012.386	38.92
4014.883	40.25
4017.377	40.25
4019.87	39.58
4022.361	39.58
4024.85	35.58
4027.338	38.58
4029.823	37.58
4032.307	35.25
4034.789	33.58
4037.269	34.92
4039.747	32.58
4042.224	31.25
4044.699	34.92
4047.172	28.58
4049.643	31.25
4052.112	34.58
4054.58	29.92
4057.046	30.92
4059.51	32.58
4061.972	31.58
4064.432	33.58
4066.891	35.58
4069.348	34.92
4071.803	36.58
4074.256	34.25
4076.708	32.58
4079.158	36.58
4081.606	32.58
4084.052	35.25
4086.497	35.25
4088.939	36.92
4091.38	34.25
4093.819	39.92
4096.257	6.25
4098.693	-0.08
4101.127	-3.42
4103.559	0.58
4105.989	343.25
4108.418	355.58
4110.845	379.25
4113.27	409.25
4115.694	443.25
4118.115	505.25
4120.535	36.92
4122.954	34.58
4125.37	35.25
4127.785	31.92
4130.198	32.58
4132.609	33.58
4135.019	-3.08
4137.427	0.92
4139.833	0.25
4142.237	-1.42
