160.701	539.21
166.742	713.54
172.777	1248.54
178.805	2932.54
184.826	7136.88
190.841	14732.54
196.849	23935.54
202.85	30632.54
208.845	32680.87
214.833	31882.88
220.815	30649.54
226.789	29803.21
232.758	29017.21
238.719	28199.21
244.674	27240.21
250.623	26180.21
256.565	25073.87
262.5	23997.54
268.429	23016.21
274.351	22154.88
280.267	21404.54
286.176	20794.54
292.079	20232.21
297.975	19709.88
303.865	19172.88
309.748	18702.21
315.625	18339.21
321.495	18031.54
327.359	17785.21
333.217	17637.54
339.068	17522.54
344.912	17458.88
350.751	17394.88
356.583	17394.21
362.408	17333.21
368.227	17382.87
374.04	17507.21
379.847	17739.88
385.647	17928.54
391.44	17924.21
397.228	17805.54
403.009	17822.87
408.784	17988.54
414.553	18421.54
420.315	19001.21
426.071	19124.21
431.821	18608.88
437.565	18011.21
443.302	17775.88
449.033	17644.21
454.758	17562.21
460.477	17435.54
466.189	17327.21
471.896	17223.21
477.596	17109.21
483.29	17013.54
488.978	16917.88
494.66	16781.21
500.335	16563.87
506.005	16329.54
511.668	16030.88
517.325	15744.88
522.977	15545.21
528.622	15307.21
534.261	15167.21
539.894	15006.54
545.521	14882.88
551.141	14802.88
556.756	14693.88
562.365	14565.21
567.968	14511.21
573.565	14447.21
579.155	14325.21
584.74	14227.88
590.319	14114.21
595.892	14002.88
601.459	13898.54
607.02	13767.54
612.575	13632.54
618.124	13488.54
623.667	13335.88
629.204	13266.88
634.735	13180.21
640.261	13195.21
645.781	13284.88
651.294	13289.21
656.802	13143.21
662.304	12881.21
667.8	12684.88
673.29	12598.21
678.775	12516.21
684.254	12415.21
689.726	12348.54
695.193	12249.88
700.655	12165.88
706.11	12054.88
711.56	11976.21
717.004	11916.54
722.442	11828.88
727.874	11824.54
733.301	11847.54
738.722	11848.88
744.137	11779.88
749.547	11635.54
754.951	11571.54
760.349	11466.88
765.741	11341.88
771.128	11250.54
776.509	11221.54
781.885	11177.21
787.254	11106.54
792.618	11051.54
797.977	10952.54
803.33	10835.21
808.677	10711.54
814.019	10594.88
819.355	10449.54
824.686	10353.88
830.011	10243.88
835.33	10186.54
840.644	10117.21
845.952	10049.21
851.255	9998.54
856.552	9924.54
861.844	9845.88
867.13	9764.54
872.41	9675.54
877.686	9588.21
882.955	9465.54
888.219	9317.54
893.478	9147.88
898.731	9018.21
903.979	8889.88
909.221	8791.88
914.458	8711.21
919.69	8686.21
924.916	8640.88
930.136	8620.54
935.351	8585.54
940.561	8566.54
945.766	8512.54
950.965	8477.54
956.158	8384.21
961.347	8289.88
966.529	8148.88
971.707	8086.88
976.879	7944.54
982.046	7845.54
987.208	7807.21
992.364	7757.21
997.515	7793.54
1002.66	7823.21
1007.801	7857.54
1012.936	7905.21
1018.066	7959.88
1023.19	7983.54
1028.309	7979.88
1033.423	7963.88
1038.532	7914.54
1043.636	7852.21
1048.734	7771.88
1053.827	7666.21
1058.915	7591.21
1063.998	7548.54
1069.075	7512.21
1074.147	7534.88
1079.214	7544.21
1084.276	7570.21
1089.333	7623.88
1094.385	7633.21
1099.431	7681.54
1104.472	7671.21
1109.509	7622.21
1114.54	7542.21
1119.565	7452.54
1124.586	7348.88
1129.602	7276.54
1134.613	7244.88
1139.618	7224.88
1144.619	7222.54
1149.614	7233.54
1154.604	7257.54
1159.589	7263.21
1164.57	7293.88
1169.545	7321.54
1174.515	7316.21
1179.48	7269.88
1184.44	7221.88
1189.395	7199.21
1194.345	7133.21
1199.29	7119.88
1204.23	7131.88
1209.165	7147.54
1214.095	7191.54
1219.021	7240.54
1223.941	7301.21
1228.856	7318.88
1233.766	7327.21
1238.672	7320.21
1243.572	7293.21
1248.467	7242.54
1253.358	7165.21
1258.244	7054.21
1263.124	6963.88
1268	6852.54
1272.871	6794.21
1277.737	6734.88
1282.599	6718.54
1287.455	6726.88
1292.306	6757.88
1297.153	6804.88
1301.995	6869.88
1306.832	6905.54
1311.664	6905.21
1316.491	6891.88
1321.314	6863.88
1326.132	6810.54
1330.945	6746.54
1335.753	6668.21
1340.556	6597.54
1345.354	6541.21
1350.148	6461.88
1354.937	6399.88
1359.722	6343.88
1364.501	6257.54
1369.276	6199.21
1374.046	6162.88
1378.811	6112.21
1383.572	6104.21
1388.327	6070.88
1393.079	6013.88
1397.825	5950.21
1402.567	5866.54
1407.304	5829.21
1412.036	5813.54
1416.764	5824.88
1421.487	5845.54
1426.205	5863.54
1430.919	5861.54
1435.628	5949.54
1440.333	6002.88
1445.032	6056.21
1449.727	6078.88
1454.418	6103.54
1459.104	6097.88
1463.785	6085.21
1468.462	6046.21
1473.134	5974.21
1477.802	5968.88
1482.465	5941.88
1487.123	5941.54
1491.777	5966.88
1496.426	5990.21
1501.071	6032.21
1505.711	6085.54
1510.347	6117.21
1514.978	6147.54
1519.604	6129.54
1524.226	6161.54
1528.844	6088.21
1533.457	6069.21
1538.065	6050.21
1542.669	6015.54
1547.269	6008.88
1551.864	6039.88
1556.454	6083.21
1561.041	6139.54
1565.622	6215.88
1570.199	6291.21
1574.772	6428.21
1579.34	6572.88
1583.904	6712.88
1588.464	6818.54
1593.019	6968.21
1597.569	7070.88
1602.115	7172.54
1606.657	7270.88
1611.195	7351.88
1615.728	7457.21
1620.256	7575.88
1624.78	7719.21
1629.3	7851.21
1633.816	7992.21
1638.327	8115.54
1642.834	8203.88
1647.336	8281.54
1651.834	8320.21
1656.328	8281.21
1660.817	8227.54
1665.302	8103.88
1669.783	7936.88
1674.259	7722.54
1678.732	7494.54
1683.199	7242.21
1687.663	6997.54
1692.122	6698.88
1696.577	6409.54
1701.028	6115.88
1705.474	5824.54
1709.917	5596.54
1714.355	5399.21
1718.788	5253.54
1723.218	5134.21
1727.643	5008.88
1732.064	4880.54
1736.481	4741.21
1740.893	4602.88
1745.301	4456.88
1749.705	4329.21
1754.105	4184.88
1758.501	4077.21
1762.893	3999.54
1767.28	3930.21
1771.663	3900.88
1776.042	3853.88
1780.417	3866.21
1784.787	3836.21
1789.154	3811.54
1793.516	3774.21
1797.874	3726.88
1802.228	3671.54
1806.578	3585.88
1810.924	3503.88
1815.266	3448.54
1819.603	3385.88
1823.937	3349.21
1828.266	3338.54
1832.591	3329.21
1836.913	3319.88
1841.23	3310.21
1845.543	3317.88
1849.852	3333.21
1854.156	3345.21
1858.457	3353.54
1862.754	3370.21
1867.047	3384.88
1871.335	3428.54
1875.62	3418.21
1879.9	3434.21
1884.177	3430.21
1888.449	3428.21
1892.718	3424.21
1896.982	3411.21
1901.243	3393.88
1905.499	3398.21
1909.752	3398.21
1914	3406.21
1918.245	3422.21
1922.485	3438.54
1926.722	3437.54
1930.954	3452.54
1935.183	3440.88
1939.408	3439.54
1943.628	3415.21
1947.845	3381.21
1952.058	3344.21
1956.267	3301.54
1960.472	3257.54
1964.673	3183.54
1968.87	3147.88
1973.063	3113.88
1977.252	3084.54
1981.438	3079.54
1985.619	3071.88
1989.797	3064.21
1993.971	3070.21
1998.14	3089.54
2002.306	3101.88
2006.469	3131.54
2010.627	3138.88
2014.781	3155.21
2018.932	3148.54
2023.078	3150.54
2027.221	3149.88
2031.36	3134.88
2035.495	3127.54
2039.627	3112.88
2043.754	3104.88
2047.878	3106.54
2051.998	3118.88
2056.114	3129.54
2060.226	3161.21
2064.334	3162.88
2068.439	3187.88
2072.54	3216.88
2076.637	3240.21
2080.73	3265.88
2084.82	3272.88
2088.906	3282.88
2092.988	3259.54
2097.066	3243.21
2101.14	3215.88
2105.211	3182.88
2109.278	3149.88
2113.342	3099.54
2117.401	3073.54
2121.457	3044.88
2125.509	3010.88
2129.558	2987.54
2133.602	2964.54
2137.643	2945.88
2141.681	2924.21
2145.714	2910.54
2149.744	2887.54
2153.77	2871.54
2157.793	2854.21
2161.812	2812.88
2165.827	2772.54
2169.838	2743.21
2173.846	2700.21
2177.851	2650.54
2181.851	2607.21
2185.848	2584.21
2189.841	2564.88
2193.831	2534.88
2197.817	2517.88
2201.799	2503.88
2205.778	2471.88
2209.753	2454.21
2213.725	2441.54
2217.693	2439.21
2221.657	2406.54
2225.618	2395.88
2229.575	2390.54
2233.529	2357.21
2237.479	2321.88
2241.425	2268.21
2245.368	2246.54
2249.307	2212.54
2253.243	2182.88
2257.175	2147.88
2261.104	2107.54
2265.029	2090.54
2268.95	2055.21
2272.868	2013.88
2276.783	1987.88
2280.694	1963.88
2284.601	1939.54
2288.505	1918.88
2292.405	1888.54
2296.302	1868.21
2300.195	1831.88
2304.085	1820.88
2307.971	1782.54
2311.854	1759.21
2315.734	1735.21
2319.609	1704.88
2323.482	1687.54
2327.351	1661.88
2331.216	1670.88
2335.078	1667.21
2338.937	1641.21
2342.792	1626.21
2346.643	1607.54
2350.492	1595.54
2354.336	1609.54
2358.178	1617.54
2362.015	1613.88
2365.85	1614.21
2369.681	1614.88
2373.508	1606.21
2377.333	1596.88
2381.153	1595.88
2384.971	1593.21
2388.785	1581.21
2392.595	1578.88
2396.402	1568.88
2400.206	1552.54
2404.007	1553.54
2407.804	1555.21
2411.597	1533.88
2415.388	1534.88
2419.174	1516.54
2422.958	1521.88
2426.738	1500.21
2430.515	1510.88
2434.289	1498.54
2438.059	1487.88
2441.825	1487.54
2445.589	1468.21
2449.349	1459.21
2453.106	1442.88
2456.859	1435.88
2460.61	1426.54
2464.356	1417.88
2468.1	1412.21
2471.84	1399.21
2475.577	1387.54
2479.311	1388.54
2483.041	1380.88
2486.768	1386.88
2490.492	1383.88
2494.213	1392.54
2497.93	1387.88
2501.644	1382.54
2505.355	1387.54
2509.062	1371.88
2512.766	1379.88
2516.467	1369.88
2520.165	1365.88
2523.859	1367.54
2527.551	1358.21
2531.239	1345.88
2534.923	1342.54
2538.605	1335.54
2542.283	1322.21
2545.958	1319.21
2549.63	1331.21
2553.299	1313.54
2556.964	1318.21
2560.626	1290.88
2564.285	1299.88
2567.941	1287.21
2571.594	1275.54
2575.243	1282.88
2578.89	1253.88
2582.533	1251.54
2586.173	1226.54
2589.809	1213.88
2593.443	1202.54
2597.073	1191.54
2600.701	1187.54
2604.325	1171.54
2607.946	1169.88
2611.564	1163.21
2615.178	1163.21
2618.79	1147.54
2622.398	1145.21
2626.004	1140.54
2629.606	1122.21
2633.205	1111.21
2636.801	1117.88
2640.394	1101.21
2643.983	1092.21
2647.57	1089.88
2651.153	1082.21
2654.734	1076.21
2658.311	1065.54
2661.885	1071.21
2665.456	1057.21
2669.025	1056.54
2672.589	1057.88
2676.151	1050.88
2679.71	1048.54
2683.266	1036.54
2686.819	1037.54
2690.368	1034.88
2693.915	1031.88
2697.458	1021.21
2700.999	1020.88
2704.536	1004.54
2708.071	1013.88
2711.602	1008.54
2715.13	997.88
2718.656	1006.88
2722.178	1006.21
2725.697	1013.21
2729.214	1021.21
2732.727	1029.88
2736.237	1039.21
2739.744	1049.21
2743.249	1056.21
2746.75	1046.54
2750.248	1055.88
2753.743	1052.21
2757.236	1034.54
2760.725	1039.54
2764.211	1026.21
2767.695	1013.88
2771.175	1016.21
2774.652	1011.54
2778.127	1008.54
2781.598	1016.88
2785.067	1022.54
2788.532	1032.21
2791.995	1052.88
2795.455	1055.54
2798.911	1077.88
2802.365	1086.54
2805.816	1096.21
2809.264	1111.88
2812.709	1122.54
2816.151	1138.88
2819.59	1137.21
2823.026	1154.88
2826.46	1160.88
2829.89	1169.21
2833.318	1180.88
2836.742	1198.88
2840.164	1197.54
2843.583	1217.88
2846.999	1229.21
2850.412	1239.88
2853.822	1269.54
2857.229	1273.88
2860.634	1287.88
2864.035	1304.88
2867.434	1326.54
2870.83	1335.54
2874.223	1348.88
2877.613	1370.21
2881	1379.54
2884.385	1388.21
2887.766	1392.21
2891.145	1406.88
2894.521	1428.21
2897.894	1433.21
2901.264	1445.54
2904.631	1467.88
2907.996	1487.21
2911.358	1501.88
2914.717	1522.54
2918.073	1561.54
2921.426	1581.88
2924.777	1614.88
2928.124	1641.54
2931.469	1684.88
2934.811	1707.88
2938.15	1750.88
2941.487	1786.21
2944.821	1812.21
2948.152	1852.88
2951.48	1877.88
2954.805	1901.54
2958.128	1953.88
2961.447	1981.21
2964.765	2027.88
2968.079	2071.54
2971.39	2131.54
2974.699	2180.88
2978.005	2235.54
2981.308	2296.88
2984.609	2346.21
2987.907	2419.54
2991.202	2486.54
2994.494	2538.54
2997.784	2611.21
3001.07	2682.88
3004.355	2745.54
3007.636	2808.88
3010.915	2853.54
3014.191	2904.21
3017.464	2963.88
3020.734	3007.54
3024.002	3056.54
3027.267	3110.21
3030.53	3172.54
3033.789	3241.54
3037.046	3298.21
3040.301	3387.54
3043.552	3469.54
3046.801	3574.88
3050.048	3671.88
3053.291	3766.88
3056.532	3889.54
3059.771	4008.21
3063.006	4126.21
3066.239	4261.21
3069.469	4388.21
3072.697	4515.54
3075.922	4618.88
3079.144	4757.21
3082.364	4866.21
3085.581	4982.54
3088.795	5122.88
3092.007	5234.54
3095.216	5341.88
3098.423	5469.54
3101.627	5595.88
3104.828	5732.54
3108.026	5838.21
3111.222	6005.21
3114.416	6116.21
3117.607	6258.54
3120.795	6405.88
3123.98	6569.54
3127.163	6701.21
3130.344	6862.21
3133.521	6997.54
3136.696	7156.54
3139.869	7279.54
3143.039	7408.21
3146.206	7514.54
3149.371	7620.54
3152.533	7690.21
3155.693	7764.21
3158.85	7800.54
3162.005	7873.88
3165.157	7895.88
3168.306	7927.88
3171.453	7959.21
3174.597	7994.54
3177.739	8032.21
3180.878	8032.54
3184.014	8088.21
3187.149	8114.88
3190.28	8157.21
3193.409	8157.54
3196.536	8203.54
3199.659	8231.54
3202.781	8271.88
3205.9	8313.54
3209.016	8291.21
3212.13	8296.88
3215.241	8288.21
3218.35	8253.88
3221.456	8203.88
3224.56	8125.88
3227.661	8090.21
3230.76	8052.88
3233.856	8002.88
3236.95	7941.21
3240.041	7868.54
3243.13	7860.54
3246.216	7801.54
3249.3	7777.21
3252.382	7749.88
3255.46	7729.54
3258.537	7712.54
3261.611	7662.54
3264.682	7655.88
3267.751	7611.88
3270.818	7594.54
3273.882	7528.88
3276.943	7514.54
3280.002	7441.88
3283.059	7372.88
3286.113	7273.54
3289.165	7173.54
3292.214	7073.21
3295.261	7001.88
3298.306	6908.54
3301.348	6815.88
3304.387	6723.54
3307.425	6636.88
3310.459	6553.21
3313.492	6490.54
3316.521	6413.88
3319.549	6375.54
3322.574	6344.21
3325.597	6298.54
3328.617	6248.21
3331.635	6232.54
3334.65	6207.21
3337.663	6164.54
3340.674	6163.88
3343.682	6163.88
3346.688	6131.54
3349.691	6112.88
3352.692	6099.21
3355.691	6062.21
3358.687	6034.88
3361.681	5967.54
3364.673	5914.88
3367.662	5849.21
3370.649	5780.21
3373.633	5737.21
3376.615	5672.21
3379.595	5600.88
3382.572	5547.21
3385.547	5501.88
3388.52	5425.88
3391.49	5379.21
3394.458	5320.54
3397.424	5276.54
3400.387	5229.54
3403.348	5173.54
3406.307	5140.54
3409.263	5105.54
3412.217	5060.88
3415.168	4998.54
3418.118	4962.21
3421.065	4941.21
3424.009	4883.21
3426.951	4821.54
3429.891	4767.88
3432.829	4693.21
3435.764	4649.21
3438.697	4539.88
3441.628	4456.21
3444.557	4387.88
3447.483	4283.54
3450.407	4204.21
3453.328	4106.54
3456.247	3990.21
3459.164	3909.54
3462.079	3820.54
3464.991	3733.88
3467.902	3643.21
3470.809	3561.88
3473.715	3491.54
3476.618	3409.88
3479.519	3333.54
3482.418	3257.21
3485.315	3191.88
3488.209	3123.88
3491.101	3060.21
3493.99	3002.54
3496.878	2939.54
3499.763	2863.88
3502.646	2793.21
3505.527	2724.21
3508.405	2651.88
3511.281	2573.54
3514.155	2500.54
3517.027	2420.88
3519.897	2334.21
3522.764	2251.54
3525.629	2177.21
3528.492	2098.54
3531.352	2016.21
3534.211	1951.21
3537.067	1874.54
3539.921	1811.21
3542.773	1745.54
3545.622	1693.54
3548.469	1615.88
3551.315	1570.21
3554.157	1520.54
3556.998	1462.54
3559.837	1425.88
3562.673	1381.54
3565.507	1344.21
3568.339	1288.88
3571.169	1256.88
3573.996	1219.88
3576.822	1175.88
3579.645	1140.88
3582.466	1099.88
3585.285	1050.88
3588.101	1025.21
3590.916	993.21
3593.728	955.88
3596.538	916.21
3599.346	883.21
3602.152	853.54
3604.956	821.88
3607.757	785.88
3610.556	752.21
3613.354	731.54
3616.149	710.21
3618.942	679.88
3621.732	656.88
3624.521	639.88
3627.307	614.88
3630.092	594.88
3632.874	584.88
3635.654	562.21
3638.432	541.21
3641.208	524.54
3643.982	507.88
3646.753	488.88
3649.523	465.88
3652.29	451.54
3655.055	432.88
3657.818	412.54
3660.579	396.54
3663.338	382.21
3666.095	371.88
3668.849	344.54
3671.602	331.88
3674.352	320.54
3677.101	305.21
3679.847	292.54
3682.591	278.88
3685.333	268.54
3688.073	258.21
3690.811	250.54
3693.547	246.54
3696.281	229.54
3699.013	219.21
3701.742	216.54
3704.47	214.54
3707.195	202.88
3709.919	190.21
3712.64	187.54
3715.359	183.21
3718.076	170.88
3720.792	167.54
3723.505	160.54
3726.216	154.21
3728.925	149.21
3731.632	142.21
3734.336	139.21
3737.039	133.88
3739.74	127.88
3742.439	125.88
3745.136	117.21
3747.83	114.54
3750.523	113.21
3753.213	101.54
3755.902	103.21
3758.589	104.88
3761.273	101.88
3763.956	98.21
3766.636	95.54
3769.315	93.88
3771.991	87.88
3774.665	82.21
3777.338	82.88
3780.008	82.54
3782.677	82.88
3785.343	80.54
3788.007	73.21
3790.67	77.21
3793.33	76.21
3795.989	65.88
3798.645	68.21
3801.299	67.54
3803.952	63.54
3806.602	61.88
3809.251	67.54
3811.897	60.54
3814.542	65.21
3817.184	62.21
3819.825	58.88
3822.463	58.54
3825.1	54.88
3827.735	55.88
3830.367	53.54
3832.998	51.88
3835.627	50.21
3838.253	50.54
3840.878	43.88
3843.501	47.21
3846.122	47.54
3848.741	45.21
3851.358	43.54
3853.973	50.54
3856.586	43.54
3859.197	47.21
3861.806	39.21
3864.414	37.54
3867.019	48.21
3869.622	43.88
3872.224	52.21
3874.823	68.88
3877.421	80.54
3880.016	99.54
3882.61	113.88
3885.202	117.21
3887.792	103.21
3890.38	71.88
3892.966	27.21
3895.55	30.88
3898.132	35.88
3900.713	28.54
3903.291	28.88
3905.868	34.54
3908.442	28.88
3911.015	29.54
3913.586	29.54
3916.155	28.88
3918.722	22.88
3921.287	20.21
3923.85	22.21
3926.411	25.88
3928.971	24.54
3931.528	20.54
3934.084	26.88
3936.638	19.54
3939.19	21.88
3941.74	22.54
3944.288	26.54
3946.834	21.54
3949.378	22.21
3951.921	21.88
3954.462	23.54
3957	27.54
3959.537	24.88
3962.072	27.21
3964.606	24.21
3967.137	29.54
3969.667	26.88
3972.194	24.54
3974.72	26.54
3977.244	33.54
3979.766	34.88
3982.286	33.88
3984.805	31.88
3987.321	41.54
3989.836	38.21
3992.349	41.54
3994.86	38.54
3997.369	38.21
3999.877	37.88
4002.382	36.21
4004.886	33.88
4007.388	36.54
4009.888	36.54
4012.386	34.21
4014.883	35.54
4017.377	33.88
4019.87	33.54
4022.361	34.54
4024.85	32.21
4027.338	32.88
4029.823	34.54
4032.307	33.21
4034.789	29.54
4037.269	32.54
4039.747	29.21
4042.224	29.21
4044.699	31.88
4047.172	26.54
4049.643	28.88
4052.112	28.54
4054.58	29.54
4057.046	25.21
4059.51	27.21
4061.972	25.88
4064.432	28.21
4066.891	26.88
4069.348	27.88
4071.803	26.21
4074.256	27.21
4076.708	27.88
4079.158	26.54
4081.606	27.54
4084.052	25.88
4086.497	28.21
4088.939	28.54
4091.38	34.88
4093.819	31.88
4096.257	6.21
4098.693	-0.46
4101.127	-4.46
4103.559	0.54
4105.989	293.54
4108.418	305.21
4110.845	332.21
4113.27	362.54
4115.694	398.54
4118.115	452.21
4120.535	29.21
4122.954	30.88
4125.37	28.21
4127.785	27.21
4130.198	27.88
4132.609	29.88
4135.019	-2.79
4137.427	0.54
4139.833	1.54
4142.237	-1.12
