160.701	598.21
166.742	781.21
172.777	1331.88
178.805	3051.21
184.826	7392.54
190.841	15257.54
196.849	24861.54
202.85	31915.88
208.845	33960.88
214.833	33033.88
220.815	31751.54
226.789	30827.54
232.758	29940.54
238.719	29027.54
244.674	27942.54
250.623	26818.21
256.565	25566.54
262.5	24443.54
268.429	23356.88
274.351	22456.21
280.267	21582.88
286.176	20863.21
292.079	20251.88
297.975	19605.21
303.865	19071.21
309.748	18634.21
315.625	18271.21
321.495	17966.21
327.359	17723.54
333.217	17553.87
339.068	17442.54
344.912	17372.54
350.751	17282.88
356.583	17260.54
362.408	17253.54
368.227	17289.21
374.04	17424.21
379.847	17612.88
385.647	17792.88
391.44	17761.88
397.228	17655.54
403.009	17700.21
408.784	17934.88
414.553	18431.21
420.315	19017.88
426.071	19205.21
431.821	18620.21
437.565	17942.21
443.302	17745.88
449.033	17569.54
454.758	17459.88
460.477	17328.21
466.189	17215.21
471.896	17083.88
477.596	16966.21
483.29	16857.54
488.978	16783.54
494.66	16633.21
500.335	16459.87
506.005	16137.54
511.668	15770.54
517.325	15476.21
522.977	15187.54
528.622	14972.54
534.261	14790.54
539.894	14575.21
545.521	14446.21
551.141	14342.88
556.756	14271.21
562.365	14153.88
567.968	14050.54
573.565	13927.88
579.155	13846.21
584.74	13730.21
590.319	13584.88
595.892	13480.21
601.459	13370.21
607.02	13261.88
612.575	13118.21
618.124	12971.54
623.667	12860.88
629.204	12727.54
634.735	12679.54
640.261	12688.88
645.781	12795.54
651.294	12816.21
656.802	12644.88
662.304	12376.88
667.8	12168.21
673.29	12075.54
678.775	11989.88
684.254	11885.21
689.726	11784.54
695.193	11704.21
700.655	11597.54
706.11	11516.21
711.56	11361.88
717.004	11270.54
722.442	11199.88
727.874	11108.21
733.301	11046.54
738.722	10969.54
744.137	10947.54
749.547	10940.54
754.951	10940.88
760.349	10844.54
765.741	10771.54
771.128	10682.54
776.509	10664.88
781.885	10608.88
787.254	10536.54
792.618	10485.88
797.977	10363.88
803.33	10247.54
808.677	10131.21
814.019	10029.88
819.355	9887.88
824.686	9766.88
830.011	9653.54
835.33	9614.88
840.644	9502.88
845.952	9445.88
851.255	9373.88
856.552	9294.88
861.844	9226.21
867.13	9103.88
872.41	9002.21
877.686	8904.54
882.955	8744.88
888.219	8636.54
893.478	8481.54
898.731	8335.21
903.979	8220.21
909.221	8136.54
914.458	8064.88
919.69	7988.88
924.916	7957.21
930.136	7930.54
935.351	7901.88
940.561	7851.21
945.766	7830.54
950.965	7745.54
956.158	7680.21
961.347	7570.88
966.529	7479.88
971.707	7367.21
976.879	7242.54
982.046	7159.88
987.208	7116.88
992.364	7095.88
997.515	7124.54
1002.66	7157.54
1007.801	7190.88
1012.936	7240.54
1018.066	7270.88
1023.19	7303.88
1028.309	7316.54
1033.423	7269.88
1038.532	7231.88
1043.636	7153.88
1048.734	7084.21
1053.827	7034.21
1058.915	6966.88
1063.998	6900.21
1069.075	6889.88
1074.147	6884.88
1079.214	6906.88
1084.276	6929.21
1089.333	6945.88
1094.385	6994.88
1099.431	7011.88
1104.472	6993.54
1109.509	6967.54
1114.54	6889.54
1119.565	6817.21
1124.586	6720.88
1129.602	6639.88
1134.613	6615.54
1139.618	6598.21
1144.619	6560.88
1149.614	6590.88
1154.604	6611.54
1159.589	6631.21
1164.57	6661.54
1169.545	6660.21
1174.515	6689.88
1179.48	6666.88
1184.44	6627.21
1189.395	6583.21
1194.345	6523.21
1199.29	6497.88
1204.23	6506.21
1209.165	6517.21
1214.095	6552.54
1219.021	6586.54
1223.941	6630.54
1228.856	6675.21
1233.766	6677.21
1238.672	6697.88
1243.572	6668.54
1248.467	6632.54
1253.358	6559.54
1258.244	6468.54
1263.124	6381.21
1268	6291.88
1272.871	6224.54
1277.737	6179.88
1282.599	6174.21
1287.455	6178.88
1292.306	6181.88
1297.153	6218.54
1301.995	6267.88
1306.832	6309.88
1311.664	6330.54
1316.491	6334.88
1321.314	6331.21
1326.132	6268.54
1330.945	6239.54
1335.753	6183.88
1340.556	6138.88
1345.354	6083.21
1350.148	6046.21
1354.937	6007.88
1359.722	5921.88
1364.501	5861.88
1369.276	5807.21
1374.046	5726.88
1378.811	5646.54
1383.572	5601.54
1388.327	5545.88
1393.079	5490.88
1397.825	5476.88
1402.567	5429.88
1407.304	5409.54
1412.036	5385.54
1416.764	5392.21
1421.487	5382.54
1426.205	5400.88
1430.919	5449.21
1435.628	5510.54
1440.333	5549.54
1445.032	5581.21
1449.727	5624.21
1454.418	5646.88
1459.104	5648.54
1463.785	5627.54
1468.462	5596.88
1473.134	5567.21
1477.802	5578.54
1482.465	5557.54
1487.123	5563.88
1491.777	5599.54
1496.426	5637.88
1501.071	5701.21
1505.711	5738.54
1510.347	5783.21
1514.978	5840.54
1519.604	5826.88
1524.226	5818.54
1528.844	5775.21
1533.457	5749.21
1538.065	5724.54
1542.669	5715.21
1547.269	5715.54
1551.864	5739.54
1556.454	5797.54
1561.041	5871.21
1565.622	5950.54
1570.199	6043.54
1574.772	6162.88
1579.34	6313.54
1583.904	6436.54
1588.464	6618.21
1593.019	6736.21
1597.569	6863.21
1602.115	6983.54
1606.657	7092.54
1611.195	7211.21
1615.728	7333.88
1620.256	7467.88
1624.78	7641.88
1629.3	7775.88
1633.816	7933.54
1638.327	8061.21
1642.834	8176.21
1647.336	8261.21
1651.834	8282.21
1656.328	8263.21
1660.817	8195.54
1665.302	8068.21
1669.783	7884.21
1674.259	7660.21
1678.732	7434.54
1683.199	7183.21
1687.663	6920.88
1692.122	6624.21
1696.577	6319.21
1701.028	6032.88
1705.474	5726.21
1709.917	5453.88
1714.355	5220.54
1718.788	5045.88
1723.218	4920.21
1727.643	4772.54
1732.064	4618.21
1736.481	4481.88
1740.893	4338.54
1745.301	4195.21
1749.705	4037.21
1754.105	3920.54
1758.501	3813.21
1762.893	3701.54
1767.28	3654.54
1771.663	3622.54
1776.042	3574.88
1780.417	3581.21
1784.787	3565.21
1789.154	3573.88
1793.516	3527.21
1797.874	3477.54
1802.228	3403.54
1806.578	3314.54
1810.924	3217.88
1815.266	3153.88
1819.603	3101.21
1823.937	3068.21
1828.266	3044.54
1832.591	3026.88
1836.913	3021.21
1841.23	3014.88
1845.543	3027.54
1849.852	3031.54
1854.156	3042.88
1858.457	3073.21
1862.754	3086.88
1867.047	3082.88
1871.335	3096.88
1875.62	3134.54
1879.9	3140.88
1884.177	3144.54
1888.449	3127.88
1892.718	3129.88
1896.982	3128.21
1901.243	3128.88
1905.499	3135.88
1909.752	3131.21
1914	3129.54
1918.245	3154.54
1922.485	3172.54
1926.722	3184.54
1930.954	3193.21
1935.183	3187.88
1939.408	3186.54
1943.628	3165.21
1947.845	3140.88
1952.058	3110.88
1956.267	3055.88
1960.472	3018.88
1964.673	2969.54
1968.87	2938.21
1973.063	2902.88
1977.252	2877.21
1981.438	2875.21
1985.619	2858.21
1989.797	2862.88
1993.971	2884.54
1998.14	2885.54
2002.306	2908.88
2006.469	2938.88
2010.627	2943.54
2014.781	2968.88
2018.932	2970.54
2023.078	2972.54
2027.221	2971.88
2031.36	2970.21
2035.495	2950.54
2039.627	2947.54
2043.754	2945.54
2047.878	2923.88
2051.998	2964.54
2056.114	2974.54
2060.226	3006.54
2064.334	3020.21
2068.439	3055.21
2072.54	3079.21
2076.637	3104.21
2080.73	3118.54
2084.82	3142.54
2088.906	3129.54
2092.988	3129.54
2097.066	3108.21
2101.14	3083.88
2105.211	3058.21
2109.278	3019.21
2113.342	2984.88
2117.401	2954.88
2121.457	2928.21
2125.509	2898.88
2129.558	2875.21
2133.602	2853.88
2137.643	2837.21
2141.681	2808.21
2145.714	2799.88
2149.744	2779.88
2153.77	2766.54
2157.793	2743.21
2161.812	2716.21
2165.827	2670.88
2169.838	2620.21
2173.846	2595.88
2177.851	2545.54
2181.851	2511.54
2185.848	2484.88
2189.841	2453.88
2193.831	2428.54
2197.817	2402.88
2201.799	2393.54
2205.778	2362.21
2209.753	2353.88
2213.725	2335.54
2217.693	2325.88
2221.657	2314.54
2225.618	2299.21
2229.575	2283.21
2233.529	2254.21
2237.479	2207.54
2241.425	2173.54
2245.368	2147.54
2249.307	2122.88
2253.243	2080.54
2257.175	2046.21
2261.104	2020.54
2265.029	1982.21
2268.95	1960.21
2272.868	1933.88
2276.783	1908.21
2280.694	1865.88
2284.601	1844.54
2288.505	1835.21
2292.405	1795.54
2296.302	1786.88
2300.195	1745.54
2304.085	1732.88
2307.971	1705.88
2311.854	1684.88
2315.734	1649.21
2319.609	1611.88
2323.482	1590.54
2327.351	1588.88
2331.216	1584.88
2335.078	1579.54
2338.937	1543.88
2342.792	1528.88
2346.643	1516.21
2350.492	1517.54
2354.336	1510.21
2358.178	1524.21
2362.015	1524.21
2365.85	1510.88
2369.681	1514.54
2373.508	1510.21
2377.333	1512.21
2381.153	1500.54
2384.971	1485.54
2388.785	1495.21
2392.595	1475.54
2396.402	1474.88
2400.206	1457.88
2404.007	1450.21
2407.804	1440.88
2411.597	1441.21
2415.388	1436.88
2419.174	1425.54
2422.958	1429.54
2426.738	1414.88
2430.515	1420.21
2434.289	1400.54
2438.059	1390.21
2441.825	1396.88
2445.589	1387.54
2449.349	1382.54
2453.106	1364.21
2456.859	1359.21
2460.61	1356.54
2464.356	1348.54
2468.1	1337.54
2471.84	1326.21
2475.577	1326.21
2479.311	1318.21
2483.041	1327.21
2486.768	1321.21
2490.492	1320.88
2494.213	1321.54
2497.93	1318.21
2501.644	1321.88
2505.355	1313.54
2509.062	1318.54
2512.766	1305.54
2516.467	1312.54
2520.165	1300.88
2523.859	1296.88
2527.551	1280.54
2531.239	1273.54
2534.923	1267.54
2538.605	1278.21
2542.283	1254.21
2545.958	1250.54
2549.63	1246.21
2553.299	1233.21
2556.964	1230.88
2560.626	1226.21
2564.285	1222.21
2567.941	1205.21
2571.594	1191.54
2575.243	1186.88
2578.89	1182.54
2582.533	1167.88
2586.173	1155.54
2589.809	1142.54
2593.443	1128.54
2597.073	1114.54
2600.701	1105.54
2604.325	1096.88
2607.946	1096.54
2611.564	1089.21
2615.178	1088.88
2618.79	1078.21
2622.398	1083.54
2626.004	1075.21
2629.606	1059.54
2633.205	1054.54
2636.801	1054.21
2640.394	1042.88
2643.983	1038.88
2647.57	1033.88
2651.153	1021.88
2654.734	1019.21
2658.311	1009.21
2661.885	1014.88
2665.456	1003.21
2669.025	1002.21
2672.589	1003.54
2676.151	998.21
2679.71	997.88
2683.266	991.21
2686.819	994.54
2690.368	988.21
2693.915	983.21
2697.458	982.21
2700.999	971.54
2704.536	976.54
2708.071	968.21
2711.602	955.88
2715.13	959.54
2718.656	964.21
2722.178	977.88
2725.697	979.54
2729.214	988.88
2732.727	992.88
2736.237	1008.88
2739.744	1026.54
2743.249	1027.54
2746.75	1035.54
2750.248	1028.21
2753.743	1024.21
2757.236	1023.21
2760.725	1018.54
2764.211	1009.88
2767.695	997.21
2771.175	994.88
2774.652	1001.21
2778.127	997.54
2781.598	1005.88
2785.067	1018.54
2788.532	1021.54
2791.995	1039.88
2795.455	1050.54
2798.911	1068.21
2802.365	1083.54
2805.816	1096.54
2809.264	1115.21
2812.709	1127.88
2816.151	1131.88
2819.59	1149.88
2823.026	1161.54
2826.46	1170.54
2829.89	1174.88
2833.318	1196.88
2836.742	1202.88
2840.164	1208.54
2843.583	1228.21
2846.999	1248.88
2850.412	1265.21
2853.822	1285.54
2857.229	1292.21
2860.634	1321.21
2864.035	1339.54
2867.434	1352.88
2870.83	1379.21
2874.223	1389.21
2877.613	1405.88
2881	1414.54
2884.385	1431.88
2887.766	1438.21
2891.145	1465.54
2894.521	1464.88
2897.894	1498.54
2901.264	1507.21
2904.631	1530.21
2907.996	1544.54
2911.358	1570.88
2914.717	1599.54
2918.073	1626.54
2921.426	1664.21
2924.777	1676.88
2928.124	1725.88
2931.469	1768.88
2934.811	1792.21
2938.15	1840.21
2941.487	1879.54
2944.821	1922.88
2948.152	1959.88
2951.48	1991.21
2954.805	2034.21
2958.128	2078.88
2961.447	2117.21
2964.765	2169.54
2968.079	2214.21
2971.39	2277.21
2974.699	2331.21
2978.005	2403.21
2981.308	2466.54
2984.609	2524.54
2987.907	2610.21
2991.202	2679.88
2994.494	2751.54
2997.784	2827.21
3001.07	2910.21
3004.355	2964.88
3007.636	3033.88
3010.915	3100.88
3014.191	3150.54
3017.464	3209.88
3020.734	3255.21
3024.002	3314.54
3027.267	3380.88
3030.53	3451.88
3033.789	3511.54
3037.046	3607.88
3040.301	3690.54
3043.552	3770.54
3046.801	3861.21
3050.048	3990.88
3053.291	4095.21
3056.532	4208.88
3059.771	4343.88
3063.006	4484.88
3066.239	4612.88
3069.469	4764.88
3072.697	4902.54
3075.922	5046.21
3079.144	5168.21
3082.364	5305.88
3085.581	5417.54
3088.795	5568.21
3092.007	5707.88
3095.216	5845.54
3098.423	5990.88
3101.627	6117.88
3104.828	6262.54
3108.026	6413.88
3111.222	6543.88
3114.416	6679.21
3117.607	6858.88
3120.795	7008.21
3123.98	7191.88
3127.163	7337.54
3130.344	7516.54
3133.521	7669.88
3136.696	7842.54
3139.869	7980.54
3143.039	8105.21
3146.206	8280.88
3149.371	8362.54
3152.533	8457.54
3155.693	8510.88
3158.85	8583.88
3162.005	8634.88
3165.157	8709.21
3168.306	8753.88
3171.453	8774.88
3174.597	8801.88
3177.739	8855.88
3180.878	8892.88
3184.014	8917.21
3187.149	8982.21
3190.28	9004.54
3193.409	9071.21
3196.536	9105.21
3199.659	9090.88
3202.781	9167.54
3205.9	9188.21
3209.016	9213.21
3212.13	9210.88
3215.241	9207.21
3218.35	9150.54
3221.456	9112.21
3224.56	9081.54
3227.661	9027.21
3230.76	8959.54
3233.856	8899.88
3236.95	8864.88
3240.041	8828.54
3243.13	8783.88
3246.216	8734.88
3249.3	8702.54
3252.382	8680.21
3255.46	8649.54
3258.537	8670.21
3261.611	8612.88
3264.682	8566.54
3267.751	8553.88
3270.818	8525.21
3273.882	8491.88
3276.943	8423.54
3280.002	8337.21
3283.059	8253.21
3286.113	8178.88
3289.165	8065.54
3292.214	7960.21
3295.261	7846.88
3298.306	7713.88
3301.348	7597.88
3304.387	7492.88
3307.425	7414.21
3310.459	7321.88
3313.492	7241.88
3316.521	7141.21
3319.549	7090.88
3322.574	7053.88
3325.597	6993.88
3328.617	6948.21
3331.635	6930.88
3334.65	6912.54
3337.663	6849.88
3340.674	6832.54
3343.682	6820.88
3346.688	6799.88
3349.691	6782.21
3352.692	6754.88
3355.691	6730.21
3358.687	6702.54
3361.681	6633.21
3364.673	6572.88
3367.662	6487.88
3370.649	6438.88
3373.633	6366.21
3376.615	6281.54
3379.595	6224.54
3382.572	6159.54
3385.547	6116.54
3388.52	6043.54
3391.49	5986.54
3394.458	5931.21
3397.424	5875.21
3400.387	5817.21
3403.348	5765.21
3406.307	5709.54
3409.263	5677.21
3412.217	5640.88
3415.168	5584.54
3418.118	5549.88
3421.065	5491.88
3424.009	5457.21
3426.951	5395.54
3429.891	5326.21
3432.829	5257.21
3435.764	5191.88
3438.697	5077.54
3441.628	4992.88
3444.557	4894.21
3447.483	4788.54
3450.407	4696.54
3453.328	4599.54
3456.247	4484.88
3459.164	4397.54
3462.079	4286.88
3464.991	4186.88
3467.902	4088.87
3470.809	3992.21
3473.715	3897.54
3476.618	3824.88
3479.519	3745.21
3482.418	3648.54
3485.315	3583.54
3488.209	3509.54
3491.101	3450.21
3493.99	3376.21
3496.878	3307.21
3499.763	3227.54
3502.646	3166.21
3505.527	3092.54
3508.405	2985.88
3511.281	2900.88
3514.155	2825.54
3517.027	2725.21
3519.897	2641.21
3522.764	2547.88
3525.629	2460.88
3528.492	2380.21
3531.352	2284.21
3534.211	2191.88
3537.067	2132.88
3539.921	2043.88
3542.773	1975.21
3545.622	1891.88
3548.469	1832.21
3551.315	1772.21
3554.157	1704.88
3556.998	1651.88
3559.837	1612.88
3562.673	1552.88
3565.507	1516.21
3568.339	1461.88
3571.169	1425.88
3573.996	1370.21
3576.822	1331.54
3579.645	1284.88
3582.466	1237.88
3585.285	1191.88
3588.101	1153.21
3590.916	1117.21
3593.728	1072.88
3596.538	1039.21
3599.346	998.54
3602.152	956.21
3604.956	924.88
3607.757	893.54
3610.556	847.54
3613.354	823.21
3616.149	796.54
3618.942	763.88
3621.732	746.54
3624.521	717.21
3627.307	690.88
3630.092	672.88
3632.874	658.54
3635.654	628.88
3638.432	612.54
3641.208	586.88
3643.982	567.88
3646.753	550.54
3649.523	521.54
3652.29	505.21
3655.055	484.88
3657.818	456.21
3660.579	442.21
3663.338	425.88
3666.095	407.88
3668.849	389.54
3671.602	380.21
3674.352	360.54
3677.101	340.88
3679.847	323.21
3682.591	309.88
3685.333	300.54
3688.073	287.21
3690.811	281.88
3693.547	277.21
3696.281	257.54
3699.013	244.88
3701.742	235.21
3704.47	234.88
3707.195	219.21
3709.919	211.54
3712.64	204.88
3715.359	193.54
3718.076	189.21
3720.792	182.21
3723.505	175.21
3726.216	161.88
3728.925	158.54
3731.632	155.21
3734.336	156.54
3737.039	146.54
3739.74	139.21
3742.439	133.88
3745.136	131.54
3747.83	126.88
3750.523	126.54
3753.213	92.21
3755.902	115.88
3758.589	113.54
3761.273	111.54
3763.956	111.21
3766.636	104.88
3769.315	103.88
3771.991	96.88
3774.665	95.54
3777.338	92.88
3780.008	92.21
3782.677	91.21
3785.343	85.21
3788.007	82.21
3790.67	84.54
3793.33	81.54
3795.989	75.21
3798.645	75.54
3801.299	72.88
3803.952	71.54
3806.602	70.21
3809.251	69.88
3811.897	63.54
3814.542	68.21
3817.184	63.21
3819.825	63.21
3822.463	61.21
3825.1	55.88
3827.735	60.54
3830.367	57.88
3832.998	55.54
3835.627	58.54
3838.253	54.21
3840.878	50.21
3843.501	49.88
3846.122	49.21
3848.741	47.88
3851.358	49.21
3853.973	51.54
3856.586	49.88
3859.197	46.54
3861.806	41.88
3864.414	42.54
3867.019	50.88
3869.622	54.21
3872.224	61.88
3874.823	83.88
3877.421	107.88
3880.016	142.54
3882.61	178.88
3885.202	188.21
3887.792	162.88
3890.38	107.21
3892.966	46.54
3895.55	38.88
3898.132	40.54
3900.713	33.88
3903.291	33.88
3905.868	32.88
3908.442	30.54
3911.015	31.88
3913.586	33.54
3916.155	29.54
3918.722	28.54
3921.287	24.88
3923.85	29.88
3926.411	26.88
3928.971	24.21
3931.528	23.88
3934.084	23.88
3936.638	23.54
3939.19	21.88
3941.74	23.21
3944.288	25.54
3946.834	23.21
3949.378	24.21
3951.921	18.88
3954.462	25.54
3957	27.88
3959.537	33.21
3962.072	35.88
3964.606	29.88
3967.137	27.88
3969.667	27.88
3972.194	29.21
3974.72	28.88
3977.244	33.21
3979.766	38.21
3982.286	36.88
3984.805	40.54
3987.321	38.21
3989.836	40.88
3992.349	40.88
3994.86	40.88
3997.369	42.21
3999.877	39.54
4002.382	35.88
4004.886	35.88
4007.388	39.54
4009.888	38.88
4012.386	36.54
4014.883	35.88
4017.377	35.88
4019.87	35.88
4022.361	34.88
4024.85	29.21
4027.338	35.21
4029.823	36.88
4032.307	33.54
4034.789	31.54
4037.269	32.21
4039.747	34.54
4042.224	27.54
4044.699	29.54
4047.172	27.21
4049.643	27.88
4052.112	28.54
4054.58	27.21
4057.046	28.88
4059.51	25.54
4061.972	27.54
4064.432	27.54
4066.891	25.88
4069.348	28.88
4071.803	26.21
4074.256	28.21
4076.708	26.54
4079.158	27.88
4081.606	26.54
4084.052	29.88
4086.497	28.21
4088.939	27.88
4091.38	33.88
4093.819	31.54
4096.257	2.88
4098.693	-0.12
4101.127	-0.46
4103.559	-0.46
4105.989	374.21
4108.418	377.21
4110.845	408.88
4113.27	431.54
4115.694	461.54
4118.115	524.88
4120.535	30.21
4122.954	28.88
4125.37	29.88
4127.785	24.88
4130.198	27.88
4132.609	27.88
4135.019	-4.12
4137.427	0.54
4139.833	0.88
4142.237	0.88
