160.701	594.92
166.742	778.92
172.777	1334.25
178.805	3095.58
184.826	7502.92
190.841	15549.25
196.849	25357.92
202.85	32509.25
208.845	34656.92
214.833	33744.58
220.815	32357.58
226.789	31439.92
232.758	30442.25
238.719	29575.58
244.674	28474.92
250.623	27246.58
256.565	26004.25
262.5	24807.92
268.429	23662.58
274.351	22751.92
280.267	21872.58
286.176	21094.25
292.079	20414.58
297.975	19800.58
303.865	19233.92
309.748	18799.58
315.625	18389.58
321.495	18086.58
327.359	17859.25
333.217	17727.58
339.068	17537.58
344.912	17495.58
350.751	17422.92
356.583	17403.25
362.408	17389.92
368.227	17433.58
374.04	17533.92
379.847	17733.25
385.647	17932.92
391.44	17869.25
397.228	17797.58
403.009	17851.58
408.784	18080.58
414.553	18611.58
420.315	19218.92
426.071	19354.58
431.821	18755.92
437.565	18097.92
443.302	17882.92
449.033	17708.25
454.758	17610.25
460.477	17484.92
466.189	17369.92
471.896	17243.92
477.596	17126.58
483.29	17004.25
488.978	16912.58
494.66	16759.92
500.335	16555.92
506.005	16263.58
511.668	15922.92
517.325	15571.92
522.977	15309.92
528.622	15094.25
534.261	14887.92
539.894	14705.25
545.521	14572.25
551.141	14480.58
556.756	14355.58
562.365	14275.58
567.968	14139.25
573.565	14014.92
579.155	13943.92
584.74	13855.92
590.319	13713.58
595.892	13597.25
601.459	13500.58
607.02	13354.25
612.575	13220.58
618.124	13080.92
623.667	12919.58
629.204	12821.25
634.735	12756.25
640.261	12768.58
645.781	12891.58
651.294	12880.58
656.802	12744.92
662.304	12433.92
667.8	12234.25
673.29	12123.92
678.775	12027.58
684.254	11948.25
689.726	11871.25
695.193	11766.58
700.655	11667.92
706.11	11532.58
711.56	11433.58
717.004	11314.25
722.442	11268.25
727.874	11190.92
733.301	11089.58
738.722	11041.58
744.137	10989.92
749.547	10991.58
754.951	10975.58
760.349	10925.25
765.741	10809.58
771.128	10755.58
776.509	10674.25
781.885	10645.25
787.254	10596.58
792.618	10512.25
797.977	10405.58
803.33	10315.92
808.677	10169.25
814.019	10050.58
819.355	9927.92
824.686	9796.58
830.011	9706.25
835.33	9617.92
840.644	9526.58
845.952	9456.92
851.255	9386.58
856.552	9306.58
861.844	9210.92
867.13	9122.92
872.41	9015.25
877.686	8911.92
882.955	8767.92
888.219	8621.58
893.478	8482.25
898.731	8361.58
903.979	8194.58
909.221	8128.25
914.458	8029.25
919.69	7990.25
924.916	7954.92
930.136	7929.25
935.351	7880.58
940.561	7854.92
945.766	7797.25
950.965	7734.58
956.158	7661.25
961.347	7563.92
966.529	7439.58
971.707	7340.58
976.879	7203.58
982.046	7154.58
987.208	7097.92
992.364	7065.25
997.515	7086.25
1002.66	7109.92
1007.801	7154.58
1012.936	7210.25
1018.066	7239.58
1023.19	7244.58
1028.309	7269.58
1033.423	7238.92
1038.532	7187.58
1043.636	7110.25
1048.734	7045.25
1053.827	6957.92
1058.915	6911.58
1063.998	6864.92
1069.075	6843.58
1074.147	6827.25
1079.214	6861.92
1084.276	6883.92
1089.333	6899.25
1094.385	6922.92
1099.431	6966.92
1104.472	6961.92
1109.509	6918.58
1114.54	6825.58
1119.565	6740.92
1124.586	6660.25
1129.602	6597.58
1134.613	6545.92
1139.618	6505.25
1144.619	6524.25
1149.614	6524.58
1154.604	6578.92
1159.589	6563.58
1164.57	6602.25
1169.545	6602.92
1174.515	6622.58
1179.48	6564.25
1184.44	6547.25
1189.395	6478.58
1194.345	6426.92
1199.29	6427.25
1204.23	6428.92
1209.165	6440.25
1214.095	6482.92
1219.021	6506.25
1223.941	6563.58
1228.856	6580.25
1233.766	6589.92
1238.672	6586.92
1243.572	6572.92
1248.467	6522.58
1253.358	6457.25
1258.244	6364.92
1263.124	6264.25
1268	6153.58
1272.871	6106.92
1277.737	6043.25
1282.599	6021.58
1287.455	6023.58
1292.306	6043.58
1297.153	6093.92
1301.995	6118.25
1306.832	6130.92
1311.664	6161.58
1316.491	6171.58
1321.314	6118.25
1326.132	6086.58
1330.945	6040.92
1335.753	5975.92
1340.556	5943.92
1345.354	5892.58
1350.148	5836.25
1354.937	5780.92
1359.722	5698.58
1364.501	5661.92
1369.276	5576.58
1374.046	5508.58
1378.811	5456.58
1383.572	5392.25
1388.327	5366.58
1393.079	5319.25
1397.825	5288.92
1402.567	5238.58
1407.304	5223.25
1412.036	5186.58
1416.764	5220.58
1421.487	5215.92
1426.205	5251.25
1430.919	5267.92
1435.628	5329.25
1440.333	5368.58
1445.032	5424.92
1449.727	5465.92
1454.418	5467.58
1459.104	5461.25
1463.785	5451.58
1468.462	5421.25
1473.134	5411.92
1477.802	5383.25
1482.465	5381.58
1487.123	5401.58
1491.777	5450.92
1496.426	5477.58
1501.071	5509.25
1505.711	5582.25
1510.347	5614.25
1514.978	5629.25
1519.604	5648.25
1524.226	5647.92
1528.844	5604.92
1533.457	5589.25
1538.065	5544.25
1542.669	5525.58
1547.269	5544.25
1551.864	5561.25
1556.454	5626.58
1561.041	5688.92
1565.622	5765.58
1570.199	5878.92
1574.772	5998.25
1579.34	6170.58
1583.904	6297.25
1588.464	6446.25
1593.019	6587.25
1597.569	6734.58
1602.115	6849.92
1606.657	6976.58
1611.195	7079.92
1615.728	7208.92
1620.256	7373.92
1624.78	7512.92
1629.3	7668.92
1633.816	7817.25
1638.327	7977.25
1642.834	8062.92
1647.336	8157.25
1651.834	8178.58
1656.328	8153.58
1660.817	8068.58
1665.302	7919.58
1669.783	7774.25
1674.259	7547.25
1678.732	7305.58
1683.199	7065.25
1687.663	6788.58
1692.122	6510.92
1696.577	6191.92
1701.028	5906.58
1705.474	5592.92
1709.917	5328.58
1714.355	5096.25
1718.788	4897.58
1723.218	4779.92
1727.643	4649.58
1732.064	4499.92
1736.481	4348.92
1740.893	4205.58
1745.301	4050.58
1749.705	3917.25
1754.105	3799.58
1758.501	3682.92
1762.893	3600.92
1767.28	3531.58
1771.663	3483.92
1776.042	3451.58
1780.417	3450.58
1784.787	3453.25
1789.154	3440.58
1793.516	3409.25
1797.874	3350.25
1802.228	3295.25
1806.578	3209.92
1810.924	3104.92
1815.266	3033.25
1819.603	2985.25
1823.937	2949.92
1828.266	2932.58
1832.591	2917.25
1836.913	2911.58
1841.23	2916.58
1845.543	2916.58
1849.852	2931.25
1854.156	2938.92
1858.457	2962.25
1862.754	2974.25
1867.047	2982.92
1871.335	3010.92
1875.62	3015.92
1879.9	3031.92
1884.177	3035.92
1888.449	3035.25
1892.718	3032.25
1896.982	3023.25
1901.243	3029.92
1905.499	3026.25
1909.752	3034.92
1914	3034.25
1918.245	3068.58
1922.485	3078.58
1926.722	3085.25
1930.954	3115.58
1935.183	3114.25
1939.408	3103.92
1943.628	3084.92
1947.845	3058.92
1952.058	3033.25
1956.267	2999.58
1960.472	2936.25
1964.673	2888.92
1968.87	2863.58
1973.063	2823.58
1977.252	2808.92
1981.438	2808.25
1985.619	2794.25
1989.797	2800.25
1993.971	2815.58
1998.14	2832.25
2002.306	2845.92
2006.469	2886.25
2010.627	2884.92
2014.781	2909.92
2018.932	2909.58
2023.078	2914.58
2027.221	2917.25
2031.36	2919.25
2035.495	2928.25
2039.627	2926.92
2043.754	2908.92
2047.878	2937.25
2051.998	2925.58
2056.114	2931.25
2060.226	2951.25
2064.334	2978.58
2068.439	3012.25
2072.54	3029.58
2076.637	3066.92
2080.73	3089.92
2084.82	3088.58
2088.906	3092.92
2092.988	3109.92
2097.066	3070.92
2101.14	3057.58
2105.211	3013.25
2109.278	2997.25
2113.342	2958.25
2117.401	2920.25
2121.457	2889.25
2125.509	2865.58
2129.558	2832.58
2133.602	2812.92
2137.643	2801.92
2141.681	2783.25
2145.714	2768.58
2149.744	2752.25
2153.77	2729.92
2157.793	2702.25
2161.812	2662.58
2165.827	2642.25
2169.838	2597.92
2173.846	2564.58
2177.851	2510.58
2181.851	2477.25
2185.848	2443.25
2189.841	2419.25
2193.831	2406.92
2197.817	2376.92
2201.799	2360.92
2205.778	2336.25
2209.753	2328.92
2213.725	2314.25
2217.693	2300.25
2221.657	2284.25
2225.618	2266.25
2229.575	2248.58
2233.529	2231.58
2237.479	2181.92
2241.425	2149.25
2245.368	2124.92
2249.307	2089.92
2253.243	2067.58
2257.175	2021.25
2261.104	2001.25
2265.029	1971.92
2268.95	1931.58
2272.868	1905.25
2276.783	1879.92
2280.694	1846.25
2284.601	1822.92
2288.505	1800.25
2292.405	1773.92
2296.302	1745.92
2300.195	1718.58
2304.085	1711.25
2307.971	1671.92
2311.854	1647.25
2315.734	1628.92
2319.609	1592.58
2323.482	1566.25
2327.351	1561.58
2331.216	1564.25
2335.078	1553.58
2338.937	1527.92
2342.792	1510.25
2346.643	1492.25
2350.492	1491.25
2354.336	1485.25
2358.178	1503.58
2362.015	1483.58
2365.85	1495.25
2369.681	1489.92
2373.508	1496.25
2377.333	1496.58
2381.153	1486.25
2384.971	1480.58
2388.785	1464.25
2392.595	1452.58
2396.402	1453.58
2400.206	1432.92
2404.007	1435.58
2407.804	1414.92
2411.597	1422.25
2415.388	1422.92
2419.174	1403.92
2422.958	1402.25
2426.738	1395.25
2430.515	1395.25
2434.289	1378.58
2438.059	1377.58
2441.825	1369.92
2445.589	1358.25
2449.349	1348.25
2453.106	1344.92
2456.859	1324.25
2460.61	1312.92
2464.356	1311.92
2468.1	1299.92
2471.84	1286.58
2475.577	1289.25
2479.311	1281.58
2483.041	1289.92
2486.768	1281.92
2490.492	1281.92
2494.213	1288.25
2497.93	1284.58
2501.644	1282.92
2505.355	1278.25
2509.062	1277.92
2512.766	1273.58
2516.467	1270.58
2520.165	1261.58
2523.859	1267.25
2527.551	1254.58
2531.239	1249.58
2534.923	1238.92
2538.605	1233.25
2542.283	1223.25
2545.958	1226.25
2549.63	1225.58
2553.299	1228.25
2556.964	1210.92
2560.626	1209.92
2564.285	1190.58
2567.941	1185.58
2571.594	1179.58
2575.243	1175.25
2578.89	1162.58
2582.533	1151.58
2586.173	1138.92
2589.809	1127.25
2593.443	1116.92
2597.073	1100.25
2600.701	1096.92
2604.325	1088.58
2607.946	1079.92
2611.564	1075.92
2615.178	1069.25
2618.79	1068.58
2622.398	1061.25
2626.004	1053.58
2629.606	1049.58
2633.205	1040.58
2636.801	1031.92
2640.394	1022.25
2643.983	1018.92
2647.57	1015.92
2651.153	1003.25
2654.734	1004.92
2658.311	997.58
2661.885	997.25
2665.456	994.25
2669.025	989.25
2672.589	990.58
2676.151	986.25
2679.71	986.92
2683.266	978.25
2686.819	970.58
2690.368	973.92
2693.915	970.25
2697.458	966.92
2700.999	960.92
2704.536	951.25
2708.071	954.58
2711.602	955.58
2715.13	951.58
2718.656	944.92
2722.178	961.25
2725.697	957.92
2729.214	984.92
2732.727	978.25
2736.237	1003.25
2739.744	1009.25
2743.249	1017.58
2746.75	1014.58
2750.248	1015.58
2753.743	1013.92
2757.236	1003.58
2760.725	992.58
2764.211	984.25
2767.695	979.92
2771.175	984.25
2774.652	986.58
2778.127	980.58
2781.598	991.25
2785.067	1002.58
2788.532	1016.58
2791.995	1024.25
2795.455	1034.58
2798.911	1051.92
2802.365	1069.92
2805.816	1074.92
2809.264	1096.25
2812.709	1114.58
2816.151	1126.25
2819.59	1138.58
2823.026	1147.25
2826.46	1163.58
2829.89	1173.92
2833.318	1181.58
2836.742	1189.25
2840.164	1197.92
2843.583	1227.58
2846.999	1236.58
2850.412	1254.25
2853.822	1273.58
2857.229	1289.92
2860.634	1318.92
2864.035	1326.25
2867.434	1349.92
2870.83	1360.92
2874.223	1385.25
2877.613	1404.92
2881	1407.58
2884.385	1421.58
2887.766	1438.92
2891.145	1447.25
2894.521	1468.25
2897.894	1486.25
2901.264	1498.92
2904.631	1527.92
2907.996	1541.92
2911.358	1565.58
2914.717	1597.92
2918.073	1623.58
2921.426	1644.92
2924.777	1675.92
2928.124	1709.58
2931.469	1759.92
2934.811	1802.58
2938.15	1833.58
2941.487	1873.58
2944.821	1913.58
2948.152	1943.58
2951.48	1986.25
2954.805	2027.25
2958.128	2066.58
2961.447	2113.92
2964.765	2158.92
2968.079	2219.25
2971.39	2265.25
2974.699	2345.92
2978.005	2395.92
2981.308	2452.92
2984.609	2534.58
2987.907	2601.25
2991.202	2677.58
2994.494	2746.92
2997.784	2806.58
3001.07	2895.58
3004.355	2958.58
3007.636	3025.58
3010.915	3079.58
3014.191	3142.25
3017.464	3199.92
3020.734	3248.25
3024.002	3295.58
3027.267	3368.92
3030.53	3438.25
3033.789	3509.92
3037.046	3604.25
3040.301	3691.25
3043.552	3782.25
3046.801	3872.58
3050.048	3974.58
3053.291	4116.25
3056.532	4239.25
3059.771	4348.25
3063.006	4508.25
3066.239	4643.25
3069.469	4788.58
3072.697	4921.25
3075.922	5065.58
3079.144	5208.25
3082.364	5336.25
3085.581	5460.25
3088.795	5602.58
3092.007	5735.58
3095.216	5881.92
3098.423	6023.58
3101.627	6158.92
3104.828	6295.58
3108.026	6440.25
3111.222	6587.25
3114.416	6724.92
3117.607	6897.25
3120.795	7051.25
3123.98	7213.25
3127.163	7378.25
3130.344	7554.25
3133.521	7730.25
3136.696	7899.25
3139.869	8032.92
3143.039	8166.92
3146.206	8286.25
3149.371	8402.25
3152.533	8484.25
3155.693	8525.92
3158.85	8624.92
3162.005	8685.58
3165.157	8726.58
3168.306	8753.92
3171.453	8791.92
3174.597	8829.25
3177.739	8864.25
3180.878	8886.58
3184.014	8944.58
3187.149	8956.25
3190.28	9018.92
3193.409	9034.92
3196.536	9068.92
3199.659	9113.25
3202.781	9153.92
3205.9	9185.58
3209.016	9185.58
3212.13	9186.25
3215.241	9174.58
3218.35	9136.58
3221.456	9089.92
3224.56	9054.58
3227.661	8971.58
3230.76	8930.25
3233.856	8869.58
3236.95	8843.58
3240.041	8795.92
3243.13	8754.25
3246.216	8709.58
3249.3	8673.92
3252.382	8644.92
3255.46	8634.92
3258.537	8632.92
3261.611	8566.58
3264.682	8548.92
3267.751	8500.25
3270.818	8478.92
3273.882	8435.25
3276.943	8371.25
3280.002	8303.25
3283.059	8220.58
3286.113	8119.92
3289.165	8019.92
3292.214	7873.92
3295.261	7786.25
3298.306	7674.58
3301.348	7558.92
3304.387	7459.58
3307.425	7369.92
3310.459	7269.92
3313.492	7213.58
3316.521	7134.25
3319.549	7061.25
3322.574	7029.25
3325.597	6965.92
3328.617	6930.25
3331.635	6892.25
3334.65	6889.25
3337.663	6847.58
3340.674	6826.92
3343.682	6820.25
3346.688	6816.58
3349.691	6780.58
3352.692	6783.58
3355.691	6745.92
3358.687	6702.58
3361.681	6655.58
3364.673	6595.58
3367.662	6512.92
3370.649	6445.58
3373.633	6379.25
3376.615	6309.25
3379.595	6246.58
3382.572	6188.92
3385.547	6117.92
3388.52	6050.25
3391.49	5998.25
3394.458	5930.92
3397.424	5872.92
3400.387	5827.25
3403.348	5773.25
3406.307	5736.25
3409.263	5681.25
3412.217	5648.92
3415.168	5591.58
3418.118	5546.92
3421.065	5503.25
3424.009	5465.92
3426.951	5385.92
3429.891	5318.92
3432.829	5252.25
3435.764	5175.25
3438.697	5077.25
3441.628	4987.58
3444.557	4902.92
3447.483	4785.58
3450.407	4690.25
3453.328	4570.25
3456.247	4482.58
3459.164	4388.92
3462.079	4274.58
3464.991	4157.92
3467.902	4066.92
3470.809	3993.25
3473.715	3896.92
3476.618	3815.25
3479.519	3724.58
3482.418	3649.25
3485.315	3560.58
3488.209	3483.58
3491.101	3422.25
3493.99	3335.92
3496.878	3266.92
3499.763	3204.92
3502.646	3130.25
3505.527	3049.25
3508.405	2967.25
3511.281	2872.92
3514.155	2791.25
3517.027	2707.58
3519.897	2618.58
3522.764	2526.92
3525.629	2444.58
3528.492	2358.58
3531.352	2254.92
3534.211	2177.58
3537.067	2099.58
3539.921	2022.58
3542.773	1964.25
3545.622	1893.58
3548.469	1816.25
3551.315	1757.92
3554.157	1699.58
3556.998	1640.58
3559.837	1599.92
3562.673	1548.58
3565.507	1497.58
3568.339	1450.92
3571.169	1402.25
3573.996	1357.25
3576.822	1316.58
3579.645	1277.58
3582.466	1229.25
3585.285	1183.25
3588.101	1143.25
3590.916	1104.92
3593.728	1065.58
3596.538	1029.25
3599.346	991.25
3602.152	950.92
3604.956	918.92
3607.757	885.25
3610.556	843.58
3613.354	821.92
3616.149	789.25
3618.942	762.92
3621.732	741.92
3624.521	718.58
3627.307	689.58
3630.092	676.58
3632.874	651.58
3635.654	621.25
3638.432	609.25
3641.208	588.25
3643.982	565.92
3646.753	541.58
3649.523	523.25
3652.29	508.25
3655.055	484.92
3657.818	468.58
3660.579	443.25
3663.338	430.92
3666.095	411.58
3668.849	391.92
3671.602	371.92
3674.352	362.92
3677.101	340.92
3679.847	332.58
3682.591	311.92
3685.333	302.92
3688.073	289.92
3690.811	278.58
3693.547	274.92
3696.281	255.25
3699.013	246.25
3701.742	243.92
3704.47	233.92
3707.195	222.25
3709.919	213.58
3712.64	204.58
3715.359	196.92
3718.076	191.25
3720.792	181.58
3723.505	177.58
3726.216	169.92
3728.925	161.58
3731.632	152.58
3734.336	152.58
3737.039	149.25
3739.74	139.92
3742.439	136.25
3745.136	130.25
3747.83	129.58
3750.523	126.58
3753.213	122.25
3755.902	122.25
3758.589	115.25
3761.273	111.58
3763.956	111.58
3766.636	109.58
3769.315	102.25
3771.991	100.58
3774.665	92.58
3777.338	90.25
3780.008	92.58
3782.677	92.58
3785.343	88.25
3788.007	79.58
3790.67	83.25
3793.33	81.92
3795.989	75.25
3798.645	76.58
3801.299	73.58
3803.952	71.92
3806.602	68.58
3809.251	72.92
3811.897	65.58
3814.542	64.58
3817.184	65.25
3819.825	67.58
3822.463	63.92
3825.1	58.58
3827.735	62.58
3830.367	58.92
3832.998	55.58
3835.627	60.92
3838.253	55.92
3840.878	51.92
3843.501	51.25
3846.122	50.58
3848.741	49.92
3851.358	49.25
3853.973	52.58
3856.586	47.25
3859.197	47.25
3861.806	45.58
3864.414	42.58
3867.019	47.58
3869.622	48.25
3872.224	59.25
3874.823	75.92
3877.421	92.92
3880.016	124.92
3882.61	148.92
3885.202	161.25
3887.792	135.58
3890.38	91.92
3892.966	40.58
3895.55	36.92
3898.132	42.58
3900.713	33.92
3903.291	34.92
3905.868	37.92
3908.442	31.25
3911.015	29.58
3913.586	32.25
3916.155	33.25
3918.722	31.25
3921.287	30.25
3923.85	30.25
3926.411	27.58
3928.971	25.92
3931.528	25.25
3934.084	22.25
3936.638	24.25
3939.19	25.25
3941.74	22.92
3944.288	29.25
3946.834	21.92
3949.378	24.92
3951.921	22.92
3954.462	25.92
3957	31.58
3959.537	31.92
3962.072	30.58
3964.606	27.92
3967.137	30.25
3969.667	28.25
3972.194	32.58
3974.72	32.58
3977.244	36.58
3979.766	36.58
3982.286	36.92
3984.805	39.92
3987.321	41.25
3989.836	42.25
3992.349	45.58
3994.86	43.58
3997.369	41.58
3999.877	42.58
4002.382	42.92
4004.886	38.92
4007.388	39.92
4009.888	40.58
4012.386	36.92
4014.883	37.25
4017.377	33.58
4019.87	34.58
4022.361	36.25
4024.85	35.25
4027.338	33.92
4029.823	37.25
4032.307	30.58
4034.789	33.25
4037.269	33.92
4039.747	29.25
4042.224	28.58
4044.699	31.25
4047.172	27.25
4049.643	30.92
4052.112	31.92
4054.58	30.58
4057.046	30.58
4059.51	29.25
4061.972	30.92
4064.432	31.58
4066.891	29.92
4069.348	33.92
4071.803	30.92
4074.256	29.92
4076.708	27.92
4079.158	32.58
4081.606	28.92
4084.052	29.92
4086.497	30.58
4088.939	27.92
4091.38	30.25
4093.819	33.58
4096.257	5.58
4098.693	-0.42
4101.127	-1.08
4103.559	1.25
4105.989	351.58
4108.418	364.58
4110.845	386.58
4113.27	411.58
4115.694	446.58
4118.115	511.58
4120.535	31.58
4122.954	30.58
4125.37	28.92
4127.785	26.25
4130.198	28.25
4132.609	27.92
4135.019	-2.75
4137.427	0.58
4139.833	-0.75
4142.237	-2.42
