160.701	608.04
166.742	796.37
172.777	1353.37
178.805	3141.71
184.826	7640.71
190.841	15847.38
196.849	25837.04
202.85	33161.71
208.845	35380.04
214.833	34488.71
220.815	33090.38
226.789	32146.71
232.758	31165.04
238.719	30255.38
244.674	29087.04
250.623	27863.71
256.565	26590.71
262.5	25397.38
268.429	24284.71
274.351	23306.04
280.267	22428.38
286.176	21662.38
292.079	20920.71
297.975	20289.71
303.865	19761.38
309.748	19281.71
315.625	18900.71
321.495	18549.71
327.359	18333.04
333.217	18126.38
339.068	18016.71
344.912	17936.71
350.751	17870.04
356.583	17818.04
362.408	17842.71
368.227	17894.38
374.04	18001.71
379.847	18183.71
385.647	18392.04
391.44	18352.38
397.228	18259.38
403.009	18316.38
408.784	18552.38
414.553	19071.04
420.315	19717.71
426.071	19828.38
431.821	19226.71
437.565	18573.38
443.302	18332.04
449.033	18155.38
454.758	18044.38
460.477	17911.71
466.189	17793.71
471.896	17671.71
477.596	17567.38
483.29	17416.38
488.978	17319.71
494.66	17205.71
500.335	16977.38
506.005	16670.71
511.668	16336.04
517.325	15998.04
522.977	15706.04
528.622	15469.71
534.261	15294.71
539.894	15100.04
545.521	14965.04
551.141	14839.71
556.756	14713.71
562.365	14644.71
567.968	14485.38
573.565	14390.38
579.155	14295.04
584.74	14206.38
590.319	14074.38
595.892	13947.71
601.459	13844.38
607.02	13731.71
612.575	13579.71
618.124	13422.04
623.667	13320.38
629.204	13159.71
634.735	13092.38
640.261	13118.71
645.781	13227.04
651.294	13295.04
656.802	13078.38
662.304	12761.04
667.8	12563.38
673.29	12475.04
678.775	12358.04
684.254	12302.04
689.726	12206.04
695.193	12091.04
700.655	11987.38
706.11	11862.38
711.56	11773.71
717.004	11640.71
722.442	11552.71
727.874	11516.71
733.301	11401.71
738.722	11355.04
744.137	11325.04
749.547	11297.04
754.951	11293.38
760.349	11239.38
765.741	11145.71
771.128	11071.71
776.509	10994.71
781.885	10986.38
787.254	10911.38
792.618	10854.38
797.977	10713.04
803.33	10622.38
808.677	10495.71
814.019	10393.38
819.355	10229.04
824.686	10112.71
830.011	10009.71
835.33	9946.71
840.644	9827.71
845.952	9755.04
851.255	9695.04
856.552	9598.04
861.844	9542.38
867.13	9429.04
872.41	9313.38
877.686	9224.04
882.955	9061.38
888.219	8910.71
893.478	8777.38
898.731	8642.38
903.979	8484.71
909.221	8401.38
914.458	8309.38
919.69	8259.04
924.916	8205.38
930.136	8192.71
935.351	8137.71
940.561	8126.38
945.766	8077.04
950.965	8035.71
956.158	7939.04
961.347	7843.38
966.529	7713.38
971.707	7587.38
976.879	7504.38
982.046	7402.71
987.208	7371.04
992.364	7337.38
997.515	7350.04
1002.66	7381.04
1007.801	7406.71
1012.936	7474.04
1018.066	7499.71
1023.19	7559.04
1028.309	7528.38
1033.423	7537.04
1038.532	7491.38
1043.636	7389.38
1048.734	7321.71
1053.827	7250.38
1058.915	7177.04
1063.998	7112.04
1069.075	7102.04
1074.147	7083.04
1079.214	7123.04
1084.276	7134.71
1089.333	7160.71
1094.385	7207.71
1099.431	7215.38
1104.472	7228.04
1109.509	7201.04
1114.54	7104.71
1119.565	7010.38
1124.586	6924.04
1129.602	6856.04
1134.613	6806.04
1139.618	6791.71
1144.619	6782.04
1149.614	6798.71
1154.604	6836.38
1159.589	6837.38
1164.57	6866.04
1169.545	6888.38
1174.515	6892.38
1179.48	6841.71
1184.44	6814.04
1189.395	6759.38
1194.345	6705.71
1199.29	6679.04
1204.23	6698.38
1209.165	6699.04
1214.095	6721.38
1219.021	6779.04
1223.941	6812.38
1228.856	6844.04
1233.766	6876.04
1238.672	6838.04
1243.572	6832.71
1248.467	6807.38
1253.358	6726.71
1258.244	6626.04
1263.124	6537.71
1268	6435.38
1272.871	6363.71
1277.737	6322.38
1282.599	6265.71
1287.455	6296.38
1292.306	6298.71
1297.153	6316.38
1301.995	6399.04
1306.832	6400.71
1311.664	6443.71
1316.491	6423.71
1321.314	6405.04
1326.132	6364.38
1330.945	6308.71
1335.753	6269.04
1340.556	6224.04
1345.354	6169.71
1350.148	6128.38
1354.937	6073.71
1359.722	5983.04
1364.501	5920.04
1369.276	5817.04
1374.046	5756.04
1378.811	5676.04
1383.572	5621.38
1388.327	5565.38
1393.079	5550.38
1397.825	5501.04
1402.567	5468.04
1407.304	5450.04
1412.036	5432.37
1416.764	5438.04
1421.487	5448.71
1426.205	5469.37
1430.919	5513.37
1435.628	5585.71
1440.333	5626.71
1445.032	5637.37
1449.727	5724.38
1454.418	5708.37
1459.104	5732.04
1463.785	5708.04
1468.462	5691.04
1473.134	5662.71
1477.802	5653.04
1482.465	5652.37
1487.123	5655.04
1491.777	5722.38
1496.426	5756.38
1501.071	5807.71
1505.711	5825.04
1510.347	5875.38
1514.978	5900.38
1519.604	5912.71
1524.226	5891.71
1528.844	5831.04
1533.457	5812.71
1538.065	5790.04
1542.669	5762.04
1547.269	5794.38
1551.864	5790.04
1556.454	5876.71
1561.041	5953.38
1565.622	6010.04
1570.199	6123.71
1574.772	6256.38
1579.34	6407.71
1583.904	6572.71
1588.464	6732.38
1593.019	6875.38
1597.569	6999.38
1602.115	7114.04
1606.657	7250.71
1611.195	7361.38
1615.728	7496.04
1620.256	7638.38
1624.78	7805.04
1629.3	7973.38
1633.816	8124.71
1638.327	8263.38
1642.834	8368.38
1647.336	8446.04
1651.834	8497.71
1656.328	8458.71
1660.817	8383.38
1665.302	8267.38
1669.783	8068.71
1674.259	7879.38
1678.732	7608.38
1683.199	7341.71
1687.663	7092.71
1692.122	6802.38
1696.577	6467.71
1701.028	6147.04
1705.474	5835.38
1709.917	5542.04
1714.355	5295.38
1718.788	5132.37
1723.218	4999.71
1727.643	4868.71
1732.064	4704.04
1736.481	4564.04
1740.893	4405.71
1745.301	4251.71
1749.705	4106.71
1754.105	3979.04
1758.501	3855.71
1762.893	3785.37
1767.28	3716.71
1771.663	3686.71
1776.042	3640.37
1780.417	3650.04
1784.787	3646.71
1789.154	3641.04
1793.516	3608.71
1797.874	3538.71
1802.228	3473.37
1806.578	3384.04
1810.924	3291.04
1815.266	3222.71
1819.603	3163.37
1823.937	3118.37
1828.266	3094.71
1832.591	3088.71
1836.913	3097.04
1841.23	3089.37
1845.543	3088.04
1849.852	3107.04
1854.156	3115.37
1858.457	3137.04
1862.754	3161.04
1867.047	3187.38
1871.335	3187.04
1875.62	3209.04
1879.9	3213.71
1884.177	3233.71
1888.449	3217.04
1892.718	3226.38
1896.982	3218.38
1901.243	3219.37
1905.499	3221.38
1909.752	3237.04
1914	3236.04
1918.245	3260.37
1922.485	3271.71
1926.722	3301.04
1930.954	3320.04
1935.183	3301.71
1939.408	3292.71
1943.628	3270.04
1947.845	3247.04
1952.058	3204.71
1956.267	3158.71
1960.472	3125.71
1964.673	3065.71
1968.87	3032.37
1973.063	2996.71
1977.252	2960.38
1981.438	2972.71
1985.619	2954.71
1989.797	2976.04
1993.971	2975.37
1998.14	2994.04
2002.306	3015.71
2006.469	3039.04
2010.627	3055.38
2014.781	3063.04
2018.932	3086.71
2023.078	3100.37
2027.221	3096.71
2031.36	3072.37
2035.495	3054.38
2039.627	3061.04
2043.754	3054.38
2047.878	3058.71
2051.998	3077.71
2056.114	3101.04
2060.226	3133.04
2064.334	3151.71
2068.439	3193.71
2072.54	3209.71
2076.637	3239.37
2080.73	3281.71
2084.82	3283.71
2088.906	3280.71
2092.988	3284.04
2097.066	3249.71
2101.14	3221.38
2105.211	3193.04
2109.278	3159.04
2113.342	3123.04
2117.401	3086.37
2121.457	3056.04
2125.509	3026.38
2129.558	2979.71
2133.602	2964.37
2137.643	2950.04
2141.681	2932.71
2145.714	2923.38
2149.744	2900.38
2153.77	2876.71
2157.793	2858.38
2161.812	2813.04
2165.827	2781.04
2169.838	2736.37
2173.846	2706.04
2177.851	2661.04
2181.851	2623.04
2185.848	2586.37
2189.841	2569.71
2193.831	2523.04
2197.817	2514.71
2201.799	2504.37
2205.778	2482.71
2209.753	2456.71
2213.725	2446.71
2217.693	2434.38
2221.657	2432.04
2225.618	2399.04
2229.575	2378.71
2233.529	2345.37
2237.479	2324.71
2241.425	2277.37
2245.368	2257.04
2249.307	2210.37
2253.243	2182.38
2257.175	2158.71
2261.104	2119.04
2265.029	2081.04
2268.95	2068.37
2272.868	2029.04
2276.783	1996.71
2280.694	1969.04
2284.601	1945.37
2288.505	1915.04
2292.405	1898.37
2296.302	1869.71
2300.195	1846.37
2304.085	1811.04
2307.971	1781.71
2311.854	1767.71
2315.734	1731.04
2319.609	1704.04
2323.482	1680.71
2327.351	1665.04
2331.216	1667.71
2335.078	1656.37
2338.937	1637.71
2342.792	1614.04
2346.643	1602.37
2350.492	1592.37
2354.336	1592.71
2358.178	1600.04
2362.015	1594.04
2365.85	1597.37
2369.681	1606.04
2373.508	1595.04
2377.333	1594.71
2381.153	1587.71
2384.971	1587.04
2388.785	1568.71
2392.595	1564.38
2396.402	1549.71
2400.206	1557.04
2404.007	1539.38
2407.804	1528.38
2411.597	1530.38
2415.388	1521.04
2419.174	1518.04
2422.958	1512.04
2426.738	1498.37
2430.515	1502.71
2434.289	1490.71
2438.059	1488.04
2441.825	1484.71
2445.589	1462.38
2449.349	1453.04
2453.106	1453.37
2456.859	1431.71
2460.61	1423.04
2464.356	1409.71
2468.1	1411.71
2471.84	1391.71
2475.577	1393.04
2479.311	1397.38
2483.041	1385.38
2486.768	1396.37
2490.492	1391.71
2494.213	1389.71
2497.93	1390.04
2501.644	1387.04
2505.355	1382.04
2509.062	1375.71
2512.766	1382.04
2516.467	1391.38
2520.165	1369.38
2523.859	1381.37
2527.551	1366.04
2531.239	1350.71
2534.923	1341.37
2538.605	1348.71
2542.283	1339.04
2545.958	1329.37
2549.63	1338.37
2553.299	1333.04
2556.964	1323.71
2560.626	1323.71
2564.285	1312.04
2567.941	1304.38
2571.594	1286.04
2575.243	1282.04
2578.89	1268.38
2582.533	1269.04
2586.173	1250.37
2589.809	1229.37
2593.443	1217.71
2597.073	1207.04
2600.701	1194.04
2604.325	1192.37
2607.946	1180.04
2611.564	1178.04
2615.178	1179.37
2618.79	1164.71
2622.398	1171.37
2626.004	1152.04
2629.606	1137.04
2633.205	1136.04
2636.801	1129.71
2640.394	1124.71
2643.983	1114.71
2647.57	1106.71
2651.153	1096.38
2654.734	1090.38
2658.311	1087.71
2661.885	1082.04
2665.456	1075.37
2669.025	1083.37
2672.589	1068.04
2676.151	1072.71
2679.71	1076.37
2683.266	1071.37
2686.819	1063.37
2690.368	1061.04
2693.915	1054.04
2697.458	1049.04
2700.999	1043.04
2704.536	1033.04
2708.071	1036.71
2711.602	1026.04
2715.13	1034.37
2718.656	1036.04
2722.178	1046.71
2725.697	1052.04
2729.214	1055.71
2732.727	1070.71
2736.237	1084.71
2739.744	1092.71
2743.249	1102.71
2746.75	1100.38
2750.248	1107.04
2753.743	1099.38
2757.236	1088.71
2760.725	1081.04
2764.211	1061.04
2767.695	1066.37
2771.175	1049.37
2774.652	1047.37
2778.127	1060.37
2781.598	1057.71
2785.067	1071.38
2788.532	1082.71
2791.995	1099.04
2795.455	1109.04
2798.911	1121.37
2802.365	1142.38
2805.816	1154.71
2809.264	1170.04
2812.709	1181.71
2816.151	1194.04
2819.59	1211.04
2823.026	1228.37
2826.46	1229.38
2829.89	1240.04
2833.318	1255.38
2836.742	1267.04
2840.164	1274.04
2843.583	1295.04
2846.999	1315.04
2850.412	1335.37
2853.822	1346.71
2857.229	1373.38
2860.634	1389.04
2864.035	1406.38
2867.434	1419.71
2870.83	1437.71
2874.223	1453.71
2877.613	1477.71
2881	1478.38
2884.385	1494.71
2887.766	1504.71
2891.145	1518.71
2894.521	1538.71
2897.894	1556.04
2901.264	1582.04
2904.631	1586.71
2907.996	1620.71
2911.358	1637.37
2914.717	1673.71
2918.073	1694.04
2921.426	1729.04
2924.777	1763.71
2928.124	1790.71
2931.469	1833.37
2934.811	1887.37
2938.15	1922.04
2941.487	1954.04
2944.821	2007.37
2948.152	2033.04
2951.48	2081.71
2954.805	2126.04
2958.128	2161.71
2961.447	2200.37
2964.765	2261.04
2968.079	2318.37
2971.39	2359.38
2974.699	2421.71
2978.005	2500.37
2981.308	2554.37
2984.609	2646.37
2987.907	2705.37
2991.202	2792.37
2994.494	2855.37
2997.784	2926.04
3001.07	3007.71
3004.355	3071.38
3007.636	3126.71
3010.915	3196.04
3014.191	3262.71
3017.464	3317.38
3020.734	3372.37
3024.002	3424.71
3027.267	3487.38
3030.53	3562.71
3033.789	3624.71
3037.046	3720.37
3040.301	3826.71
3043.552	3910.71
3046.801	4025.37
3050.048	4130.71
3053.291	4244.71
3056.532	4380.04
3059.771	4519.71
3063.006	4642.38
3066.239	4796.38
3069.469	4939.38
3072.697	5097.04
3075.922	5231.37
3079.144	5366.04
3082.364	5513.71
3085.581	5656.04
3088.795	5792.71
3092.007	5938.71
3095.216	6077.38
3098.423	6215.38
3101.627	6357.38
3104.828	6518.71
3108.026	6650.71
3111.222	6808.71
3114.416	6955.71
3117.607	7111.04
3120.795	7282.71
3123.98	7482.04
3127.163	7624.38
3130.344	7790.38
3133.521	7981.38
3136.696	8152.71
3139.869	8297.04
3143.039	8448.71
3146.206	8575.04
3149.371	8693.38
3152.533	8759.38
3155.693	8847.04
3158.85	8906.04
3162.005	8945.38
3165.157	9008.71
3168.306	9066.04
3171.453	9089.38
3174.597	9135.38
3177.739	9138.71
3180.878	9178.71
3184.014	9231.71
3187.149	9251.04
3190.28	9290.71
3193.409	9362.04
3196.536	9374.71
3199.659	9395.71
3202.781	9469.38
3205.9	9485.04
3209.016	9490.04
3212.13	9472.71
3215.241	9476.38
3218.35	9449.38
3221.456	9387.38
3224.56	9312.04
3227.661	9253.04
3230.76	9201.71
3233.856	9165.38
3236.95	9093.71
3240.041	9042.04
3243.13	9016.04
3246.216	8980.04
3249.3	8924.71
3252.382	8898.04
3255.46	8877.04
3258.537	8872.38
3261.611	8804.71
3264.682	8761.71
3267.751	8737.71
3270.818	8705.38
3273.882	8641.71
3276.943	8581.04
3280.002	8514.71
3283.059	8410.38
3286.113	8328.38
3289.165	8215.04
3292.214	8125.04
3295.261	7981.38
3298.306	7883.04
3301.348	7763.71
3304.387	7668.04
3307.425	7581.04
3310.459	7488.71
3313.492	7420.71
3316.521	7325.04
3319.549	7262.38
3322.574	7241.04
3325.597	7172.04
3328.617	7148.71
3331.635	7096.71
3334.65	7088.38
3337.663	7052.38
3340.674	7044.38
3343.682	7012.71
3346.688	7024.04
3349.691	6986.71
3352.692	6973.04
3355.691	6955.04
3358.687	6900.71
3361.681	6858.04
3364.673	6782.04
3367.662	6700.71
3370.649	6642.04
3373.633	6581.38
3376.615	6489.38
3379.595	6457.71
3382.572	6377.38
3385.547	6305.04
3388.52	6242.04
3391.49	6169.38
3394.458	6113.04
3397.424	6052.71
3400.387	5998.04
3403.348	5942.38
3406.307	5881.04
3409.263	5847.71
3412.217	5816.04
3415.168	5757.04
3418.118	5708.04
3421.065	5651.04
3424.009	5623.38
3426.951	5546.71
3429.891	5491.04
3432.829	5413.37
3435.764	5311.71
3438.697	5221.38
3441.628	5144.04
3444.557	5033.38
3447.483	4919.71
3450.407	4806.71
3453.328	4711.04
3456.247	4600.71
3459.164	4505.37
3462.079	4411.38
3464.991	4310.38
3467.902	4197.38
3470.809	4108.71
3473.715	4014.37
3476.618	3915.04
3479.519	3827.37
3482.418	3745.04
3485.315	3669.04
3488.209	3605.04
3491.101	3514.38
3493.99	3449.71
3496.878	3375.71
3499.763	3303.04
3502.646	3228.71
3505.527	3138.71
3508.405	3056.38
3511.281	2952.71
3514.155	2878.38
3517.027	2785.71
3519.897	2683.37
3522.764	2603.71
3525.629	2505.04
3528.492	2423.04
3531.352	2328.04
3534.211	2248.38
3537.067	2166.71
3539.921	2088.38
3542.773	2007.38
3545.622	1948.04
3548.469	1864.71
3551.315	1795.71
3554.157	1739.37
3556.998	1692.37
3559.837	1633.04
3562.673	1596.04
3565.507	1535.71
3568.339	1495.71
3571.169	1447.37
3573.996	1393.71
3576.822	1357.71
3579.645	1305.38
3582.466	1272.71
3585.285	1220.71
3588.101	1167.38
3590.916	1145.71
3593.728	1095.04
3596.538	1057.71
3599.346	1018.38
3602.152	973.37
3604.956	949.71
3607.757	908.37
3610.556	863.71
3613.354	848.37
3616.149	812.37
3618.942	779.71
3621.732	756.71
3624.521	730.38
3627.307	707.71
3630.092	685.71
3632.874	669.37
3635.654	643.37
3638.432	625.04
3641.208	602.71
3643.982	581.37
3646.753	558.71
3649.523	531.04
3652.29	518.71
3655.055	495.71
3657.818	466.37
3660.579	447.04
3663.338	436.04
3666.095	422.38
3668.849	400.71
3671.602	381.37
3674.352	367.38
3677.101	349.37
3679.847	334.71
3682.591	321.04
3685.333	312.71
3688.073	298.37
3690.811	289.37
3693.547	277.38
3696.281	267.04
3699.013	255.38
3701.742	246.71
3704.47	236.71
3707.195	229.71
3709.919	220.37
3712.64	213.04
3715.359	202.71
3718.076	199.37
3720.792	189.04
3723.505	182.04
3726.216	175.37
3728.925	168.04
3731.632	161.04
3734.336	158.37
3737.039	153.38
3739.74	147.04
3742.439	137.04
3745.136	135.71
3747.83	132.04
3750.523	128.37
3753.213	115.37
3755.902	121.71
3758.589	116.71
3761.273	115.71
3763.956	108.04
3766.636	108.04
3769.315	109.37
3771.991	102.04
3774.665	96.37
3777.338	95.04
3780.008	95.04
3782.677	96.37
3785.343	92.37
3788.007	84.71
3790.67	88.04
3793.33	82.71
3795.989	80.04
3798.645	82.71
3801.299	77.37
3803.952	74.37
3806.602	73.04
3809.251	74.04
3811.897	69.71
3814.542	75.37
3817.184	70.71
3819.825	66.37
3822.463	69.04
3825.1	63.04
3827.735	61.71
3830.367	63.71
3832.998	60.04
3835.627	61.04
3838.253	58.04
3840.878	52.38
3843.501	54.04
3846.122	51.04
3848.741	50.71
3851.358	53.71
3853.973	53.04
3856.586	50.04
3859.197	50.71
3861.806	47.37
3864.414	47.38
3867.019	49.71
3869.622	48.38
3872.224	62.71
3874.823	81.38
3877.421	98.04
3880.016	123.04
3882.61	155.71
3885.202	167.71
3887.792	139.71
3890.38	95.04
3892.966	47.38
3895.55	39.04
3898.132	45.04
3900.713	41.37
3903.291	35.04
3905.868	39.37
3908.442	35.04
3911.015	35.04
3913.586	36.04
3916.155	32.71
3918.722	30.38
3921.287	29.38
3923.85	30.04
3926.411	31.04
3928.971	27.37
3931.528	23.37
3934.084	23.37
3936.638	23.04
3939.19	26.04
3941.74	23.04
3944.288	27.37
3946.834	25.04
3949.378	22.38
3951.921	26.38
3954.462	27.71
3957	31.04
3959.537	30.38
3962.072	32.37
3964.606	33.71
3967.137	29.04
3969.667	26.71
3972.194	30.04
3974.72	28.04
3977.244	39.38
3979.766	41.04
3982.286	39.04
3984.805	39.71
3987.321	44.04
3989.836	40.37
3992.349	47.04
3994.86	43.37
3997.369	41.71
3999.877	41.37
4002.382	40.71
4004.886	42.04
4007.388	44.71
4009.888	44.04
4012.386	36.71
4014.883	39.37
4017.377	34.38
4019.87	35.04
4022.361	37.04
4024.85	34.37
4027.338	35.37
4029.823	37.37
4032.307	34.04
4034.789	33.71
4037.269	38.04
4039.747	31.04
4042.224	30.04
4044.699	30.38
4047.172	29.04
4049.643	29.38
4052.112	33.04
4054.58	26.37
4057.046	28.38
4059.51	27.04
4061.972	31.37
4064.432	33.37
4066.891	33.04
4069.348	30.04
4071.803	32.04
4074.256	32.04
4076.708	28.71
4079.158	33.71
4081.606	30.04
4084.052	29.71
4086.497	31.37
4088.939	33.04
4091.38	31.04
4093.819	33.04
4096.257	4.71
4098.693	-1.29
4101.127	0.04
4103.559	1.04
4105.989	351.04
4108.418	364.37
4110.845	394.04
4113.27	416.37
4115.694	454.04
4118.115	518.38
4120.535	31.37
4122.954	33.04
4125.37	30.04
4127.785	29.04
4130.198	26.37
4132.609	30.37
4135.019	-3.96
4137.427	0.04
4139.833	-0.29
4142.237	-0.29
