160.701	408.71
166.742	562.38
172.777	960.38
178.805	2275.38
184.826	5560.71
190.841	11592.04
196.849	18921.04
202.85	24267.37
208.845	25847.38
214.833	25158.38
220.815	24111.37
226.789	23390.04
232.758	22663.04
238.719	21969.71
244.674	21138.04
250.623	20254.04
256.565	19328.71
262.5	18425.04
268.429	17605.38
274.351	16903.71
280.267	16247.38
286.176	15681.04
292.079	15185.71
297.975	14705.71
303.865	14277.38
309.748	13931.71
315.625	13644.71
321.495	13405.38
327.359	13208.71
333.217	13111.04
339.068	13016.38
344.912	12933.38
350.751	12867.04
356.583	12898.71
362.408	12853.71
368.227	12876.38
374.04	12982.71
379.847	13152.04
385.647	13283.38
391.44	13253.38
397.228	13173.04
403.009	13198.04
408.784	13415.38
414.553	13775.38
420.315	14278.38
426.071	14431.38
431.821	13907.38
437.565	13414.71
443.302	13198.71
449.033	13129.38
454.758	13038.71
460.477	12935.38
466.189	12850.71
471.896	12744.04
477.596	12634.04
483.29	12570.04
488.978	12501.04
494.66	12391.04
500.335	12231.04
506.005	12033.38
511.668	11736.71
517.325	11472.71
522.977	11256.71
528.622	11120.38
534.261	10960.04
539.894	10818.04
545.521	10717.71
551.141	10630.71
556.756	10557.04
562.365	10483.04
567.968	10402.71
573.565	10313.38
579.155	10261.04
584.74	10174.71
590.319	10093.04
595.892	10006.04
601.459	9942.38
607.02	9849.38
612.575	9754.71
618.124	9598.04
623.667	9532.04
629.204	9457.38
634.735	9389.71
640.261	9419.38
645.781	9501.38
651.294	9535.71
656.802	9400.71
662.304	9181.38
667.8	9019.38
673.29	8936.38
678.775	8879.71
684.254	8787.38
689.726	8738.71
695.193	8668.04
700.655	8603.04
706.11	8501.04
711.56	8439.38
717.004	8377.04
722.442	8309.04
727.874	8228.71
733.301	8197.04
738.722	8164.38
744.137	8128.71
749.547	8159.71
754.951	8162.71
760.349	8095.71
765.741	8026.04
771.128	7942.71
776.509	7958.38
781.885	7902.38
787.254	7851.04
792.618	7828.71
797.977	7730.04
803.33	7663.04
808.677	7578.71
814.019	7497.71
819.355	7389.71
824.686	7297.71
830.011	7226.38
835.33	7164.38
840.644	7119.71
845.952	7073.04
851.255	7000.71
856.552	6951.04
861.844	6853.38
867.13	6815.38
872.41	6744.71
877.686	6657.04
882.955	6546.38
888.219	6467.71
893.478	6330.71
898.731	6240.04
903.979	6128.71
909.221	6076.04
914.458	6017.38
919.69	5965.71
924.916	5953.71
930.136	5926.04
935.351	5904.71
940.561	5871.38
945.766	5832.71
950.965	5802.38
956.158	5760.04
961.347	5678.38
966.529	5595.04
971.707	5530.04
976.879	5433.38
982.046	5380.38
987.208	5332.38
992.364	5338.71
997.515	5341.38
1002.66	5370.71
1007.801	5400.04
1012.936	5427.71
1018.066	5465.04
1023.19	5474.71
1028.309	5489.71
1033.423	5471.71
1038.532	5424.04
1043.636	5398.04
1048.734	5336.04
1053.827	5275.38
1058.915	5236.04
1063.998	5185.04
1069.075	5192.38
1074.147	5180.04
1079.214	5200.38
1084.276	5230.38
1089.333	5261.38
1094.385	5251.71
1099.431	5273.38
1104.472	5273.38
1109.509	5246.38
1114.54	5195.04
1119.565	5133.71
1124.586	5066.38
1129.602	5009.04
1134.613	4983.04
1139.618	4980.38
1144.619	4958.04
1149.614	4986.04
1154.604	4987.38
1159.589	5016.71
1164.57	5034.04
1169.545	5038.71
1174.515	5038.38
1179.48	5017.04
1184.44	4982.71
1189.395	4948.38
1194.345	4925.38
1199.29	4926.38
1204.23	4903.04
1209.165	4919.38
1214.095	4938.38
1219.021	4977.04
1223.941	5012.04
1228.856	5027.71
1233.766	5039.71
1238.672	5040.71
1243.572	5031.04
1248.467	5001.71
1253.358	4934.71
1258.244	4851.71
1263.124	4791.71
1268	4738.71
1272.871	4693.71
1277.737	4630.38
1282.599	4627.71
1287.455	4644.38
1292.306	4635.38
1297.153	4671.04
1301.995	4703.71
1306.832	4726.38
1311.664	4734.71
1316.491	4736.04
1321.314	4705.71
1326.132	4707.71
1330.945	4685.38
1335.753	4639.71
1340.556	4621.71
1345.354	4614.04
1350.148	4572.04
1354.937	4551.38
1359.722	4480.71
1364.501	4424.04
1369.276	4342.71
1374.046	4271.04
1378.811	4220.38
1383.572	4167.38
1388.327	4138.04
1393.079	4108.04
1397.825	4087.37
1402.567	4061.71
1407.304	4066.71
1412.036	4055.04
1416.764	4055.04
1421.487	4054.37
1426.205	4086.71
1430.919	4118.71
1435.628	4172.04
1440.333	4204.04
1445.032	4236.38
1449.727	4272.04
1454.418	4288.71
1459.104	4292.38
1463.785	4297.04
1468.462	4274.04
1473.134	4265.71
1477.802	4266.04
1482.465	4262.71
1487.123	4267.38
1491.777	4320.38
1496.426	4349.71
1501.071	4380.38
1505.711	4425.71
1510.347	4443.71
1514.978	4448.04
1519.604	4464.38
1524.226	4467.38
1528.844	4421.38
1533.457	4399.38
1538.065	4372.04
1542.669	4357.38
1547.269	4365.71
1551.864	4377.38
1556.454	4426.04
1561.041	4479.04
1565.622	4539.71
1570.199	4604.71
1574.772	4706.71
1579.34	4832.04
1583.904	4932.04
1588.464	5059.38
1593.019	5149.38
1597.569	5229.04
1602.115	5334.71
1606.657	5418.71
1611.195	5511.38
1615.728	5597.38
1620.256	5715.04
1624.78	5838.38
1629.3	5938.71
1633.816	6050.71
1638.327	6171.38
1642.834	6230.38
1647.336	6309.71
1651.834	6305.71
1656.328	6311.71
1660.817	6257.38
1665.302	6178.71
1669.783	6033.71
1674.259	5866.71
1678.732	5702.04
1683.199	5534.04
1687.663	5346.38
1692.122	5131.04
1696.577	4905.04
1701.028	4630.04
1705.474	4403.38
1709.917	4166.38
1714.355	4001.04
1718.788	3873.71
1723.218	3787.04
1727.643	3674.04
1732.064	3575.71
1736.481	3483.04
1740.893	3355.38
1745.301	3250.38
1749.705	3158.04
1754.105	3061.04
1758.501	2978.38
1762.893	2915.71
1767.28	2887.71
1771.663	2869.04
1776.042	2854.71
1780.417	2873.04
1784.787	2886.71
1789.154	2870.04
1793.516	2864.38
1797.874	2820.71
1802.228	2754.38
1806.578	2685.71
1810.924	2601.04
1815.266	2552.38
1819.603	2495.04
1823.937	2475.04
1828.266	2454.71
1832.591	2450.71
1836.913	2456.04
1841.23	2448.04
1845.543	2460.04
1849.852	2471.71
1854.156	2491.04
1858.457	2491.38
1862.754	2512.04
1867.047	2529.04
1871.335	2549.71
1875.62	2565.71
1879.9	2577.71
1884.177	2592.04
1888.449	2581.71
1892.718	2604.71
1896.982	2591.38
1901.243	2606.04
1905.499	2606.38
1909.752	2607.04
1914	2623.38
1918.245	2638.71
1922.485	2656.71
1926.722	2662.71
1930.954	2705.38
1935.183	2852.71
1939.408	2684.71
1943.628	2645.04
1947.845	2633.04
1952.058	2591.04
1956.267	2569.04
1960.472	2539.04
1964.673	2487.38
1968.87	2455.71
1973.063	2421.71
1977.252	2410.71
1981.438	2400.71
1985.619	2398.04
1989.797	2404.04
1993.971	2422.04
1998.14	2421.71
2002.306	2450.04
2006.469	2471.71
2010.627	2463.38
2014.781	2494.04
2018.932	2500.04
2023.078	2512.04
2027.221	2505.04
2031.36	2484.71
2035.495	2501.71
2039.627	2492.71
2043.754	2484.04
2047.878	2499.71
2051.998	2499.71
2056.114	2515.04
2060.226	2552.04
2064.334	2573.04
2068.439	2591.71
2072.54	2623.71
2076.637	2645.38
2080.73	2657.71
2084.82	2677.71
2088.906	2670.38
2092.988	2671.71
2097.066	2644.38
2101.14	2626.04
2105.211	2592.71
2109.278	2564.71
2113.342	2541.38
2117.401	2522.04
2121.457	2496.04
2125.509	2466.38
2129.558	2444.38
2133.602	2432.71
2137.643	2415.71
2141.681	2402.71
2145.714	2395.71
2149.744	2383.38
2153.77	2364.38
2157.793	2349.04
2161.812	2320.71
2165.827	2278.38
2169.838	2245.04
2173.846	2230.71
2177.851	2190.38
2181.851	2157.04
2185.848	2144.38
2189.841	2120.38
2193.831	2110.71
2197.817	2079.04
2201.799	2072.38
2205.778	2070.04
2209.753	2062.38
2213.725	2045.38
2217.693	2036.04
2221.657	2031.38
2225.618	2017.04
2229.575	2005.04
2233.529	1981.38
2237.479	1946.71
2241.425	1925.04
2245.368	1904.38
2249.307	1875.04
2253.243	1833.04
2257.175	1824.71
2261.104	1799.71
2265.029	1788.04
2268.95	1755.38
2272.868	1722.38
2276.783	1702.38
2280.694	1680.38
2284.601	1657.71
2288.505	1640.04
2292.405	1617.38
2296.302	1608.04
2300.195	1589.04
2304.085	1564.38
2307.971	1540.04
2311.854	1516.04
2315.734	1493.04
2319.609	1464.04
2323.482	1455.38
2327.351	1446.04
2331.216	1457.38
2335.078	1448.71
2338.937	1420.71
2342.792	1397.38
2346.643	1389.04
2350.492	1373.38
2354.336	1379.38
2358.178	1384.04
2362.015	1385.38
2365.85	1377.04
2369.681	1382.04
2373.508	1379.04
2377.333	1375.71
2381.153	1368.04
2384.971	1362.71
2388.785	1352.71
2392.595	1353.04
2396.402	1334.38
2400.206	1341.04
2404.007	1335.71
2407.804	1330.38
2411.597	1320.71
2415.388	1314.71
2419.174	1310.04
2422.958	1319.04
2426.738	1302.04
2430.515	1303.38
2434.289	1297.38
2438.059	1295.71
2441.825	1288.71
2445.589	1286.04
2449.349	1276.04
2453.106	1267.38
2456.859	1253.04
2460.61	1243.38
2464.356	1242.71
2468.1	1235.38
2471.84	1227.38
2475.577	1228.04
2479.311	1218.71
2483.041	1224.71
2486.768	1238.38
2490.492	1225.71
2494.213	1238.71
2497.93	1235.04
2501.644	1239.71
2505.355	1236.71
2509.062	1235.38
2512.766	1232.71
2516.467	1228.71
2520.165	1225.04
2523.859	1228.38
2527.551	1225.04
2531.239	1221.71
2534.923	1200.04
2538.605	1208.71
2542.283	1216.38
2545.958	1204.38
2549.63	1206.04
2553.299	1200.71
2556.964	1194.38
2560.626	1192.71
2564.285	1179.04
2567.941	1179.38
2571.594	1165.71
2575.243	1154.71
2578.89	1139.38
2582.533	1138.71
2586.173	1124.38
2589.809	1110.38
2593.443	1103.38
2597.073	1094.04
2600.701	1078.71
2604.325	1077.38
2607.946	1068.38
2611.564	1066.71
2615.178	1058.71
2618.79	1054.38
2622.398	1053.38
2626.004	1040.04
2629.606	1038.04
2633.205	1026.71
2636.801	1021.71
2640.394	1014.71
2643.983	1001.71
2647.57	996.04
2651.153	992.71
2654.734	979.71
2658.311	973.04
2661.885	976.04
2665.456	973.71
2669.025	970.04
2672.589	966.38
2676.151	966.04
2679.71	951.38
2683.266	951.71
2686.819	947.04
2690.368	941.71
2693.915	943.38
2697.458	938.38
2700.999	934.38
2704.536	932.38
2708.071	924.04
2711.602	911.71
2715.13	922.38
2718.656	925.71
2722.178	923.71
2725.697	939.38
2729.214	946.04
2732.727	961.04
2736.237	970.38
2739.744	976.71
2743.249	982.38
2746.75	984.04
2750.248	987.38
2753.743	973.04
2757.236	958.71
2760.725	965.71
2764.211	943.71
2767.695	933.38
2771.175	924.38
2774.652	925.04
2778.127	918.38
2781.598	919.71
2785.067	921.38
2788.532	945.71
2791.995	951.38
2795.455	962.38
2798.911	976.38
2802.365	974.04
2805.816	991.71
2809.264	1003.38
2812.709	1009.04
2816.151	1024.04
2819.59	1026.04
2823.026	1031.04
2826.46	1050.71
2829.89	1046.38
2833.318	1056.04
2836.742	1066.71
2840.164	1066.71
2843.583	1078.04
2846.999	1089.38
2850.412	1101.04
2853.822	1116.71
2857.229	1131.71
2860.634	1135.38
2864.035	1146.04
2867.434	1170.71
2870.83	1179.38
2874.223	1199.04
2877.613	1201.04
2881	1207.38
2884.385	1222.04
2887.766	1227.71
2891.145	1239.38
2894.521	1243.04
2897.894	1258.71
2901.264	1272.04
2904.631	1284.71
2907.996	1297.71
2911.358	1323.71
2914.717	1330.04
2918.073	1355.04
2921.426	1383.04
2924.777	1407.04
2928.124	1429.04
2931.469	1465.71
2934.811	1492.71
2938.15	1512.38
2941.487	1551.04
2944.821	1579.71
2948.152	1611.38
2951.48	1630.71
2954.805	1664.38
2958.128	1692.04
2961.447	1736.04
2964.765	1775.71
2968.079	1805.04
2971.39	1846.04
2974.699	1894.04
2978.005	1944.04
2981.308	1991.38
2984.609	2034.04
2987.907	2088.04
2991.202	2151.38
2994.494	2202.71
2997.784	2247.71
3001.07	2285.38
3004.355	2356.71
3007.636	2403.38
3010.915	2443.38
3014.191	2479.38
3017.464	2529.04
3020.734	2555.38
3024.002	2596.38
3027.267	2661.04
3030.53	2706.04
3033.789	2760.04
3037.046	2816.04
3040.301	2887.71
3043.552	2957.38
3046.801	3046.38
3050.048	3107.04
3053.291	3209.38
3056.532	3294.71
3059.771	3388.04
3063.006	3484.04
3066.239	3599.38
3069.469	3707.38
3072.697	3809.04
3075.922	3915.04
3079.144	4012.04
3082.364	4111.04
3085.581	4223.38
3088.795	4317.38
3092.007	4402.38
3095.216	4488.38
3098.423	4604.38
3101.627	4692.71
3104.828	4806.04
3108.026	4907.04
3111.222	5022.71
3114.416	5135.71
3117.607	5239.71
3120.795	5351.71
3123.98	5481.71
3127.163	5597.38
3130.344	5707.38
3133.521	5847.38
3136.696	5984.04
3139.869	6079.38
3143.039	6166.38
3146.206	6268.71
3149.371	6348.71
3152.533	6430.04
3155.693	6478.04
3158.85	6525.04
3162.005	6535.38
3165.157	6601.04
3168.306	6609.71
3171.453	6643.71
3174.597	6646.38
3177.739	6704.71
3180.878	6728.38
3184.014	6754.04
3187.149	6770.04
3190.28	6812.38
3193.409	6824.71
3196.536	6868.38
3199.659	6893.38
3202.781	6933.71
3205.9	6948.38
3209.016	6942.71
3212.13	6952.04
3215.241	6933.38
3218.35	6911.04
3221.456	6865.71
3224.56	6832.04
3227.661	6778.71
3230.76	6758.38
3233.856	6682.71
3236.95	6663.71
3240.041	6625.71
3243.13	6574.38
3246.216	6538.38
3249.3	6521.38
3252.382	6489.71
3255.46	6466.04
3258.537	6451.04
3261.611	6422.38
3264.682	6402.38
3267.751	6384.38
3270.818	6357.38
3273.882	6313.04
3276.943	6288.38
3280.002	6245.71
3283.059	6167.04
3286.113	6100.38
3289.165	6026.38
3292.214	5942.71
3295.261	5876.38
3298.306	5787.04
3301.348	5695.38
3304.387	5636.04
3307.425	5553.04
3310.459	5501.04
3313.492	5444.71
3316.521	5392.71
3319.549	5337.71
3322.574	5294.71
3325.597	5280.71
3328.617	5247.71
3331.635	5212.71
3334.65	5198.71
3337.663	5174.71
3340.674	5170.38
3343.682	5150.71
3346.688	5139.04
3349.691	5129.04
3352.692	5092.38
3355.691	5087.71
3358.687	5048.71
3361.681	5022.38
3364.673	4986.04
3367.662	4894.38
3370.649	4858.71
3373.633	4813.04
3376.615	4758.04
3379.595	4708.38
3382.572	4651.04
3385.547	4596.71
3388.52	4549.71
3391.49	4508.38
3394.458	4456.38
3397.424	4435.38
3400.387	4373.38
3403.348	4338.71
3406.307	4298.04
3409.263	4263.04
3412.217	4247.04
3415.168	4206.71
3418.118	4162.71
3421.065	4133.38
3424.009	4086.71
3426.951	4042.37
3429.891	3999.04
3432.829	3948.38
3435.764	3893.04
3438.697	3821.04
3441.628	3741.04
3444.557	3663.04
3447.483	3586.04
3450.407	3516.04
3453.328	3446.38
3456.247	3361.38
3459.164	3288.38
3462.079	3211.04
3464.991	3123.38
3467.902	3061.04
3470.809	2989.38
3473.715	2925.38
3476.618	2856.71
3479.519	2796.71
3482.418	2724.71
3485.315	2681.04
3488.209	2616.04
3491.101	2554.38
3493.99	2524.38
3496.878	2453.04
3499.763	2402.04
3502.646	2348.71
3505.527	2285.38
3508.405	2221.71
3511.281	2167.71
3514.155	2094.71
3517.027	2033.04
3519.897	1963.71
3522.764	1901.71
3525.629	1826.38
3528.492	1763.71
3531.352	1713.38
3534.211	1638.38
3537.067	1590.71
3539.921	1534.71
3542.773	1477.71
3545.622	1416.71
3548.469	1359.71
3551.315	1327.04
3554.157	1278.71
3556.998	1237.04
3559.837	1209.38
3562.673	1169.04
3565.507	1128.38
3568.339	1094.04
3571.169	1068.71
3573.996	1028.71
3576.822	999.38
3579.645	959.04
3582.466	932.04
3585.285	893.71
3588.101	872.38
3590.916	838.04
3593.728	809.04
3596.538	774.71
3599.346	755.38
3602.152	726.04
3604.956	686.38
3607.757	668.04
3610.556	637.71
3613.354	624.38
3616.149	600.38
3618.942	579.38
3621.732	551.38
3624.521	540.71
3627.307	525.71
3630.092	512.04
3632.874	493.38
3635.654	477.71
3638.432	468.38
3641.208	446.04
3643.982	426.38
3646.753	411.04
3649.523	395.38
3652.29	388.38
3655.055	369.71
3657.818	357.38
3660.579	340.38
3663.338	327.38
3666.095	311.71
3668.849	298.04
3671.602	283.71
3674.352	277.71
3677.101	260.04
3679.847	250.71
3682.591	237.38
3685.333	226.71
3688.073	220.71
3690.811	214.38
3693.547	209.04
3696.281	199.04
3699.013	191.38
3701.742	181.04
3704.47	177.04
3707.195	172.38
3709.919	163.71
3712.64	159.38
3715.359	153.38
3718.076	147.38
3720.792	135.38
3723.505	135.71
3726.216	132.38
3728.925	124.71
3731.632	121.38
3734.336	122.71
3737.039	115.38
3739.74	108.38
3742.439	101.38
3745.136	102.04
3747.83	100.71
3750.523	98.38
3753.213	84.38
3755.902	88.71
3758.589	91.04
3761.273	88.38
3763.956	83.71
3766.636	78.71
3769.315	81.71
3771.991	73.04
3774.665	74.04
3777.338	69.38
3780.008	69.71
3782.677	71.04
3785.343	70.04
3788.007	62.04
3790.67	68.04
3793.33	64.38
3795.989	58.04
3798.645	60.04
3801.299	59.38
3803.952	52.38
3806.602	55.38
3809.251	57.71
3811.897	51.38
3814.542	52.04
3817.184	52.04
3819.825	51.71
3822.463	51.71
3825.1	47.71
3827.735	50.38
3830.367	45.38
3832.998	43.04
3835.627	45.71
3838.253	45.04
3840.878	40.71
3843.501	40.38
3846.122	36.38
3848.741	36.38
3851.358	38.71
3853.973	38.38
3856.586	37.04
3859.197	36.38
3861.806	36.04
3864.414	33.04
3867.019	38.38
3869.622	36.38
3872.224	43.04
3874.823	57.38
3877.421	63.71
3880.016	82.71
3882.61	93.38
3885.202	101.04
3887.792	84.04
3890.38	60.71
3892.966	20.04
3895.55	19.04
3898.132	31.71
3900.713	25.38
3903.291	28.71
3905.868	28.71
3908.442	25.04
3911.015	23.38
3913.586	22.71
3916.155	28.38
3918.722	17.71
3921.287	20.38
3923.85	22.04
3926.411	20.38
3928.971	17.71
3931.528	18.71
3934.084	16.38
3936.638	16.71
3939.19	17.38
3941.74	18.04
3944.288	18.71
3946.834	17.71
3949.378	19.71
3951.921	19.38
3954.462	20.71
3957	25.04
3959.537	21.71
3962.072	22.04
3964.606	22.38
3967.137	23.38
3969.667	22.04
3972.194	24.38
3974.72	22.71
3977.244	27.38
3979.766	31.04
3982.286	22.71
3984.805	24.71
3987.321	30.04
3989.836	28.71
3992.349	33.04
3994.86	31.04
3997.369	26.38
3999.877	29.71
4002.382	27.38
4004.886	28.71
4007.388	33.38
4009.888	27.38
4012.386	26.04
4014.883	26.38
4017.377	26.04
4019.87	25.38
4022.361	27.38
4024.85	24.04
4027.338	24.38
4029.823	25.71
4032.307	20.71
4034.789	23.04
4037.269	24.71
4039.747	24.04
4042.224	22.38
4044.699	24.38
4047.172	22.71
4049.643	23.04
4052.112	23.04
4054.58	21.04
4057.046	24.04
4059.51	22.71
4061.972	20.71
4064.432	24.04
4066.891	20.04
4069.348	20.04
4071.803	21.71
4074.256	23.04
4076.708	23.04
4079.158	20.71
4081.606	19.04
4084.052	19.38
4086.497	23.71
4088.939	22.71
4091.38	23.38
4093.819	27.71
4096.257	3.04
4098.693	0.38
4101.127	-1.29
4103.559	-0.96
4105.989	222.04
4108.418	232.04
4110.845	255.71
4113.27	275.04
4115.694	307.38
4118.115	351.04
4120.535	22.04
4122.954	24.38
4125.37	20.38
4127.785	18.04
4130.198	21.71
4132.609	22.71
4135.019	-2.96
4137.427	1.38
4139.833	-0.96
4142.237	1.38
