160.701	609.79
166.742	797.13
172.777	1347.13
178.805	3085.79
184.826	7448.79
190.841	15361.46
196.849	24985.46
202.85	32077.12
208.845	34204.12
214.833	33347.79
220.815	31934.46
226.789	30970.12
232.758	30062.79
238.719	29118.46
244.674	28039.46
250.623	26860.79
256.565	25615.46
262.5	24377.79
268.429	23297.46
274.351	22385.79
280.267	21503.13
286.176	20732.79
292.079	20119.79
297.975	19469.46
303.865	18909.79
309.748	18461.46
315.625	18048.46
321.495	17752.79
327.359	17526.46
333.217	17350.12
339.068	17264.46
344.912	17173.79
350.751	17089.46
356.583	17081.46
362.408	17059.46
368.227	17107.79
374.04	17215.13
379.847	17407.46
385.647	17620.46
391.44	17575.79
397.228	17458.79
403.009	17543.12
408.784	17760.13
414.553	18234.46
420.315	18847.46
426.071	19005.46
431.821	18452.46
437.565	17740.12
443.302	17523.79
449.033	17383.46
454.758	17288.79
460.477	17137.46
466.189	17036.13
471.896	16877.12
477.596	16795.79
483.29	16675.13
488.978	16585.46
494.66	16444.46
500.335	16226.13
506.005	15934.79
511.668	15597.13
517.325	15268.79
522.977	14986.79
528.622	14775.12
534.261	14536.46
539.894	14362.46
545.521	14232.46
551.141	14137.46
556.756	13992.46
562.365	13917.46
567.968	13781.13
573.565	13685.79
579.155	13638.13
584.74	13517.79
590.319	13400.79
595.892	13270.12
601.459	13161.79
607.02	13057.46
612.575	12898.12
618.124	12760.46
623.667	12616.46
629.204	12520.12
634.735	12445.46
640.261	12472.79
645.781	12572.79
651.294	12609.46
656.802	12440.46
662.304	12147.46
667.8	11929.46
673.29	11826.79
678.775	11735.12
684.254	11630.46
689.726	11560.46
695.193	11467.46
700.655	11333.79
706.11	11259.13
711.56	11138.79
717.004	11050.12
722.442	10970.13
727.874	10877.79
733.301	10777.79
738.722	10750.13
744.137	10722.79
749.547	10713.46
754.951	10675.79
760.349	10614.79
765.741	10520.79
771.128	10436.79
776.509	10427.13
781.885	10372.79
787.254	10279.12
792.618	10213.46
797.977	10123.79
803.33	10017.12
808.677	9880.79
814.019	9758.46
819.355	9629.13
824.686	9496.79
830.011	9412.13
835.33	9338.12
840.644	9248.79
845.952	9164.46
851.255	9108.12
856.552	9006.46
861.844	8911.46
867.13	8838.79
872.41	8734.79
877.686	8637.79
882.955	8477.79
888.219	8357.46
893.478	8194.12
898.731	8055.79
903.979	7940.79
909.221	7842.79
914.458	7760.12
919.69	7696.12
924.916	7658.13
930.136	7659.13
935.351	7597.46
940.561	7569.12
945.766	7513.79
950.965	7453.46
956.158	7366.46
961.347	7288.46
966.529	7173.12
971.707	7059.46
976.879	6962.13
982.046	6859.46
987.208	6846.79
992.364	6827.12
997.515	6836.12
1002.66	6855.79
1007.801	6906.79
1012.936	6924.13
1018.066	6969.46
1023.19	6991.12
1028.309	6978.12
1033.423	6959.79
1038.532	6905.46
1043.636	6840.46
1048.734	6797.12
1053.827	6707.46
1058.915	6653.12
1063.998	6604.12
1069.075	6561.79
1074.147	6565.46
1079.214	6584.46
1084.276	6606.46
1089.333	6637.46
1094.385	6667.46
1099.431	6696.79
1104.472	6670.12
1109.509	6639.12
1114.54	6546.79
1119.565	6493.46
1124.586	6412.12
1129.602	6319.46
1134.613	6293.46
1139.618	6265.13
1144.619	6251.12
1149.614	6279.46
1154.604	6291.46
1159.589	6320.46
1164.57	6333.79
1169.545	6341.12
1174.515	6352.46
1179.48	6325.12
1184.44	6283.12
1189.395	6221.79
1194.345	6219.12
1199.29	6156.79
1204.23	6169.46
1209.165	6189.12
1214.095	6228.79
1219.021	6250.46
1223.941	6292.12
1228.856	6301.79
1233.766	6321.79
1238.672	6324.46
1243.572	6317.12
1248.467	6265.12
1253.358	6189.79
1258.244	6100.79
1263.124	6007.12
1268	5920.46
1272.871	5849.13
1277.737	5811.12
1282.599	5771.79
1287.455	5778.46
1292.306	5803.46
1297.153	5840.12
1301.995	5869.79
1306.832	5893.46
1311.664	5900.46
1316.491	5904.79
1321.314	5854.46
1326.132	5840.12
1330.945	5758.79
1335.753	5686.79
1340.556	5643.46
1345.354	5589.79
1350.148	5538.46
1354.937	5479.46
1359.722	5402.79
1364.501	5342.13
1369.276	5274.79
1374.046	5238.46
1378.811	5207.46
1383.572	5173.12
1388.327	5131.12
1393.079	5103.46
1397.825	5060.79
1402.567	5041.46
1407.304	5002.12
1412.036	5000.79
1416.764	4959.79
1421.487	4979.79
1426.205	5011.13
1430.919	5029.79
1435.628	5088.79
1440.333	5141.46
1445.032	5149.79
1449.727	5189.46
1454.418	5221.13
1459.104	5205.12
1463.785	5164.79
1468.462	5133.13
1473.134	5107.46
1477.802	5092.12
1482.465	5084.13
1487.123	5070.13
1491.777	5123.13
1496.426	5164.12
1501.071	5198.46
1505.711	5240.79
1510.347	5260.79
1514.978	5293.46
1519.604	5319.12
1524.226	5337.79
1528.844	5317.12
1533.457	5298.46
1538.065	5279.13
1542.669	5277.46
1547.269	5300.79
1551.864	5329.46
1556.454	5384.79
1561.041	5482.12
1565.622	5552.46
1570.199	5660.79
1574.772	5775.46
1579.34	5939.12
1583.904	6084.79
1588.464	6237.12
1593.019	6355.79
1597.569	6510.46
1602.115	6620.46
1606.657	6758.46
1611.195	6858.13
1615.728	6985.79
1620.256	7148.46
1624.78	7284.79
1629.3	7436.79
1633.816	7574.13
1638.327	7716.46
1642.834	7821.79
1647.336	7901.12
1651.834	7939.79
1656.328	7894.79
1660.817	7827.12
1665.302	7676.79
1669.783	7504.79
1674.259	7270.12
1678.732	7023.13
1683.199	6758.46
1687.663	6495.79
1692.122	6197.79
1696.577	5876.12
1701.028	5587.12
1705.474	5315.46
1709.917	5068.46
1714.355	4836.79
1718.788	4676.46
1723.218	4538.12
1727.643	4400.46
1732.064	4253.79
1736.481	4107.46
1740.893	3975.79
1745.301	3822.13
1749.705	3685.12
1754.105	3560.13
1758.501	3443.13
1762.893	3357.79
1767.28	3302.46
1771.663	3263.46
1776.042	3203.79
1780.417	3203.13
1784.787	3193.46
1789.154	3160.13
1793.516	3124.79
1797.874	3075.12
1802.228	3012.46
1806.578	2947.13
1810.924	2866.13
1815.266	2804.46
1819.603	2764.12
1823.937	2741.46
1828.266	2719.46
1832.591	2713.79
1836.913	2703.79
1841.23	2697.12
1845.543	2700.46
1849.852	2711.79
1854.156	2732.79
1858.457	2726.13
1862.754	2746.13
1867.047	2743.13
1871.335	2766.46
1875.62	2773.46
1879.9	2776.12
1884.177	2779.79
1888.449	2774.79
1892.718	2764.13
1896.982	2765.46
1901.243	2754.46
1905.499	2749.46
1909.752	2764.46
1914	2763.79
1918.245	2770.79
1922.485	2787.79
1926.722	2795.79
1930.954	2818.46
1935.183	2810.13
1939.408	2797.13
1943.628	2801.12
1947.845	2786.13
1952.058	2752.46
1956.267	2739.46
1960.472	2691.46
1964.673	2659.12
1968.87	2625.79
1973.063	2610.79
1977.252	2596.13
1981.438	2598.13
1985.619	2603.13
1989.797	2607.13
1993.971	2616.79
1998.14	2639.79
2002.306	2656.46
2006.469	2699.13
2010.627	2700.13
2014.781	2720.13
2018.932	2730.79
2023.078	2728.46
2027.221	2725.12
2031.36	2727.13
2035.495	2717.79
2039.627	2710.79
2043.754	2697.13
2047.878	2709.13
2051.998	2726.13
2056.114	2734.12
2060.226	2767.46
2064.334	2783.13
2068.439	2822.79
2072.54	2833.79
2076.637	2873.46
2080.73	2882.79
2084.82	2891.13
2088.906	2902.79
2092.988	2888.12
2097.066	2872.13
2101.14	2848.79
2105.211	2827.13
2109.278	2809.79
2113.342	2781.12
2117.401	2739.79
2121.457	2718.79
2125.509	2708.46
2129.558	2683.13
2133.602	2661.12
2137.643	2658.13
2141.681	2633.79
2145.714	2620.46
2149.744	2602.79
2153.77	2580.46
2157.793	2554.46
2161.812	2533.46
2165.827	2498.46
2169.838	2461.46
2173.846	2438.13
2177.851	2387.13
2181.851	2344.79
2185.848	2324.46
2189.841	2296.79
2193.831	2263.79
2197.817	2248.46
2201.799	2236.13
2205.778	2212.79
2209.753	2188.46
2213.725	2192.79
2217.693	2171.13
2221.657	2156.79
2225.618	2154.13
2229.575	2134.46
2233.529	2100.79
2237.479	2063.13
2241.425	2022.79
2245.368	2003.13
2249.307	1987.12
2253.243	1936.13
2257.175	1909.46
2261.104	1881.13
2265.029	1852.46
2268.95	1831.46
2272.868	1792.46
2276.783	1765.13
2280.694	1749.79
2284.601	1726.46
2288.505	1707.79
2292.405	1682.46
2296.302	1652.79
2300.195	1626.79
2304.085	1603.46
2307.971	1566.13
2311.854	1557.79
2315.734	1534.46
2319.609	1511.46
2323.482	1490.79
2327.351	1472.79
2331.216	1486.13
2335.078	1485.46
2338.937	1455.46
2342.792	1438.46
2346.643	1411.13
2350.492	1418.79
2354.336	1422.13
2358.178	1416.79
2362.015	1413.46
2365.85	1426.46
2369.681	1417.46
2373.508	1410.46
2377.333	1405.46
2381.153	1422.79
2384.971	1401.79
2388.785	1396.13
2392.595	1386.13
2396.402	1370.13
2400.206	1375.79
2404.007	1363.46
2407.804	1350.79
2411.597	1349.13
2415.388	1353.79
2419.174	1336.79
2422.958	1334.79
2426.738	1341.46
2430.515	1325.79
2434.289	1316.46
2438.059	1308.46
2441.825	1309.46
2445.589	1297.79
2449.349	1292.13
2453.106	1282.79
2456.859	1267.13
2460.61	1247.46
2464.356	1236.79
2468.1	1238.13
2471.84	1229.79
2475.577	1211.46
2479.311	1218.79
2483.041	1214.13
2486.768	1219.46
2490.492	1223.79
2494.213	1214.79
2497.93	1212.13
2501.644	1198.13
2505.355	1202.46
2509.062	1200.46
2512.766	1195.79
2516.467	1197.46
2520.165	1189.79
2523.859	1172.46
2527.551	1178.46
2531.239	1171.13
2534.923	1159.79
2538.605	1161.79
2542.283	1144.79
2545.958	1137.46
2549.63	1139.13
2553.299	1133.79
2556.964	1121.46
2560.626	1118.13
2564.285	1110.46
2567.941	1099.79
2571.594	1100.13
2575.243	1082.13
2578.89	1081.46
2582.533	1072.79
2586.173	1054.46
2589.809	1046.13
2593.443	1041.46
2597.073	1028.79
2600.701	1018.46
2604.325	1012.13
2607.946	1002.46
2611.564	1003.79
2615.178	998.46
2618.79	1000.13
2622.398	994.46
2626.004	989.13
2629.606	988.79
2633.205	976.79
2636.801	977.13
2640.394	963.79
2643.983	962.13
2647.57	951.79
2651.153	946.79
2654.734	939.13
2658.311	946.13
2661.885	943.79
2665.456	932.46
2669.025	937.13
2672.589	926.79
2676.151	928.46
2679.71	922.46
2683.266	926.79
2686.819	924.46
2690.368	916.46
2693.915	924.13
2697.458	909.79
2700.999	908.79
2704.536	902.46
2708.071	911.46
2711.602	903.46
2715.13	904.79
2718.656	905.79
2722.178	906.46
2725.697	913.79
2729.214	919.79
2732.727	933.79
2736.237	935.46
2739.744	945.13
2743.249	950.13
2746.75	959.13
2750.248	954.46
2753.743	949.13
2757.236	944.46
2760.725	944.13
2764.211	946.13
2767.695	939.13
2771.175	940.46
2774.652	934.13
2778.127	943.13
2781.598	949.79
2785.067	963.79
2788.532	974.13
2791.995	988.46
2795.455	1004.46
2798.911	1022.13
2802.365	1032.79
2805.816	1039.46
2809.264	1060.46
2812.709	1070.13
2816.151	1084.79
2819.59	1098.46
2823.026	1107.46
2826.46	1114.46
2829.89	1122.79
2833.318	1143.13
2836.742	1160.79
2840.164	1156.13
2843.583	1185.46
2846.999	1200.79
2850.412	1217.46
2853.822	1231.13
2857.229	1260.46
2860.634	1277.46
2864.035	1286.79
2867.434	1311.79
2870.83	1330.79
2874.223	1356.79
2877.613	1369.79
2881	1379.46
2884.385	1400.46
2887.766	1410.13
2891.145	1430.13
2894.521	1447.46
2897.894	1458.79
2901.264	1474.13
2904.631	1498.13
2907.996	1510.79
2911.358	1541.79
2914.717	1571.79
2918.073	1600.46
2921.426	1634.79
2924.777	1659.46
2928.124	1714.13
2931.469	1740.46
2934.811	1781.79
2938.15	1821.13
2941.487	1869.79
2944.821	1901.13
2948.152	1937.13
2951.48	1971.13
2954.805	2015.79
2958.128	2063.79
2961.447	2097.13
2964.765	2156.46
2968.079	2196.46
2971.39	2271.46
2974.699	2333.13
2978.005	2390.13
2981.308	2459.79
2984.609	2534.79
2987.907	2591.79
2991.202	2676.79
2994.494	2758.46
2997.784	2833.79
3001.07	2894.79
3004.355	2972.79
3007.636	3031.13
3010.915	3101.46
3014.191	3171.13
3017.464	3210.46
3020.734	3276.46
3024.002	3332.79
3027.267	3406.46
3030.53	3456.79
3033.789	3537.79
3037.046	3631.46
3040.301	3720.13
3043.552	3802.13
3046.801	3896.79
3050.048	4010.46
3053.291	4144.13
3056.532	4248.12
3059.771	4384.46
3063.006	4526.12
3066.239	4659.46
3069.469	4803.12
3072.697	4943.79
3075.922	5097.79
3079.144	5227.12
3082.364	5349.12
3085.581	5489.79
3088.795	5645.12
3092.007	5751.12
3095.216	5911.79
3098.423	6051.79
3101.627	6186.46
3104.828	6334.46
3108.026	6475.46
3111.222	6632.46
3114.416	6784.12
3117.607	6923.46
3120.795	7112.46
3123.98	7276.79
3127.163	7448.79
3130.344	7641.13
3133.521	7789.79
3136.696	7944.12
3139.869	8089.46
3143.039	8257.12
3146.206	8368.46
3149.371	8475.46
3152.533	8592.46
3155.693	8660.79
3158.85	8707.46
3162.005	8761.46
3165.157	8827.79
3168.306	8865.46
3171.453	8887.46
3174.597	8941.46
3177.739	8964.13
3180.878	9017.12
3184.014	9056.46
3187.149	9081.13
3190.28	9110.46
3193.409	9147.12
3196.536	9200.79
3199.659	9265.79
3202.781	9303.12
3205.9	9341.79
3209.016	9351.79
3212.13	9363.79
3215.241	9327.46
3218.35	9277.79
3221.456	9256.46
3224.56	9203.12
3227.661	9171.46
3230.76	9100.79
3233.856	9036.79
3236.95	8995.13
3240.041	8934.79
3243.13	8911.79
3246.216	8869.79
3249.3	8830.46
3252.382	8797.12
3255.46	8759.12
3258.537	8733.46
3261.611	8713.46
3264.682	8691.79
3267.751	8675.46
3270.818	8663.13
3273.882	8591.12
3276.943	8540.79
3280.002	8454.46
3283.059	8369.79
3286.113	8268.79
3289.165	8149.46
3292.214	8057.46
3295.261	7919.46
3298.306	7818.79
3301.348	7703.13
3304.387	7583.13
3307.425	7482.79
3310.459	7430.12
3313.492	7307.46
3316.521	7233.13
3319.549	7157.79
3322.574	7106.79
3325.597	7063.46
3328.617	7038.12
3331.635	6989.79
3334.65	6980.12
3337.663	6940.46
3340.674	6900.46
3343.682	6909.79
3346.688	6870.13
3349.691	6878.79
3352.692	6846.46
3355.691	6821.79
3358.687	6755.12
3361.681	6723.46
3364.673	6649.46
3367.662	6598.79
3370.649	6508.13
3373.633	6436.12
3376.615	6366.79
3379.595	6318.79
3382.572	6247.46
3385.547	6183.12
3388.52	6105.79
3391.49	6056.46
3394.458	6005.79
3397.424	5933.79
3400.387	5880.79
3403.348	5829.79
3406.307	5789.46
3409.263	5751.12
3412.217	5681.79
3415.168	5650.79
3418.118	5601.46
3421.065	5553.79
3424.009	5497.46
3426.951	5452.46
3429.891	5384.46
3432.829	5312.13
3435.764	5227.46
3438.697	5153.12
3441.628	5040.79
3444.557	4964.79
3447.483	4843.46
3450.407	4753.79
3453.328	4631.46
3456.247	4549.12
3459.164	4441.13
3462.079	4337.46
3464.991	4243.79
3467.902	4132.79
3470.809	4040.13
3473.715	3954.13
3476.618	3884.46
3479.519	3783.79
3482.418	3707.12
3485.315	3628.12
3488.209	3555.13
3491.101	3487.79
3493.99	3412.46
3496.878	3324.13
3499.763	3268.12
3502.646	3204.13
3505.527	3117.12
3508.405	3023.79
3511.281	2942.46
3514.155	2846.46
3517.027	2773.46
3519.897	2676.46
3522.764	2585.79
3525.629	2481.46
3528.492	2386.79
3531.352	2313.13
3534.211	2223.79
3537.067	2142.13
3539.921	2071.13
3542.773	1994.79
3545.622	1931.79
3548.469	1854.46
3551.315	1791.12
3554.157	1734.46
3556.998	1666.46
3559.837	1623.79
3562.673	1585.46
3565.507	1528.46
3568.339	1462.13
3571.169	1432.46
3573.996	1385.46
3576.822	1341.13
3579.645	1294.79
3582.466	1261.79
3585.285	1210.13
3588.101	1160.13
3590.916	1124.46
3593.728	1090.79
3596.538	1045.79
3599.346	1009.13
3602.152	962.46
3604.956	932.46
3607.757	906.46
3610.556	859.13
3613.354	831.46
3616.149	807.46
3618.942	776.79
3621.732	748.13
3624.521	721.79
3627.307	702.13
3630.092	683.79
3632.874	657.46
3635.654	632.13
3638.432	618.46
3641.208	597.46
3643.982	575.79
3646.753	545.13
3649.523	536.13
3652.29	512.46
3655.055	491.46
3657.818	468.46
3660.579	446.13
3663.338	429.13
3666.095	413.13
3668.849	393.79
3671.602	376.79
3674.352	362.46
3677.101	344.79
3679.847	327.79
3682.591	309.79
3685.333	306.46
3688.073	292.46
3690.811	279.13
3693.547	272.46
3696.281	259.13
3699.013	246.13
3701.742	240.79
3704.47	231.46
3707.195	218.79
3709.919	214.13
3712.64	206.79
3715.359	199.79
3718.076	187.13
3720.792	182.13
3723.505	175.13
3726.216	166.79
3728.925	168.13
3731.632	156.46
3734.336	155.79
3737.039	140.79
3739.74	138.79
3742.439	133.13
3745.136	129.13
3747.83	125.79
3750.523	122.13
3753.213	120.13
3755.902	118.13
3758.589	113.46
3761.273	113.79
3763.956	108.46
3766.636	104.13
3769.315	106.13
3771.991	96.79
3774.665	95.46
3777.338	87.79
3780.008	92.46
3782.677	91.13
3785.343	91.46
3788.007	80.79
3790.67	80.46
3793.33	82.79
3795.989	75.13
3798.645	74.46
3801.299	72.46
3803.952	70.79
3806.602	69.46
3809.251	68.46
3811.897	65.46
3814.542	64.79
3817.184	64.79
3819.825	62.13
3822.463	61.46
3825.1	57.46
3827.735	61.79
3830.367	61.13
3832.998	52.79
3835.627	59.46
3838.253	57.46
3840.878	49.46
3843.501	51.13
3846.122	49.46
3848.741	50.13
3851.358	49.13
3853.973	51.13
3856.586	47.13
3859.197	48.79
3861.806	46.79
3864.414	47.79
3867.019	51.46
3869.622	54.13
3872.224	66.13
3874.823	91.13
3877.421	123.79
3880.016	163.13
3882.61	208.79
3885.202	220.79
3887.792	180.46
3890.38	122.13
3892.966	56.46
3895.55	41.79
3898.132	46.13
3900.713	38.46
3903.291	31.46
3905.868	37.79
3908.442	31.79
3911.015	30.46
3913.586	29.79
3916.155	27.79
3918.722	23.46
3921.287	26.79
3923.85	26.46
3926.411	24.79
3928.971	26.79
3931.528	27.13
3934.084	27.13
3936.638	23.13
3939.19	23.79
3941.74	22.13
3944.288	28.13
3946.834	26.79
3949.378	24.13
3951.921	21.46
3954.462	23.46
3957	29.46
3959.537	31.79
3962.072	33.79
3964.606	27.46
3967.137	31.13
3969.667	27.79
3972.194	27.46
3974.72	30.46
3977.244	31.79
3979.766	37.46
3982.286	32.46
3984.805	37.13
3987.321	37.79
3989.836	37.79
3992.349	45.46
3994.86	40.46
3997.369	37.79
3999.877	43.13
4002.382	41.46
4004.886	37.13
4007.388	38.79
4009.888	39.79
4012.386	33.46
4014.883	35.46
4017.377	36.13
4019.87	33.46
4022.361	35.46
4024.85	36.46
4027.338	34.79
4029.823	38.13
4032.307	34.13
4034.789	30.79
4037.269	32.79
4039.747	31.46
4042.224	26.46
4044.699	29.13
4047.172	28.79
4049.643	29.46
4052.112	27.79
4054.58	25.13
4057.046	28.46
4059.51	28.46
4061.972	28.13
4064.432	30.13
4066.891	26.13
4069.348	28.46
4071.803	24.79
4074.256	28.79
4076.708	28.13
4079.158	28.13
4081.606	26.79
4084.052	29.79
4086.497	29.13
4088.939	26.46
4091.38	33.79
4093.819	29.79
4096.257	6.13
4098.693	-1.21
4101.127	-2.21
4103.559	-1.21
4105.989	390.46
4108.418	393.79
4110.845	422.79
4113.27	439.46
4115.694	471.13
4118.115	532.79
4120.535	28.13
4122.954	29.46
4125.37	31.13
4127.785	27.79
4130.198	30.79
4132.609	29.46
4135.019	-5.21
4137.427	0.79
4139.833	2.13
4142.237	0.79
