160.701	623.08
166.742	819.08
172.777	1414.75
178.805	3268.42
184.826	7950.08
190.841	16407.75
196.849	26739.75
202.85	34274.42
208.845	36543.75
214.833	35524.75
220.815	34095.08
226.789	33029.42
232.758	32071.42
238.719	31032.42
244.674	29850.08
250.623	28600.42
256.565	27255.42
262.5	25969.42
268.429	24826.08
274.351	23786.75
280.267	22834.42
286.176	22020.75
292.079	21299.08
297.975	20591.08
303.865	20059.42
309.748	19574.08
315.625	19132.75
321.495	18788.42
327.359	18541.75
333.217	18327.42
339.068	18235.42
344.912	18154.42
350.751	18086.08
356.583	18032.75
362.408	18058.42
368.227	18084.08
374.04	18207.08
379.847	18413.42
385.647	18580.75
391.44	18573.08
397.228	18481.42
403.009	18533.42
408.784	18767.42
414.553	19325.08
420.315	20009.75
426.071	20094.75
431.821	19441.42
437.565	18804.42
443.302	18553.42
449.033	18387.75
454.758	18250.08
460.477	18107.42
466.189	17999.08
471.896	17885.42
477.596	17766.42
483.29	17654.42
488.978	17528.42
494.66	17360.75
500.335	17154.42
506.005	16832.42
511.668	16475.75
517.325	16132.75
522.977	15861.75
528.622	15614.42
534.261	15391.75
539.894	15239.75
545.521	15069.08
551.141	14924.75
556.756	14803.75
562.365	14675.42
567.968	14581.75
573.565	14425.75
579.155	14390.08
584.74	14245.42
590.319	14124.75
595.892	14016.42
601.459	13897.42
607.02	13759.08
612.575	13617.75
618.124	13451.08
623.667	13320.75
629.204	13196.42
634.735	13121.42
640.261	13171.08
645.781	13226.08
651.294	13309.42
656.802	13111.08
662.304	12814.08
667.8	12590.08
673.29	12462.42
678.775	12350.75
684.254	12263.08
689.726	12155.75
695.193	12083.08
700.655	11952.08
706.11	11852.75
711.56	11732.08
717.004	11637.08
722.442	11548.75
727.874	11450.75
733.301	11381.75
738.722	11292.08
744.137	11254.75
749.547	11260.75
754.951	11262.75
760.349	11183.42
765.741	11084.08
771.128	10969.75
776.509	10953.75
781.885	10909.08
787.254	10830.42
792.618	10761.75
797.977	10671.42
803.33	10537.42
808.677	10426.75
814.019	10293.42
819.355	10174.08
824.686	10001.42
830.011	9917.42
835.33	9854.08
840.644	9760.08
845.952	9665.42
851.255	9607.42
856.552	9504.08
861.844	9404.08
867.13	9307.75
872.41	9186.08
877.686	9069.42
882.955	8932.75
888.219	8797.75
893.478	8650.08
898.731	8467.75
903.979	8347.75
909.221	8231.42
914.458	8154.42
919.69	8071.75
924.916	8037.75
930.136	8022.08
935.351	7979.75
940.561	7957.42
945.766	7889.75
950.965	7822.75
956.158	7765.75
961.347	7646.42
966.529	7522.08
971.707	7410.75
976.879	7316.75
982.046	7223.42
987.208	7177.75
992.364	7155.75
997.515	7176.75
1002.66	7170.08
1007.801	7227.42
1012.936	7264.75
1018.066	7327.42
1023.19	7339.08
1028.309	7335.42
1033.423	7308.08
1038.532	7264.75
1043.636	7210.42
1048.734	7110.75
1053.827	7035.75
1058.915	6973.08
1063.998	6931.08
1069.075	6889.08
1074.147	6874.08
1079.214	6917.08
1084.276	6947.75
1089.333	6971.42
1094.385	6994.08
1099.431	7028.08
1104.472	6997.75
1109.509	6976.75
1114.54	6900.08
1119.565	6822.08
1124.586	6716.42
1129.602	6647.08
1134.613	6607.75
1139.618	6577.42
1144.619	6591.42
1149.614	6579.75
1154.604	6613.42
1159.589	6617.75
1164.57	6645.42
1169.545	6652.08
1174.515	6697.42
1179.48	6649.75
1184.44	6596.75
1189.395	6544.75
1194.345	6510.08
1199.29	6464.75
1204.23	6488.08
1209.165	6499.42
1214.095	6514.08
1219.021	6559.08
1223.941	6596.75
1228.856	6655.08
1233.766	6658.75
1238.672	6639.75
1243.572	6619.75
1248.467	6581.75
1253.358	6505.75
1258.244	6423.42
1263.124	6307.08
1268	6231.42
1272.871	6159.08
1277.737	6112.75
1282.599	6071.08
1287.455	6083.75
1292.306	6104.42
1297.153	6133.42
1301.995	6166.42
1306.832	6193.08
1311.664	6219.08
1316.491	6216.08
1321.314	6189.75
1326.132	6143.08
1330.945	6095.75
1335.753	6032.42
1340.556	5982.75
1345.354	5936.42
1350.148	5875.42
1354.937	5836.75
1359.722	5761.75
1364.501	5708.75
1369.276	5606.08
1374.046	5525.75
1378.811	5478.75
1383.572	5403.75
1388.327	5366.42
1393.079	5345.75
1397.825	5307.42
1402.567	5275.75
1407.304	5238.08
1412.036	5240.08
1416.764	5239.75
1421.487	5238.75
1426.205	5266.08
1430.919	5302.75
1435.628	5373.08
1440.333	5407.42
1445.032	5444.75
1449.727	5499.42
1454.418	5507.42
1459.104	5506.75
1463.785	5489.08
1468.462	5461.75
1473.134	5443.42
1477.802	5441.42
1482.465	5443.75
1487.123	5462.08
1491.777	5475.75
1496.426	5530.08
1501.071	5565.42
1505.711	5618.08
1510.347	5650.75
1514.978	5691.42
1519.604	5692.42
1524.226	5700.42
1528.844	5650.75
1533.457	5617.75
1538.065	5613.75
1542.669	5587.08
1547.269	5600.08
1551.864	5634.08
1556.454	5696.08
1561.041	5784.08
1565.622	5878.42
1570.199	5953.42
1574.772	6110.75
1579.34	6267.08
1583.904	6429.75
1588.464	6586.42
1593.019	6738.08
1597.569	6888.75
1602.115	6997.75
1606.657	7124.42
1611.195	7255.08
1615.728	7378.75
1620.256	7549.75
1624.78	7712.08
1629.3	7882.08
1633.816	8054.08
1638.327	8180.08
1642.834	8302.42
1647.336	8373.75
1651.834	8391.08
1656.328	8364.75
1660.817	8276.75
1665.302	8160.08
1669.783	7967.08
1674.259	7759.08
1678.732	7481.75
1683.199	7214.08
1687.663	6949.42
1692.122	6618.42
1696.577	6308.08
1701.028	5968.42
1705.474	5661.08
1709.917	5369.08
1714.355	5134.08
1718.788	4955.75
1723.218	4791.08
1727.643	4680.42
1732.064	4523.42
1736.481	4355.08
1740.893	4209.42
1745.301	4056.42
1749.705	3908.75
1754.105	3787.08
1758.501	3667.08
1762.893	3578.08
1767.28	3521.08
1771.663	3473.08
1776.042	3452.42
1780.417	3442.75
1784.787	3429.75
1789.154	3424.42
1793.516	3398.75
1797.874	3333.08
1802.228	3247.08
1806.578	3176.08
1810.924	3075.75
1815.266	3022.75
1819.603	2948.42
1823.937	2924.75
1828.266	2915.42
1832.591	2902.42
1836.913	2904.08
1841.23	2912.08
1845.543	2904.75
1849.852	2908.42
1854.156	2927.75
1858.457	2950.42
1862.754	2964.75
1867.047	2982.08
1871.335	2988.08
1875.62	3021.75
1879.9	3026.75
1884.177	3030.08
1888.449	3018.08
1892.718	3018.08
1896.982	3015.75
1901.243	3018.42
1905.499	3016.08
1909.752	3034.75
1914	3047.08
1918.245	3045.08
1922.485	3071.75
1926.722	3069.42
1930.954	3088.75
1935.183	3087.42
1939.408	3085.42
1943.628	3075.42
1947.845	3048.08
1952.058	3011.08
1956.267	2974.08
1960.472	2930.75
1964.673	2880.42
1968.87	2852.08
1973.063	2819.75
1977.252	2803.75
1981.438	2802.75
1985.619	2798.08
1989.797	2802.75
1993.971	2814.75
1998.14	2850.08
2002.306	2846.08
2006.469	2882.08
2010.627	2896.08
2014.781	2919.75
2018.932	2936.08
2023.078	2932.75
2027.221	2918.75
2031.36	2929.42
2035.495	2939.08
2039.627	2917.42
2043.754	2911.08
2047.878	2913.08
2051.998	2953.42
2056.114	2963.08
2060.226	2992.42
2064.334	3025.42
2068.439	3036.42
2072.54	3062.42
2076.637	3099.75
2080.73	3121.42
2084.82	3118.42
2088.906	3150.42
2092.988	3126.75
2097.066	3110.08
2101.14	3086.75
2105.211	3039.75
2109.278	3028.42
2113.342	2970.42
2117.401	2943.75
2121.457	2914.42
2125.509	2891.42
2129.558	2876.42
2133.602	2854.08
2137.643	2837.08
2141.681	2815.42
2145.714	2799.75
2149.744	2781.42
2153.77	2754.75
2157.793	2734.08
2161.812	2700.42
2165.827	2666.42
2169.838	2641.08
2173.846	2589.08
2177.851	2534.42
2181.851	2502.08
2185.848	2486.08
2189.841	2453.08
2193.831	2415.08
2197.817	2401.42
2201.799	2399.42
2205.778	2375.75
2209.753	2351.08
2213.725	2335.08
2217.693	2328.42
2221.657	2304.75
2225.618	2298.08
2229.575	2274.42
2233.529	2247.08
2237.479	2211.75
2241.425	2181.75
2245.368	2142.08
2249.307	2116.75
2253.243	2083.08
2257.175	2043.75
2261.104	2014.75
2265.029	1972.42
2268.95	1943.75
2272.868	1920.08
2276.783	1901.08
2280.694	1864.42
2284.601	1852.08
2288.505	1819.42
2292.405	1797.08
2296.302	1759.42
2300.195	1738.75
2304.085	1729.42
2307.971	1692.08
2311.854	1663.42
2315.734	1635.42
2319.609	1600.75
2323.482	1577.08
2327.351	1569.42
2331.216	1575.42
2335.078	1573.42
2338.937	1549.08
2342.792	1520.42
2346.643	1517.08
2350.492	1506.08
2354.336	1510.08
2358.178	1506.75
2362.015	1500.75
2365.85	1507.42
2369.681	1506.75
2373.508	1503.75
2377.333	1495.42
2381.153	1498.75
2384.971	1482.08
2388.785	1477.75
2392.595	1467.08
2396.402	1467.08
2400.206	1456.75
2404.007	1438.42
2407.804	1442.75
2411.597	1439.75
2415.388	1434.75
2419.174	1421.42
2422.958	1414.42
2426.738	1399.08
2430.515	1404.42
2434.289	1403.75
2438.059	1387.75
2441.825	1380.08
2445.589	1370.42
2449.349	1360.08
2453.106	1355.75
2456.859	1336.42
2460.61	1329.42
2464.356	1330.42
2468.1	1483.42
2471.84	1323.08
2475.577	1313.42
2479.311	1303.08
2483.041	1295.75
2486.768	1303.42
2490.492	1291.08
2494.213	1298.42
2497.93	1299.42
2501.644	1305.08
2505.355	1305.42
2509.062	1296.42
2512.766	1297.75
2516.467	1281.75
2520.165	1290.42
2523.859	1282.08
2527.551	1286.75
2531.239	1262.42
2534.923	1269.42
2538.605	1264.08
2542.283	1256.08
2545.958	1254.08
2549.63	1242.08
2553.299	1242.75
2556.964	1230.08
2560.626	1236.08
2564.285	1215.08
2567.941	1217.08
2571.594	1206.75
2575.243	1199.75
2578.89	1181.42
2582.533	1176.75
2586.173	1173.75
2589.809	1149.08
2593.443	1138.75
2597.073	1129.75
2600.701	1123.08
2604.325	1100.75
2607.946	1109.75
2611.564	1096.42
2615.178	1089.08
2618.79	1095.08
2622.398	1096.42
2626.004	1076.75
2629.606	1071.08
2633.205	1050.08
2636.801	1057.42
2640.394	1052.75
2643.983	1037.75
2647.57	1036.42
2651.153	1025.08
2654.734	1023.75
2658.311	1018.75
2661.885	1020.42
2665.456	1007.75
2669.025	1008.42
2672.589	1012.08
2676.151	1007.08
2679.71	1006.08
2683.266	1007.08
2686.819	993.08
2690.368	992.75
2693.915	991.75
2697.458	983.75
2700.999	983.75
2704.536	974.42
2708.071	981.08
2711.602	967.75
2715.13	977.08
2718.656	980.75
2722.178	988.42
2725.697	991.42
2729.214	992.42
2732.727	1016.08
2736.237	1028.42
2739.744	1037.42
2743.249	1045.75
2746.75	1049.08
2750.248	1050.75
2753.743	1046.75
2757.236	1029.42
2760.725	1034.75
2764.211	1021.08
2767.695	1003.08
2771.175	1012.75
2774.652	1002.08
2778.127	1012.42
2781.598	1020.42
2785.067	1023.75
2788.532	1037.42
2791.995	1056.75
2795.455	1069.75
2798.911	1083.08
2802.365	1090.08
2805.816	1111.75
2809.264	1127.42
2812.709	1137.75
2816.151	1158.75
2819.59	1168.08
2823.026	1181.42
2826.46	1192.08
2829.89	1202.08
2833.318	1229.42
2836.742	1235.75
2840.164	1242.75
2843.583	1261.08
2846.999	1286.08
2850.412	1304.08
2853.822	1306.75
2857.229	1335.08
2860.634	1356.08
2864.035	1362.75
2867.434	1390.75
2870.83	1415.75
2874.223	1432.42
2877.613	1443.08
2881	1457.75
2884.385	1476.08
2887.766	1496.08
2891.145	1495.75
2894.521	1530.75
2897.894	1549.08
2901.264	1558.75
2904.631	1581.08
2907.996	1610.08
2911.358	1627.08
2914.717	1656.08
2918.073	1698.75
2921.426	1715.75
2924.777	1755.08
2928.124	1790.75
2931.469	1848.75
2934.811	1878.08
2938.15	1924.75
2941.487	1973.42
2944.821	2005.75
2948.152	2048.42
2951.48	2094.42
2954.805	2131.08
2958.128	2178.08
2961.447	2209.42
2964.765	2280.08
2968.079	2331.75
2971.39	2394.75
2974.699	2460.75
2978.005	2539.42
2981.308	2591.08
2984.609	2666.42
2987.907	2756.42
2991.202	2819.75
2994.494	2905.42
2997.784	2960.42
3001.07	3048.08
3004.355	3117.08
3007.636	3188.42
3010.915	3252.75
3014.191	3322.08
3017.464	3359.08
3020.734	3429.42
3024.002	3490.75
3027.267	3573.42
3030.53	3639.75
3033.789	3703.42
3037.046	3816.75
3040.301	3903.75
3043.552	4007.42
3046.801	4100.42
3050.048	4216.08
3053.291	4352.08
3056.532	4492.42
3059.771	4632.42
3063.006	4769.75
3066.239	4932.42
3069.469	5095.42
3072.697	5224.42
3075.922	5396.75
3079.144	5517.08
3082.364	5667.42
3085.581	5809.75
3088.795	5970.42
3092.007	6117.75
3095.216	6262.42
3098.423	6389.42
3101.627	6564.75
3104.828	6713.08
3108.026	6861.75
3111.222	7008.42
3114.416	7174.08
3117.607	7342.08
3120.795	7497.08
3123.98	7688.08
3127.163	7885.75
3130.344	8062.75
3133.521	8205.08
3136.696	8393.75
3139.869	8559.42
3143.039	8697.08
3146.206	8827.08
3149.371	8948.08
3152.533	9036.75
3155.693	9096.42
3158.85	9163.08
3162.005	9214.42
3165.157	9292.42
3168.306	9308.08
3171.453	9379.75
3174.597	9391.75
3177.739	9435.42
3180.878	9469.75
3184.014	9490.08
3187.149	9526.08
3190.28	9565.42
3193.409	9606.42
3196.536	9644.42
3199.659	9692.75
3202.781	9717.42
3205.9	9751.42
3209.016	9774.42
3212.13	9755.75
3215.241	9758.08
3218.35	9714.75
3221.456	9659.75
3224.56	9577.75
3227.661	9524.08
3230.76	9476.42
3233.856	9429.08
3236.95	9351.08
3240.041	9279.08
3243.13	9257.42
3246.216	9226.75
3249.3	9163.75
3252.382	9142.75
3255.46	9101.75
3258.537	9109.75
3261.611	9053.42
3264.682	9027.42
3267.751	8983.42
3270.818	8953.42
3273.882	8892.08
3276.943	8816.42
3280.002	8740.08
3283.059	8681.75
3286.113	8559.42
3289.165	8446.75
3292.214	8334.42
3295.261	8207.75
3298.306	8124.75
3301.348	7999.08
3304.387	7873.08
3307.425	7800.42
3310.459	7710.08
3313.492	7628.75
3316.521	7552.42
3319.549	7476.75
3322.574	7439.75
3325.597	7393.08
3328.617	7344.75
3331.635	7331.42
3334.65	7279.75
3337.663	7258.42
3340.674	7254.42
3343.682	7244.08
3346.688	7223.08
3349.691	7210.75
3352.692	7174.08
3355.691	7154.75
3358.687	7100.75
3361.681	7036.75
3364.673	6985.08
3367.662	6912.75
3370.649	6818.08
3373.633	6759.08
3376.615	6694.75
3379.595	6603.42
3382.572	6550.42
3385.547	6489.08
3388.52	6422.08
3391.49	6346.42
3394.458	6290.42
3397.424	6221.42
3400.387	6154.08
3403.348	6109.75
3406.307	6055.75
3409.263	6020.42
3412.217	5981.75
3415.168	5916.42
3418.118	5870.42
3421.065	5836.08
3424.009	5764.42
3426.951	5709.42
3429.891	5634.75
3432.829	5557.75
3435.764	5475.75
3438.697	5366.75
3441.628	5277.42
3444.557	5167.08
3447.483	5055.08
3450.407	4940.42
3453.328	4833.42
3456.247	4739.75
3459.164	4631.42
3462.079	4523.08
3464.991	4407.42
3467.902	4292.08
3470.809	4204.42
3473.715	4110.42
3476.618	4015.42
3479.519	3922.08
3482.418	3831.42
3485.315	3760.42
3488.209	3680.75
3491.101	3607.42
3493.99	3530.08
3496.878	3456.75
3499.763	3378.75
3502.646	3300.75
3505.527	3214.08
3508.405	3127.75
3511.281	3040.42
3514.155	2935.42
3517.027	2841.75
3519.897	2746.08
3522.764	2658.42
3525.629	2568.08
3528.492	2463.75
3531.352	2378.08
3534.211	2282.42
3537.067	2216.42
3539.921	2127.08
3542.773	2051.08
3545.622	1978.42
3548.469	1898.08
3551.315	1841.42
3554.157	1786.08
3556.998	1737.42
3559.837	1669.42
3562.673	1625.08
3565.507	1574.08
3568.339	1526.42
3571.169	1478.08
3573.996	1430.08
3576.822	1383.75
3579.645	1338.75
3582.466	1290.42
3585.285	1241.08
3588.101	1195.75
3590.916	1158.75
3593.728	1117.75
3596.538	1079.42
3599.346	1039.75
3602.152	996.75
3604.956	960.42
3607.757	916.42
3610.556	887.75
3613.354	858.08
3616.149	825.08
3618.942	795.08
3621.732	764.75
3624.521	749.42
3627.307	724.42
3630.092	699.08
3632.874	678.08
3635.654	656.75
3638.432	634.08
3641.208	615.42
3643.982	598.42
3646.753	574.08
3649.523	544.42
3652.29	526.42
3655.055	510.42
3657.818	489.75
3660.579	463.08
3663.338	447.08
3666.095	431.08
3668.849	407.75
3671.602	390.75
3674.352	370.75
3677.101	363.42
3679.847	343.08
3682.591	328.75
3685.333	317.08
3688.073	302.75
3690.811	290.08
3693.547	280.08
3696.281	264.75
3699.013	264.42
3701.742	251.08
3704.47	245.08
3707.195	232.08
3709.919	220.75
3712.64	217.42
3715.359	205.42
3718.076	199.75
3720.792	188.08
3723.505	188.08
3726.216	177.75
3728.925	175.08
3731.632	163.75
3734.336	161.08
3737.039	154.42
3739.74	148.75
3742.439	141.75
3745.136	138.42
3747.83	137.08
3750.523	133.75
3753.213	131.08
3755.902	122.08
3758.589	115.75
3761.273	118.75
3763.956	111.75
3766.636	112.08
3769.315	105.75
3771.991	103.42
3774.665	102.08
3777.338	91.75
3780.008	96.42
3782.677	92.75
3785.343	94.08
3788.007	86.08
3790.67	88.75
3793.33	84.08
3795.989	76.42
3798.645	77.42
3801.299	75.75
3803.952	75.75
3806.602	72.42
3809.251	72.75
3811.897	71.08
3814.542	71.08
3817.184	72.42
3819.825	67.42
3822.463	66.42
3825.1	62.08
3827.735	67.75
3830.367	61.75
3832.998	62.75
3835.627	63.75
3838.253	58.42
3840.878	55.75
3843.501	52.42
3846.122	55.42
3848.741	54.75
3851.358	50.42
3853.973	55.08
3856.586	48.75
3859.197	51.42
3861.806	49.75
3864.414	45.42
3867.019	49.75
3869.622	48.42
3872.224	59.75
3874.823	81.75
3877.421	103.75
3880.016	134.75
3882.61	163.08
3885.202	175.42
3887.792	140.75
3890.38	98.08
3892.966	42.75
3895.55	37.75
3898.132	44.42
3900.713	37.42
3903.291	38.75
3905.868	35.42
3908.442	35.75
3911.015	37.08
3913.586	36.08
3916.155	30.42
3918.722	29.08
3921.287	29.75
3923.85	28.75
3926.411	27.42
3928.971	27.75
3931.528	25.08
3934.084	23.42
3936.638	23.75
3939.19	26.75
3941.74	23.42
3944.288	27.08
3946.834	26.75
3949.378	25.75
3951.921	23.75
3954.462	27.42
3957	29.42
3959.537	27.42
3962.072	31.75
3964.606	31.42
3967.137	31.75
3969.667	29.75
3972.194	30.08
3974.72	34.08
3977.244	40.08
3979.766	37.42
3982.286	41.08
3984.805	42.08
3987.321	42.75
3989.836	44.75
3992.349	49.42
3994.86	44.42
3997.369	39.42
3999.877	43.42
4002.382	43.75
4004.886	41.75
4007.388	41.75
4009.888	41.08
4012.386	37.42
4014.883	42.75
4017.377	38.08
4019.87	34.75
4022.361	38.08
4024.85	35.75
4027.338	36.75
4029.823	38.08
4032.307	30.75
4034.789	35.08
4037.269	33.75
4039.747	31.75
4042.224	29.75
4044.699	33.42
4047.172	26.42
4049.643	25.75
4052.112	29.75
4054.58	28.08
4057.046	31.75
4059.51	25.42
4061.972	30.08
4064.432	31.75
4066.891	29.42
4069.348	31.75
4071.803	31.75
4074.256	32.08
4076.708	31.75
4079.158	32.08
4081.606	30.75
4084.052	31.75
4086.497	32.42
4088.939	32.08
4091.38	32.75
4093.819	33.42
4096.257	5.42
4098.693	-0.25
4101.127	-0.92
4103.559	1.42
4105.989	367.42
4108.418	382.42
4110.845	412.08
4113.27	439.08
4115.694	476.75
4118.115	529.08
4120.535	30.75
4122.954	31.75
4125.37	32.08
4127.785	30.08
4130.198	28.42
4132.609	27.08
4135.019	-1.25
4137.427	-3.25
4139.833	0.42
4142.237	-1.58
