160.701	537.54
166.742	710.88
172.777	1233.54
178.805	2906.54
184.826	7111.54
190.841	14708.88
196.849	23884.87
202.85	30638.21
208.845	32686.21
214.833	31864.21
220.815	30545.54
226.789	29735.21
232.758	28875.21
238.719	28053.54
244.674	26988.21
250.623	25923.21
256.565	24754.54
262.5	23698.54
268.429	22678.54
274.351	21814.54
280.267	21013.21
286.176	20313.21
292.079	19723.21
297.975	19164.54
303.865	18647.54
309.748	18204.87
315.625	17867.21
321.495	17552.88
327.359	17346.54
333.217	17182.21
339.068	17069.21
344.912	16999.88
350.751	16959.54
356.583	16893.88
362.408	16900.54
368.227	16932.54
374.04	17007.21
379.847	17199.21
385.647	17349.88
391.44	17337.54
397.228	17287.54
403.009	17314.87
408.784	17534.88
414.553	17979.54
420.315	18525.54
426.071	18674.21
431.821	18100.54
437.565	17559.87
443.302	17278.54
449.033	17181.21
454.758	17097.21
460.477	16962.54
466.189	16841.88
471.896	16744.54
477.596	16627.54
483.29	16502.21
488.978	16394.88
494.66	16306.21
500.335	16099.54
506.005	15828.21
511.668	15572.54
517.325	15247.88
522.977	15034.54
528.622	14854.21
534.261	14651.88
539.894	14533.21
545.521	14376.54
551.141	14271.88
556.756	14175.21
562.365	14059.54
567.968	13966.54
573.565	13873.88
579.155	13809.54
584.74	13718.21
590.319	13568.88
595.892	13460.54
601.459	13341.54
607.02	13228.88
612.575	13086.54
618.124	12957.88
623.667	12824.54
629.204	12723.54
634.735	12665.21
640.261	12692.54
645.781	12762.54
651.294	12820.54
656.802	12628.54
662.304	12363.54
667.8	12192.88
673.29	12082.21
678.775	11995.88
684.254	11930.88
689.726	11804.54
695.193	11761.54
700.655	11623.54
706.11	11529.54
711.56	11410.88
717.004	11356.88
722.442	11276.54
727.874	11201.88
733.301	11115.21
738.722	11088.21
744.137	11061.21
749.547	11014.54
754.951	11002.88
760.349	10952.88
765.741	10842.54
771.128	10764.21
776.509	10755.21
781.885	10672.88
787.254	10633.21
792.618	10546.21
797.977	10464.88
803.33	10345.88
808.677	10227.21
814.019	10110.54
819.355	9997.88
824.686	9877.21
830.011	9804.88
835.33	9724.88
840.644	9650.54
845.952	9584.21
851.255	9522.21
856.552	9441.88
861.844	9360.88
867.13	9309.54
872.41	9213.21
877.686	9095.54
882.955	8969.88
888.219	8817.54
893.478	8673.88
898.731	8546.88
903.979	8428.88
909.221	8318.88
914.458	8263.54
919.69	8190.88
924.916	8171.54
930.136	8144.88
935.351	8103.88
940.561	8102.21
945.766	8042.88
950.965	8004.88
956.158	7902.88
961.347	7819.21
966.529	7714.21
971.707	7587.54
976.879	7485.88
982.046	7412.88
987.208	7362.54
992.364	7334.21
997.515	7370.54
1002.66	7390.21
1007.801	7430.88
1012.936	7492.21
1018.066	7525.21
1023.19	7526.21
1028.309	7533.21
1033.423	7528.54
1038.532	7466.21
1043.636	7407.88
1048.734	7349.88
1053.827	7257.88
1058.915	7195.21
1063.998	7109.88
1069.075	7112.54
1074.147	7107.21
1079.214	7125.54
1084.276	7173.88
1089.333	7178.21
1094.385	7237.21
1099.431	7225.88
1104.472	7262.21
1109.509	7198.54
1114.54	7132.88
1119.565	7030.21
1124.586	6943.54
1129.602	6870.21
1134.613	6836.88
1139.618	6792.54
1144.619	6797.54
1149.614	6825.88
1154.604	6843.21
1159.589	6869.21
1164.57	6877.54
1169.545	6892.21
1174.515	6908.21
1179.48	6876.21
1184.44	6834.54
1189.395	6795.88
1194.345	6759.54
1199.29	6723.88
1204.23	6699.21
1209.165	6731.88
1214.095	6740.21
1219.021	6795.88
1223.941	6834.54
1228.856	6891.54
1233.766	6878.54
1238.672	6897.88
1243.572	6872.21
1248.467	6815.54
1253.358	6759.88
1258.244	6653.54
1263.124	6558.88
1268	6477.54
1272.871	6399.88
1277.737	6336.88
1282.599	6331.21
1287.455	6322.54
1292.306	6333.88
1297.153	6377.88
1301.995	6424.54
1306.832	6460.88
1311.664	6479.88
1316.491	6450.88
1321.314	6450.54
1326.132	6409.21
1330.945	6340.88
1335.753	6289.54
1340.556	6230.88
1345.354	6198.88
1350.148	6159.21
1354.937	6064.54
1359.722	5996.88
1364.501	5924.21
1369.276	5858.88
1374.046	5787.54
1378.811	5707.54
1383.572	5675.21
1388.327	5614.21
1393.079	5592.21
1397.825	5556.54
1402.567	5515.54
1407.304	5496.21
1412.036	5467.54
1416.764	5483.21
1421.487	5484.21
1426.205	5513.88
1430.919	5566.88
1435.628	5614.21
1440.333	5662.21
1445.032	5698.88
1449.727	5753.88
1454.418	5759.21
1459.104	5754.88
1463.785	5739.21
1468.462	5708.21
1473.134	5675.88
1477.802	5658.54
1482.465	5658.54
1487.123	5660.88
1491.777	5706.88
1496.426	5751.21
1501.071	5789.88
1505.711	5829.21
1510.347	5848.54
1514.978	5885.54
1519.604	5883.21
1524.226	5871.54
1528.844	5845.21
1533.457	5799.21
1538.065	5768.54
1542.669	5754.88
1547.269	5746.88
1551.864	5756.54
1556.454	5830.21
1561.041	5892.88
1565.622	5956.88
1570.199	6033.21
1574.772	6177.54
1579.34	6317.21
1583.904	6451.21
1588.464	6581.54
1593.019	6713.88
1597.569	6825.54
1602.115	6961.21
1606.657	7033.21
1611.195	7141.88
1615.728	7251.88
1620.256	7365.54
1624.78	7526.21
1629.3	7660.88
1633.816	7808.21
1638.327	7934.54
1642.834	8038.54
1647.336	8105.54
1651.834	8118.21
1656.328	8090.21
1660.817	8040.21
1665.302	7909.54
1669.783	7753.54
1674.259	7545.21
1678.732	7312.88
1683.199	7074.21
1687.663	6840.54
1692.122	6569.88
1696.577	6268.54
1701.028	5976.54
1705.474	5684.88
1709.917	5390.21
1714.355	5203.88
1718.788	5037.54
1723.218	4915.88
1727.643	4787.54
1732.064	4684.88
1736.481	4548.54
1740.893	4394.21
1745.301	4240.54
1749.705	4121.54
1754.105	3998.54
1758.501	3895.88
1762.893	3806.21
1767.28	3741.21
1771.663	3724.54
1776.042	3702.21
1780.417	3697.21
1784.787	3696.21
1789.154	3694.54
1793.516	3661.54
1797.874	3602.88
1802.228	3522.88
1806.578	3440.88
1810.924	3353.88
1815.266	3283.88
1819.603	3237.88
1823.937	3198.54
1828.266	3171.54
1832.591	3169.88
1836.913	3158.88
1841.23	3164.54
1845.543	3167.88
1849.852	3173.54
1854.156	3192.88
1858.457	3205.88
1862.754	3229.88
1867.047	3248.54
1871.335	3263.54
1875.62	3277.88
1879.9	3283.21
1884.177	3292.21
1888.449	3291.21
1892.718	3298.54
1896.982	3279.21
1901.243	3279.54
1905.499	3287.88
1909.752	3290.54
1914	3309.21
1918.245	3310.88
1922.485	3326.21
1926.722	3343.54
1930.954	3367.54
1935.183	3343.88
1939.408	3345.21
1943.628	3322.21
1947.845	3293.54
1952.058	3243.88
1956.267	3205.21
1960.472	3136.88
1964.673	3090.88
1968.87	3068.54
1973.063	3028.21
1977.252	2991.88
1981.438	2999.88
1985.619	2978.54
1989.797	2993.21
1993.971	2994.88
1998.14	3010.88
2002.306	3028.54
2006.469	3047.88
2010.627	3060.21
2014.781	3083.54
2018.932	3077.21
2023.078	3086.21
2027.221	3089.21
2031.36	3071.21
2035.495	3066.54
2039.627	3061.54
2043.754	3049.88
2047.878	3043.88
2051.998	3053.21
2056.114	3081.88
2060.226	3099.88
2064.334	3121.21
2068.439	3147.88
2072.54	3190.54
2076.637	3201.88
2080.73	3234.54
2084.82	3233.54
2088.906	3246.54
2092.988	3236.54
2097.066	3198.21
2101.14	3168.54
2105.211	3148.54
2109.278	3102.21
2113.342	3064.88
2117.401	3037.88
2121.457	3011.88
2125.509	2971.88
2129.558	2946.54
2133.602	2933.21
2137.643	2905.88
2141.681	2895.54
2145.714	2877.54
2149.744	2852.88
2153.77	2833.88
2157.793	2820.54
2161.812	2778.88
2165.827	2743.54
2169.838	2713.54
2173.846	2660.54
2177.851	2622.21
2181.851	2591.54
2185.848	2568.21
2189.841	2521.54
2193.831	2519.21
2197.817	2491.54
2201.799	2456.54
2205.778	2456.88
2209.753	2447.88
2213.725	2432.21
2217.693	2418.21
2221.657	2390.21
2225.618	2369.21
2229.575	2370.88
2233.529	2337.88
2237.479	2295.21
2241.425	2261.54
2245.368	2245.54
2249.307	2199.88
2253.243	2173.21
2257.175	2140.21
2261.104	2105.88
2265.029	2076.88
2268.95	2047.54
2272.868	2015.88
2276.783	1992.21
2280.694	1959.54
2284.601	1932.88
2288.505	1911.54
2292.405	1883.54
2296.302	1866.88
2300.195	1831.88
2304.085	1812.21
2307.971	1777.21
2311.854	1753.54
2315.734	1720.88
2319.609	1699.88
2323.482	1672.54
2327.351	1659.21
2331.216	1657.21
2335.078	1647.54
2338.937	1627.21
2342.792	1606.21
2346.643	1595.21
2350.492	1588.21
2354.336	1595.54
2358.178	1596.54
2362.015	1598.88
2365.85	1604.21
2369.681	1591.21
2373.508	1597.54
2377.333	1584.21
2381.153	1587.88
2384.971	1584.21
2388.785	1575.88
2392.595	1567.21
2396.402	1553.21
2400.206	1547.54
2404.007	1528.21
2407.804	1533.54
2411.597	1532.54
2415.388	1520.21
2419.174	1512.88
2422.958	1515.88
2426.738	1497.21
2430.515	1490.21
2434.289	1486.21
2438.059	1493.54
2441.825	1476.21
2445.589	1476.88
2449.349	1462.54
2453.106	1446.21
2456.859	1439.88
2460.61	1421.88
2464.356	1425.21
2468.1	1406.88
2471.84	1398.88
2475.577	1400.88
2479.311	1389.54
2483.041	1390.88
2486.768	1393.21
2490.492	1402.21
2494.213	1399.21
2497.93	1397.88
2501.644	1392.21
2505.355	1387.54
2509.062	1391.88
2512.766	1387.21
2516.467	1389.54
2520.165	1385.21
2523.859	1377.88
2527.551	1372.88
2531.239	1366.88
2534.923	1364.88
2538.605	1366.54
2542.283	1345.54
2545.958	1343.54
2549.63	1346.54
2553.299	1347.21
2556.964	1327.54
2560.626	1330.21
2564.285	1321.21
2567.941	1315.21
2571.594	1295.21
2575.243	1292.88
2578.89	1286.21
2582.533	1262.54
2586.173	1257.21
2589.809	1234.54
2593.443	1225.88
2597.073	1215.21
2600.701	1206.21
2604.325	1198.21
2607.946	1183.88
2611.564	1181.54
2615.178	1180.88
2618.79	1169.88
2622.398	1166.88
2626.004	1156.54
2629.606	1154.21
2633.205	1136.88
2636.801	1135.54
2640.394	1127.88
2643.983	1118.54
2647.57	1119.88
2651.153	1104.54
2654.734	1098.88
2658.311	1086.21
2661.885	1085.88
2665.456	1084.88
2669.025	1078.54
2672.589	1080.21
2676.151	1068.54
2679.71	1067.21
2683.266	1063.21
2686.819	1058.88
2690.368	1053.88
2693.915	1050.88
2697.458	1040.88
2700.999	1030.54
2704.536	1028.21
2708.071	1029.21
2711.602	1030.88
2715.13	1026.54
2718.656	1028.21
2722.178	1036.88
2725.697	1028.54
2729.214	1041.54
2732.727	1055.88
2736.237	1069.88
2739.744	1077.54
2743.249	1082.54
2746.75	1084.21
2750.248	1088.88
2753.743	1076.54
2757.236	1070.88
2760.725	1064.54
2764.211	1043.88
2767.695	1037.88
2771.175	1029.88
2774.652	1024.88
2778.127	1030.88
2781.598	1031.21
2785.067	1042.54
2788.532	1050.54
2791.995	1063.21
2795.455	1079.54
2798.911	1088.54
2802.365	1103.54
2805.816	1123.54
2809.264	1131.88
2812.709	1142.21
2816.151	1153.54
2819.59	1166.21
2823.026	1180.21
2826.46	1188.88
2829.89	1188.88
2833.318	1206.21
2836.742	1220.21
2840.164	1218.54
2843.583	1237.21
2846.999	1253.54
2850.412	1262.54
2853.822	1283.88
2857.229	1302.88
2860.634	1310.21
2864.035	1331.21
2867.434	1351.54
2870.83	1356.21
2874.223	1382.54
2877.613	1386.88
2881	1401.54
2884.385	1407.88
2887.766	1415.88
2891.145	1433.21
2894.521	1439.54
2897.894	1462.54
2901.264	1479.88
2904.631	1489.21
2907.996	1508.88
2911.358	1529.54
2914.717	1550.88
2918.073	1583.21
2921.426	1607.54
2924.777	1633.88
2928.124	1662.54
2931.469	1701.21
2934.811	1744.54
2938.15	1775.88
2941.487	1801.54
2944.821	1847.88
2948.152	1871.88
2951.48	1914.21
2954.805	1947.21
2958.128	1982.54
2961.447	2024.21
2964.765	2052.21
2968.079	2116.88
2971.39	2158.88
2974.699	2210.54
2978.005	2273.88
2981.308	2324.54
2984.609	2391.88
2987.907	2452.88
2991.202	2515.54
2994.494	2583.21
2997.784	2645.54
3001.07	2705.54
3004.355	2774.54
3007.636	2830.88
3010.915	2876.88
3014.191	2943.21
3017.464	2986.88
3020.734	3039.54
3024.002	3086.54
3027.267	3136.88
3030.53	3204.88
3033.789	3267.88
3037.046	3355.54
3040.301	3432.21
3043.552	3511.54
3046.801	3611.54
3050.048	3709.54
3053.291	3821.88
3056.532	3926.21
3059.771	4039.54
3063.006	4177.21
3066.239	4301.88
3069.469	4429.88
3072.697	4557.21
3075.922	4676.21
3079.144	4784.88
3082.364	4926.88
3085.581	5047.21
3088.795	5161.54
3092.007	5289.21
3095.216	5417.54
3098.423	5525.21
3101.627	5655.88
3104.828	5783.88
3108.026	5893.88
3111.222	6036.54
3114.416	6176.21
3117.607	6308.88
3120.795	6453.54
3123.98	6624.54
3127.163	6756.88
3130.344	6906.54
3133.521	7065.21
3136.696	7206.21
3139.869	7334.54
3143.039	7500.21
3146.206	7581.21
3149.371	7673.21
3152.533	7752.21
3155.693	7826.54
3158.85	7874.88
3162.005	7908.21
3165.157	7953.54
3168.306	7990.88
3171.453	8020.88
3174.597	8060.88
3177.739	8083.54
3180.878	8104.54
3184.014	8151.21
3187.149	8191.21
3190.28	8205.54
3193.409	8251.88
3196.536	8256.21
3199.659	8311.54
3202.781	8346.88
3205.9	8364.88
3209.016	8381.21
3212.13	8379.21
3215.241	8363.54
3218.35	8327.21
3221.456	8274.21
3224.56	8230.88
3227.661	8160.88
3230.76	8112.54
3233.856	8055.54
3236.95	8013.54
3240.041	7961.21
3243.13	7924.21
3246.216	7901.21
3249.3	7851.54
3252.382	7826.21
3255.46	7816.88
3258.537	7785.21
3261.611	7755.88
3264.682	7752.88
3267.751	7680.88
3270.818	7666.54
3273.882	7617.21
3276.943	7577.21
3280.002	7513.88
3283.059	7440.54
3286.113	7344.88
3289.165	7263.54
3292.214	7160.21
3295.261	7061.54
3298.306	6969.21
3301.348	6874.54
3304.387	6763.21
3307.425	6696.54
3310.459	6613.54
3313.492	6568.54
3316.521	6509.54
3319.549	6450.21
3322.574	6395.88
3325.597	6340.54
3328.617	6336.21
3331.635	6302.88
3334.65	6260.88
3337.663	6243.88
3340.674	6219.54
3343.682	6204.21
3346.688	6200.88
3349.691	6178.21
3352.692	6159.54
3355.691	6134.54
3358.687	6092.21
3361.681	6038.88
3364.673	5987.54
3367.662	5908.88
3370.649	5869.21
3373.633	5790.54
3376.615	5748.54
3379.595	5688.54
3382.572	5625.21
3385.547	5552.88
3388.52	5525.21
3391.49	5458.21
3394.458	5388.88
3397.424	5344.21
3400.387	5278.54
3403.348	5238.54
3406.307	5194.88
3409.263	5171.54
3412.217	5117.21
3415.168	5069.54
3418.118	5046.88
3421.065	4975.21
3424.009	4934.21
3426.951	4880.88
3429.891	4827.21
3432.829	4751.21
3435.764	4681.88
3438.697	4600.88
3441.628	4524.21
3444.557	4417.88
3447.483	4335.21
3450.407	4239.54
3453.328	4147.88
3456.247	4040.88
3459.164	3969.54
3462.079	3875.21
3464.991	3774.88
3467.902	3701.54
3470.809	3603.88
3473.715	3518.88
3476.618	3439.88
3479.519	3364.54
3482.418	3291.88
3485.315	3226.88
3488.209	3149.21
3491.101	3092.21
3493.99	3018.54
3496.878	2957.21
3499.763	2888.88
3502.646	2822.88
3505.527	2754.54
3508.405	2672.54
3511.281	2589.21
3514.155	2514.54
3517.027	2449.88
3519.897	2361.21
3522.764	2283.21
3525.629	2206.88
3528.492	2128.21
3531.352	2054.21
3534.211	1967.54
3537.067	1898.21
3539.921	1828.88
3542.773	1761.88
3545.622	1697.88
3548.469	1649.54
3551.315	1585.88
3554.157	1528.54
3556.998	1480.54
3559.837	1452.54
3562.673	1401.54
3565.507	1365.88
3568.339	1309.88
3571.169	1274.88
3573.996	1234.21
3576.822	1206.21
3579.645	1154.54
3582.466	1109.54
3585.285	1081.54
3588.101	1043.88
3590.916	1001.88
3593.728	969.54
3596.538	928.21
3599.346	898.88
3602.152	874.54
3604.956	836.21
3607.757	806.88
3610.556	774.54
3613.354	748.21
3616.149	722.88
3618.942	690.54
3621.732	672.54
3624.521	649.21
3627.307	626.88
3630.092	614.88
3632.874	592.21
3635.654	567.54
3638.432	552.88
3641.208	532.21
3643.982	512.54
3646.753	495.54
3649.523	477.21
3652.29	463.88
3655.055	446.88
3657.818	425.88
3660.579	410.54
3663.338	398.21
3666.095	376.54
3668.849	360.88
3671.602	360.54
3674.352	342.21
3677.101	321.54
3679.847	301.88
3682.591	290.21
3685.333	275.21
3688.073	266.54
3690.811	257.54
3693.547	255.54
3696.281	238.21
3699.013	228.54
3701.742	219.88
3704.47	216.21
3707.195	204.54
3709.919	191.21
3712.64	189.21
3715.359	183.88
3718.076	171.88
3720.792	168.88
3723.505	163.21
3726.216	157.54
3728.925	150.21
3731.632	147.88
3734.336	146.21
3737.039	138.88
3739.74	132.54
3742.439	127.21
3745.136	119.21
3747.83	117.21
3750.523	117.21
3753.213	119.21
3755.902	111.21
3758.589	105.21
3761.273	108.21
3763.956	107.54
3766.636	100.88
3769.315	95.54
3771.991	94.54
3774.665	86.88
3777.338	85.88
3780.008	88.21
3782.677	84.54
3785.343	84.54
3788.007	74.88
3790.67	82.54
3793.33	74.54
3795.989	70.54
3798.645	71.88
3801.299	72.54
3803.952	66.54
3806.602	64.54
3809.251	68.21
3811.897	64.54
3814.542	64.88
3817.184	62.21
3819.825	61.21
3822.463	58.54
3825.1	57.88
3827.735	57.54
3830.367	55.88
3832.998	53.21
3835.627	55.21
3838.253	54.54
3840.878	50.88
3843.501	48.54
3846.122	49.54
3848.741	47.54
3851.358	44.88
3853.973	49.88
3856.586	45.88
3859.197	45.54
3861.806	43.54
3864.414	37.21
3867.019	46.88
3869.622	45.88
3872.224	54.21
3874.823	68.21
3877.421	78.54
3880.016	99.54
3882.61	120.21
3885.202	130.88
3887.792	111.54
3890.38	78.54
3892.966	31.88
3895.55	28.88
3898.132	33.88
3900.713	33.88
3903.291	33.21
3905.868	34.54
3908.442	29.54
3911.015	28.88
3913.586	29.21
3916.155	28.88
3918.722	25.88
3921.287	27.21
3923.85	24.88
3926.411	27.88
3928.971	25.21
3931.528	20.54
3934.084	24.88
3936.638	24.54
3939.19	24.88
3941.74	21.21
3944.288	22.21
3946.834	24.21
3949.378	22.21
3951.921	23.21
3954.462	22.54
3957	29.54
3959.537	27.88
3962.072	28.21
3964.606	26.21
3967.137	28.21
3969.667	27.21
3972.194	27.54
3974.72	28.54
3977.244	32.54
3979.766	36.21
3982.286	34.21
3984.805	33.88
3987.321	38.54
3989.836	37.54
3992.349	42.88
3994.86	41.54
3997.369	36.54
3999.877	37.88
4002.382	35.21
4004.886	38.88
4007.388	39.21
4009.888	37.21
4012.386	32.54
4014.883	39.21
4017.377	32.54
4019.87	32.88
4022.361	36.54
4024.85	31.21
4027.338	32.21
4029.823	32.21
4032.307	30.88
4034.789	29.54
4037.269	30.54
4039.747	31.88
4042.224	27.21
4044.699	30.54
4047.172	27.54
4049.643	28.88
4052.112	30.88
4054.58	27.88
4057.046	28.88
4059.51	27.54
4061.972	24.21
4064.432	27.21
4066.891	26.21
4069.348	30.88
4071.803	27.54
4074.256	26.21
4076.708	28.88
4079.158	27.88
4081.606	27.21
4084.052	28.88
4086.497	28.88
4088.939	27.54
4091.38	30.88
4093.819	28.21
4096.257	3.21
4098.693	-2.12
4101.127	0.21
4103.559	1.54
4105.989	290.54
4108.418	304.54
4110.845	332.54
4113.27	357.54
4115.694	394.21
4118.115	445.54
4120.535	29.88
4122.954	29.21
4125.37	29.21
4127.785	23.54
4130.198	27.54
4132.609	27.54
4135.019	-3.79
4137.427	-0.79
4139.833	0.21
4142.237	1.54
