##TITLE=1-2
##FORMAT=SPECTACLE-ASCII V-1.2
##DATA TYPE=ULTRAVIOLET SPECTRUM
##SECOND TYPE=ULTRAVIOLET SPECTRUM
##DATE=04/09/18
##TIME=14:40:41
##SPECTROMETER/DATA SYSTEM=SPECTACLE
##XUNITS=NM EM
##YUNITS=ENERGY
##YFACTOR=1
##FIRSTX=220
##LASTX=450
##NPOINTS=116
##3DDATA=Equidistant
##ZUNITS=NM EX
##FIRSTZ=210
##LASTZ=400
##ZPOINTS=39
##XYDATA=(Y..Y)
##ZVALUE=210
21.617413
22.272468
16.476512
13.260841
12.274981
10.171533
9.350777
8.887649
9.091496
6.069541
4.638433
4.196763
4.399419
4.110932
4.299879
4.437566
4.185438
3.901720
4.832745
4.739761
5.208850
5.633831
6.256700
6.731749
7.173419
7.821918
8.359551
9.755492
10.668635
10.080934
9.396672
11.392832
11.478662
12.496710
12.026429
12.526512
12.291670
12.327433
13.869405
13.601780
14.081597
13.445616
13.444424
15.796423
14.939904
15.335679
14.764667
15.308857
14.574528
15.803576
17.003417
16.485453
16.517639
17.477870
17.952919
18.454790
17.587543
17.772913
18.367767
18.134713
16.106963
16.772747
17.273426
17.821789
17.332435
16.825795
16.890764
17.377734
18.072724
22.218823
24.848580
25.955439
28.856993
33.508539
33.563972
38.467646
39.166808
37.729740
39.805770
36.440492
35.405755
31.075478
27.616620
23.887753
19.854903
15.926957
13.193488
12.569427
12.509823
15.110970
17.111897
22.004843
26.771426
31.020641
41.745901
45.610666
55.471659
58.375597
66.021681
71.246624
74.321628
76.869726
75.244904
76.281428
71.082711
68.407655
60.578585
53.913593
47.937632
39.671659
34.590960
28.993487
23.304820
19.759536
19.672513
17.658472
##ZVALUE=215
59.703588
61.656833
46.783686
35.426617
27.924776
21.440983
18.891692
16.989708
15.609860
15.697479
11.423826
11.017919
9.031892
6.458759
5.733967
4.226565
4.454851
4.545450
4.010797
4.825592
5.333424
4.999638
5.136728
5.474687
7.866621
7.271767
7.862449
8.005500
10.259748
11.916757
10.295510
11.707544
12.624860
12.179613
13.410449
13.791919
13.207793
15.109777
14.859438
13.716817
15.660524
15.839934
15.436411
17.447472
16.956925
17.575622
19.213557
18.778443
19.324422
19.803643
20.807981
22.259951
22.597909
23.540854
21.402836
22.263527
22.333860
21.411777
22.739768
20.435452
22.021532
22.503734
22.290945
20.845532
19.509792
19.897819
19.953847
21.898746
21.345615
20.381808
23.395419
26.594996
26.958585
28.832555
31.333566
32.141805
34.118891
33.514500
31.214952
29.124618
30.282736
25.408864
23.671985
19.611716
16.470551
13.965964
12.302995
11.156797
10.483861
10.954738
9.460449
8.923411
9.456873
12.050867
13.127923
19.384623
24.293661
31.750798
39.704442
50.871968
61.014891
67.551732
83.024502
96.187592
99.834800
113.353729
110.787749
112.926960
113.408566
102.500916
98.542571
90.237856
78.693628
68.077445
57.580471
44.959784
##ZVALUE=220
122.742653
125.254989
119.469762
110.730529
93.561411
68.479776
50.658584
33.105612
30.240417
26.099682
25.404692
24.859905
22.555590
20.061731
15.436411
11.221766
8.047819
7.517934
5.939603
5.318522
4.777908
6.123781
5.360842
5.586743
6.465912
6.733537
8.020997
8.530617
8.361936
8.899570
9.675622
10.452867
10.088682
10.929704
12.985468
13.283491
14.589429
14.979839
14.850497
16.482472
19.533634
19.270778
20.565987
21.512508
21.828413
22.028685
22.908449
25.731921
27.988553
28.043985
27.870536
29.976964
29.783845
30.413866
33.804774
30.567646
31.131506
30.768514
30.209422
30.504465
28.317571
30.614734
26.248693
28.117895
26.695728
26.672482
24.459958
26.624799
25.981665
27.786493
26.222467
28.983951
30.365586
31.889677
28.729439
28.712749
32.950640
29.546618
28.199553
25.887489
24.720430
21.529794
19.927621
17.997622
15.130639
15.588999
13.211966
10.339618
10.183454
10.286570
10.340810
10.199547
9.616613
9.139776
9.518862
8.769631
10.204911
8.502603
11.361837
14.202595
20.098686
27.578473
38.576722
49.297810
67.347884
76.022744
100.374818
118.824840
131.335855
148.176551
155.224800
165.706873
160.991549
167.108774
160.227418
145.959854
##ZVALUE=225
154.841542
155.126452
192.446709
205.805898
209.686756
195.787549
172.036886
124.384761
89.476705
61.609745
49.095750
39.650798
39.000511
39.917827
37.980676
33.593774
27.867556
19.296408
16.035438
10.486841
7.961988
6.859899
6.304979
6.272793
6.816983
6.907582
7.250905
8.447766
8.853674
8.493662
8.856654
8.755922
10.534525
11.273623
13.180971
14.381409
15.542507
17.226934
17.435551
19.068718
22.998452
23.612976
25.368929
26.405454
28.086901
30.667782
33.073425
32.222867
32.536983
36.397576
37.156940
38.365722
38.500428
40.124655
38.975477
41.468740
39.866567
38.586855
39.733648
39.525628
39.655566
39.681792
38.372874
37.047863
36.702752
35.343766
32.982826
33.216476
32.075644
33.618808
33.498406
34.367442
33.415556
34.606457
34.597516
32.974482
30.671954
29.491782
27.847886
27.263761
24.662614
23.114681
21.302700
19.332767
17.242432
15.397668
13.665557
13.558865
13.448596
12.639761
11.356473
11.157990
10.205507
9.725690
11.022687
9.918809
9.882450
10.382533
9.244680
8.477569
9.241700
8.832812
10.355711
12.627840
17.755628
22.807717
37.893653
54.880977
70.119500
94.095469
115.223527
148.496628
169.346929
203.486681
223.413706
250.210762
##ZVALUE=230
102.468729
111.381412
178.768635
247.760415
294.408798
353.603959
363.572836
351.831913
308.367610
228.901505
171.600580
106.263757
75.381994
60.410500
58.722496
62.079430
59.740543
59.114695
49.903989
36.887527
27.973652
20.985603
14.581680
10.795593
7.239580
8.363724
7.765889
7.679462
7.908940
7.798672
9.321570
9.359717
10.553598
10.333657
12.809634
15.280843
17.249584
18.435717
19.875765
22.989511
23.470521
26.756525
27.548671
29.206872
33.943653
34.000874
36.735535
37.377477
39.746761
40.917993
45.126677
43.463707
45.520663
44.054985
46.133995
45.659542
45.909882
47.107935
46.324730
48.044920
47.344565
45.200586
43.693781
41.723847
40.084720
39.171576
39.733648
37.390590
36.166906
35.154819
36.534667
38.214922
37.714839
37.578940
34.519434
33.194423
34.900904
32.381415
30.408502
28.007627
26.976466
24.086833
20.384789
19.856691
18.034577
17.386675
16.624928
15.335679
13.790727
12.544990
13.249516
12.649894
11.201501
11.341572
10.727644
12.344718
10.669827
10.140538
9.742975
12.019873
10.982752
10.906458
10.444522
9.648800
9.944439
9.197593
10.208488
11.506677
13.674498
20.088553
28.156638
47.760606
67.242980
105.776787
137.983561
185.481906
##ZVALUE=235
30.426979
30.689836
82.148910
146.291852
225.139856
349.243879
454.830527
574.202538
603.021979
585.305691
522.256494
388.389826
291.568637
181.507468
129.707456
91.354847
81.587434
84.941983
88.951588
89.081526
81.826448
73.931813
52.708983
38.071871
25.797486
18.301606
12.563467
10.456443
9.274483
9.427667
10.266900
9.798408
11.307597
11.121631
12.240410
14.743805
15.718937
17.683506
18.156767
20.772815
24.293661
24.673939
26.383996
27.350783
30.093789
33.185482
33.207536
36.455989
36.485791
39.570928
38.269758
39.405823
40.133595
41.220784
41.866899
42.471886
42.842627
43.078661
40.762424
42.377710
41.282773
42.118430
40.127635
39.739609
39.033890
38.267970
36.742687
37.735701
33.482909
35.711527
34.690499
33.480525
36.511421
33.977628
33.321977
34.836531
33.800602
31.226873
31.081438
27.748942
26.540756
23.046732
22.365451
20.210743
17.845631
17.732978
16.251802
15.180707
14.686584
14.340878
13.562441
13.659596
12.209415
12.797713
11.501908
12.326837
10.667443
11.050701
11.325479
10.486841
11.065602
10.579824
11.267662
11.747479
10.572672
9.931922
9.998679
11.349916
8.423924
8.723736
8.966923
10.212660
11.474490
14.951825
22.073984
39.850473
##ZVALUE=240
3.712773
3.436804
11.941791
31.790733
72.853565
170.419812
284.464955
475.890636
633.465648
785.687566
859.318972
857.048631
767.717957
600.646734
465.918779
293.529630
207.662582
133.031607
108.408928
108.893514
119.867921
123.502612
117.550492
108.586550
88.514686
69.491863
50.250888
36.302805
21.485686
15.958548
13.384819
11.815429
11.218786
11.762977
13.719797
12.785792
15.981793
16.724467
17.886758
18.865466
19.990802
20.993948
23.134947
22.736788
24.098754
27.854443
27.600527
28.561950
29.616952
30.932426
31.177998
32.425523
33.720732
31.683445
33.782721
33.986568
34.772754
33.737421
34.271479
34.296513
31.909943
32.830834
31.923652
30.380487
28.926730
28.847456
29.408932
27.566552
27.641654
28.141737
30.741692
31.869411
30.107498
32.372475
30.873418
30.816793
28.899908
29.335618
25.210977
24.500489
22.379756
20.611882
20.288825
17.799735
17.246604
15.593767
13.151765
14.266968
13.234615
12.984872
12.814999
12.985468
12.215972
12.340546
11.845827
11.944771
11.180639
11.596680
11.111498
10.964870
10.137558
10.699630
10.507703
10.398626
10.456443
9.854436
9.508729
10.364652
9.976625
11.568666
10.256767
10.563731
9.603500
9.648800
9.264946
9.301901
##ZVALUE=245
2.823472
2.418756
2.568960
3.171563
6.146431
22.537708
55.976510
148.807764
265.856981
463.327765
648.327470
852.403641
971.071720
1015.669703
958.720446
794.328451
635.273457
416.178703
287.128687
165.868998
124.069452
102.960467
114.528537
129.428506
132.735968
126.984715
114.558935
95.177889
77.034831
58.964491
35.212636
26.241541
17.791986
14.482737
13.372898
14.278889
13.262630
14.130473
14.150739
16.837716
16.970634
17.965436
18.269420
19.169450
19.479990
21.439791
21.782517
22.779703
22.895932
23.806691
24.677515
25.400519
24.977922
25.005937
25.827885
25.525689
25.239587
25.139451
23.458600
25.050640
23.756623
25.640726
24.244785
23.652911
23.331642
22.826791
24.256706
21.717548
24.369955
21.952987
23.191571
23.336411
25.169849
24.867654
26.090741
22.949576
23.185611
22.804737
21.068454
19.363761
17.062426
17.030835
15.028715
15.397668
14.087558
12.335777
12.829900
11.672974
10.960698
10.483861
10.245442
11.058450
10.442734
9.438992
10.532737
10.330677
10.644794
9.952784
9.689927
8.815527
9.161830
9.733438
9.915829
9.890795
9.134412
9.646416
8.706450
8.427501
8.656979
8.519888
8.235574
9.008646
8.237958
7.678866
8.258820
8.323789
##ZVALUE=250
1.850724
2.280474
2.485514
2.532601
2.259612
2.718568
3.897548
15.529990
40.632486
112.192631
218.711495
436.028838
624.204874
869.667530
1011.111736
1015.669703
1015.669703
993.047953
841.467977
572.496653
393.060446
225.454569
144.471526
105.246902
108.823776
127.372742
135.342479
143.291950
140.874982
129.318833
105.115771
84.376931
58.532953
43.864846
26.330948
18.184781
16.071796
13.849735
14.843941
15.617609
15.912652
15.824437
18.266439
17.822981
19.632578
20.060539
21.052957
22.247434
21.954775
23.439527
22.976995
24.271607
26.050806
24.395585
26.401877
25.647879
24.788976
24.568439
25.572777
23.206472
24.125576
24.367571
23.609996
23.759604
22.426844
22.382736
22.080541
21.476746
21.305680
20.696521
21.901727
22.003651
24.581552
22.817850
23.306608
22.233725
21.567941
19.257665
18.237829
16.613603
15.317798
15.535951
13.751984
13.538599
12.332797
11.079907
11.018515
10.135770
10.492802
9.732842
9.492636
8.461475
9.220839
9.047985
8.474588
9.280443
9.186864
8.856654
8.613467
8.292794
8.133650
8.532405
8.161664
7.873774
8.699894
7.704496
8.243918
7.895827
7.859468
7.213950
7.702708
7.136464
7.356405
7.453561
7.518530
7.417798
##ZVALUE=255
1.894832
1.970530
2.131462
2.020597
2.237558
2.403855
2.531409
2.329946
2.785921
7.670522
25.579929
85.521936
173.049569
370.754004
555.762649
848.478675
1015.669703
1015.669703
1015.669703
1015.669703
1012.653708
768.422484
530.409813
329.270959
170.441866
115.920901
95.854998
107.866526
128.910542
143.961906
153.343678
148.455501
129.147768
113.451481
85.450411
65.908432
43.361783
31.319857
21.815896
20.492673
18.104911
18.504858
19.783974
22.464991
21.872520
22.507906
22.941828
24.874806
26.516914
28.313994
29.175878
28.923750
27.930737
29.478669
29.269457
30.828714
29.903650
30.415654
30.821562
29.705763
29.779673
27.866960
26.289821
26.672482
26.537776
24.555922
24.077892
24.744868
24.322867
22.917986
23.825765
24.130940
23.226738
22.932887
22.163987
21.542907
20.132661
19.827485
18.143654
17.808676
14.528632
14.853477
13.659000
13.216734
11.814833
10.975599
10.977983
10.639429
9.876490
9.336472
9.131432
9.920597
9.004474
8.552670
8.605719
8.202791
7.991791
7.515550
7.582903
8.185506
8.396506
6.921887
6.842613
7.453561
7.495880
6.567836
6.548762
7.397532
6.966591
6.971955
6.854534
6.934404
7.212758
6.897449
6.589890
6.704926
##ZVALUE=260
1.660585
1.979470
1.805425
1.737475
1.904964
1.991987
1.648664
1.897812
2.385974
2.301931
2.684593
4.269481
14.682412
56.993961
121.717453
282.950997
470.770597
775.036812
996.982455
1015.669703
1015.669703
1015.669703
1015.669703
975.677967
724.089742
423.917770
267.484784
165.182948
100.239515
87.954998
111.235976
130.697489
154.582858
161.115527
154.408813
141.603947
118.289590
94.053745
68.162680
54.172873
38.043857
30.189753
27.078986
25.221705
28.057694
28.449893
30.277967
32.395720
33.388734
34.627914
36.988854
35.643578
36.585927
39.224625
37.863851
39.136410
38.303733
38.301945
37.425756
38.000941
37.034750
36.394000
34.513474
34.286976
33.494830
33.144951
30.992627
29.812455
28.614998
29.297471
28.655529
28.291941
26.808977
25.057793
24.787784
24.365783
22.261739
20.894408
19.514561
18.937588
17.529726
16.365647
14.685988
14.335513
13.110638
12.081861
11.359453
10.398626
10.548830
9.991527
9.790659
9.374619
8.079410
8.358955
8.501410
8.520484
7.888675
8.004904
7.673502
7.139444
7.413626
6.638765
7.309914
6.976724
6.584525
6.778836
6.508827
6.774664
6.082654
6.818771
6.284714
5.979538
5.988479
6.239414
6.511807
6.600618
##ZVALUE=265
1.945496
1.736879
1.522899
1.684427
1.641512
1.656413
1.863837
1.700521
2.119541
2.135634
2.347827
2.082586
2.582669
3.075600
6.911755
35.584569
87.469816
222.677588
390.281677
720.475912
981.688499
1015.669703
1015.669703
1015.669703
1015.669703
1015.669703
931.645632
590.363741
373.409986
219.264627
111.758709
82.957745
90.568662
115.113854
142.601728
159.601569
167.789459
164.756775
148.723722
127.686858
106.603503
79.656839
62.022805
48.634410
40.611625
38.327575
38.073659
40.072799
41.443706
42.190552
44.272542
46.717525
46.197772
49.022436
48.921704
48.500896
50.199628
48.799515
47.677755
46.721697
45.353770
45.733452
43.642521
43.326616
41.591525
40.889978
38.494468
38.007498
36.437511
34.606457
34.485459
33.352971
31.074882
30.254722
28.956532
28.429627
26.227832
24.189949
22.028685
21.054745
19.045472
17.475486
16.401410
15.558600
14.569759
13.330579
12.496710
11.952519
11.310577
11.209846
9.947419
9.618998
8.786917
8.663535
7.888675
7.378459
7.644892
7.914901
7.073879
7.263422
7.422566
6.834865
6.861687
6.309748
6.525517
6.584525
6.659627
6.954670
6.131530
6.322861
6.727576
6.372929
5.963445
5.849600
5.577803
5.899668
##ZVALUE=270
1.260638
1.609921
1.596808
1.649857
1.440644
1.622438
1.613498
1.744628
1.987815
1.924634
1.882911
1.845956
2.122521
2.163649
2.170801
2.726912
3.803968
17.605424
50.533414
159.026980
303.046703
604.510903
916.733742
1015.669703
1015.669703
1015.669703
1015.669703
1015.669703
1015.669703
881.296992
530.947447
322.853923
152.835846
92.053413
76.174736
94.578862
125.796795
148.611665
172.943473
179.288983
178.635716
166.256428
139.472485
120.300651
92.543960
76.355934
62.717795
57.623982
53.378940
54.018497
56.608915
58.246851
57.596564
59.199929
59.536695
59.514642
59.630871
59.396625
58.405995
58.146715
57.712793
55.603981
53.856969
53.249598
51.239729
48.816800
45.663714
43.902993
42.559505
41.764975
40.328503
37.870407
35.659671
35.208464
32.275915
31.093955
28.855801
27.378798
25.059581
24.313927
22.338629
20.794868
18.378496
17.535686
15.714765
15.640855
14.136434
13.329983
11.943579
11.825562
10.587573
11.159778
9.008646
9.549856
8.711815
7.754564
8.188486
8.374453
7.567406
7.699728
7.514954
7.064939
6.870627
6.676912
6.465912
7.004738
6.629825
6.795526
6.248951
6.348491
6.101727
6.372929
5.931854
5.805492
6.031990
5.840659
##ZVALUE=275
1.386404
1.422763
1.171827
1.482964
1.363754
1.575947
1.429915
1.436472
1.502633
1.751781
1.784563
1.599789
1.649857
2.048612
1.955628
2.007484
2.105832
2.596974
2.707839
7.939935
28.283596
104.243755
229.560733
506.084561
797.165036
1015.669703
1015.669703
1015.669703
1015.669703
1015.669703
1015.669703
1015.669703
738.291740
459.386706
220.218897
121.139884
72.851777
74.473619
103.148818
127.173662
159.880519
176.453590
188.714862
187.906623
174.379945
155.506730
129.400492
110.205412
87.703466
77.809691
70.252419
68.942904
68.271756
68.053603
68.705678
67.484975
67.152977
67.319870
67.006946
66.305995
63.489676
63.425899
60.624480
59.428811
56.897998
54.406524
52.582622
51.479936
48.504472
46.236515
44.092536
42.956471
40.302873
39.421916
35.721660
34.642816
30.990839
29.202700
27.134418
25.402904
23.380518
21.251440
20.196438
18.913746
18.104911
16.684532
15.249848
14.668703
13.011694
12.616515
12.067556
10.735989
10.330677
9.782910
9.736419
9.205937
8.185506
8.313656
8.236766
7.844567
7.706881
7.032752
7.145405
6.925464
6.835461
6.620884
6.445646
6.656647
6.494522
6.021857
6.094575
5.923510
5.892515
5.911589
5.684495
5.394816
##ZVALUE=280
1.269579
1.386404
1.319647
1.219511
1.217723
1.103878
1.542568
1.173615
1.556873
1.487732
1.594424
1.471639
1.870990
1.794696
2.011657
1.861453
1.972914
2.122521
2.098680
2.317429
2.783537
4.542470
16.215444
76.268911
174.422860
403.216481
647.354722
948.949456
1015.669703
1015.669703
1015.669703
1015.669703
1015.669703
1015.669703
890.058875
598.714948
304.890871
165.516734
78.951716
65.727830
82.661510
104.968548
138.241649
162.126422
186.945796
192.037821
192.739964
179.965496
156.936646
138.793588
112.311840
98.166466
84.791780
76.035857
71.292520
70.052743
67.971945
68.783760
68.492889
67.377687
64.898729
64.658523
61.788559
60.621500
58.087707
56.227446
53.146482
52.654743
50.095916
46.756864
44.466853
43.102503
40.756464
39.224625
37.481785
35.931468
31.919479
30.217767
27.783513
26.677847
24.161935
21.855831
19.726753
19.243956
17.843843
17.142892
15.300512
14.809966
13.377666
12.797713
11.879802
10.786653
10.582805
10.341406
9.546876
9.092689
8.435845
8.389950
8.035898
7.722974
7.687807
7.279515
6.829500
6.625652
7.116795
6.637573
6.369948
5.913973
6.377697
6.094575
6.158948
5.829930
5.634427
5.612969
5.602837
5.726814
##ZVALUE=285
1.292825
1.163483
1.295805
1.242757
1.314878
1.086593
1.222491
1.232624
1.426935
1.361966
1.324415
1.607537
1.591444
1.351833
1.494884
1.731515
1.501441
1.977682
1.866817
1.786947
2.243519
2.289414
2.797842
3.351569
8.009672
41.399002
103.187561
213.534832
477.993488
765.199661
1015.669703
1015.669703
1015.669703
1015.669703
1015.669703
1015.669703
1015.669703
784.445405
425.727963
243.939757
110.968947
66.391826
61.171651
76.622963
107.518435
133.052468
161.931515
181.884766
191.664696
189.777613
178.252459
162.032843
134.909749
114.938617
92.506409
79.900622
68.832636
65.646768
61.677694
59.427619
59.047937
55.954456
57.181716
54.585934
52.304864
51.520467
49.184561
46.484470
44.126511
43.601990
40.883422
39.808750
37.747622
35.373569
33.357739
32.335520
30.386448
27.571917
25.535822
24.166703
22.504926
20.450950
19.637942
18.329620
16.648769
15.670657
14.705658
13.879538
13.087988
11.947751
11.268854
11.011958
10.123849
9.682775
8.946657
8.507967
8.656979
7.842779
7.683635
7.715821
7.363558
7.281899
7.072687
7.321835
6.660819
6.356835
6.426573
6.149411
6.095767
6.133914
6.211996
5.601645
5.440712
5.162954
4.674792
4.896522
##ZVALUE=290
1.205802
1.019835
1.025796
0.963807
1.029968
1.098514
1.189709
1.338720
1.246929
1.415610
1.403689
1.372695
1.436472
1.326799
1.376867
1.487732
1.524687
1.521707
1.781583
1.552701
1.847744
2.162457
2.112985
2.278686
2.579689
2.952814
3.796816
11.488795
56.588650
139.689445
345.327854
592.358708
991.012454
1015.669703
1015.669703
1015.669703
1015.669703
1015.669703
1015.669703
973.143578
655.767918
329.693556
172.570944
73.885918
48.577785
56.676865
72.442889
98.135471
121.274590
145.322680
168.890953
177.083611
178.844929
165.039897
143.554807
126.745701
97.613931
81.079602
63.460469
56.018829
48.899651
46.085715
43.090582
42.616725
40.420890
39.665699
38.371682
36.318898
34.874678
33.882856
33.077598
32.003522
30.173659
28.403997
28.124452
26.459694
24.209619
22.465587
20.740628
19.758940
17.847419
17.159581
16.717911
15.352964
14.355779
12.950897
12.820959
12.159944
10.916591
11.021495
9.806752
9.421706
8.578897
8.453727
8.096695
8.074641
7.994771
7.368922
7.032752
6.705523
6.859899
6.437898
6.544590
6.084442
6.167889
6.015897
5.748868
5.879998
5.982518
5.430579
5.462766
5.524755
5.300641
5.051494
4.996657
4.910827
##ZVALUE=295
1.261830
1.266599
1.062751
1.249909
0.997782
1.098514
1.072884
1.185536
1.036525
1.191497
1.250505
1.287460
1.189709
1.264811
1.460910
1.380444
1.455545
1.393557
1.663566
1.359582
1.566410
1.783967
1.721978
1.939535
2.049804
2.483726
2.441406
2.756715
2.935529
5.311966
29.612780
83.087683
239.715576
462.501645
884.896517
1015.669703
1015.669703
1015.669703
1015.669703
1015.669703
1015.669703
1015.669703
758.897662
468.797684
213.939548
104.697943
44.679642
37.323833
47.510862
62.084794
87.206960
107.674003
135.270953
151.433945
161.142945
160.159469
145.938993
129.204988
102.472901
84.426999
62.611699
48.579574
37.363768
31.877756
28.354526
27.111769
24.847984
23.769736
23.659468
23.173690
22.313595
21.722913
20.820498
19.749999
19.437671
18.519759
17.351508
16.671419
15.027523
13.850927
13.166666
11.933446
12.072921
11.095405
10.491610
10.325909
9.287000
9.609461
8.946657
8.529425
7.913709
8.464456
7.454753
7.126927
6.730556
6.613731
6.573796
6.323457
6.352663
6.492734
5.990863
5.888939
5.542636
5.758405
5.801916
5.611777
5.699992
5.567670
5.509853
5.301833
5.128980
4.885793
5.001426
4.685521
4.618764
4.515648
##ZVALUE=300
0.961423
1.043677
1.109838
1.024604
0.994802
1.044869
1.146793
1.037717
1.083612
1.125932
1.083612
1.139641
1.301765
1.016855
1.283884
1.247525
1.465678
1.467466
1.358986
1.382828
1.525879
1.656413
1.650453
1.743436
1.616478
1.901984
1.995564
2.078414
2.480745
2.405643
2.764463
3.636479
13.881922
49.579740
168.896914
331.803560
685.300827
995.830894
1015.669703
1015.669703
1015.669703
1015.669703
1015.669703
1015.669703
950.610638
620.938540
311.482549
162.950754
58.133602
29.809475
27.503967
34.976602
52.351952
67.497492
93.891621
113.760829
133.215785
142.604709
141.022801
130.745769
110.262632
92.271566
67.997575
51.505566
34.860969
26.127696
18.648505
15.815496
14.180541
13.553500
13.845563
13.284683
13.018847
12.944937
11.945963
11.643767
11.266470
11.023879
10.134578
9.944439
9.210706
8.483529
8.731484
8.287430
7.999539
7.905960
7.277727
7.076859
6.829500
6.637573
6.328821
6.109476
5.960464
5.746484
5.696416
5.823970
5.571842
5.223751
5.906820
5.187988
5.097985
5.491972
5.134940
4.956722
5.412698
5.005598
5.231500
5.082488
4.806519
4.736781
4.753470
5.033612
4.613996
4.547834
4.400611
4.279613
##ZVALUE=305
1.023412
1.016855
0.967979
1.100898
0.912547
0.906587
1.142621
0.971556
1.134872
1.007915
0.892878
1.113415
1.096725
1.065731
1.010895
1.215935
1.319647
1.211762
1.428723
1.181960
1.169443
1.334548
1.457930
1.585484
1.280904
1.582503
1.635551
1.700521
2.246499
2.015829
2.189875
2.195835
2.689958
3.198981
7.298589
26.961565
110.491514
245.105624
550.988913
859.184861
1015.669703
1015.669703
1015.669703
1015.669703
1015.669703
1015.669703
1015.669703
795.354843
412.364602
226.512551
85.838437
36.608577
18.743873
20.893812
30.006766
42.826533
64.853430
82.987547
105.294585
118.190646
127.971768
126.614571
116.332769
102.253556
79.128742
61.641932
41.009784
29.106736
18.424988
13.286471
10.468960
9.894967
9.561777
8.878708
9.000897
8.289814
8.159876
7.889867
7.444620
7.281899
6.977916
6.646514
6.477833
6.693602
6.411672
6.444454
5.989671
5.812645
5.781651
5.589724
5.487800
5.175471
5.364418
5.167723
4.871488
5.046725
4.780889
4.761815
4.950762
4.759431
4.844666
4.605651
4.407763
4.405975
4.564524
4.682541
4.557967
4.642606
4.358888
4.430413
4.552603
4.492998
4.376769
4.195571
4.290938
4.184842
##ZVALUE=310
0.762939
0.790954
0.879765
0.852942
1.071692
0.945926
0.941753
1.132488
1.020432
1.012683
0.884533
1.092553
0.957847
0.969768
1.181960
1.100898
1.103878
1.025796
1.104474
0.958443
1.126528
1.184940
1.326799
1.321435
1.425743
1.664758
1.439452
1.635551
1.611710
1.928806
1.809597
1.857877
1.998544
2.411604
2.470613
2.793670
3.537536
11.307597
59.294701
144.226551
363.591909
623.915792
1014.416814
1015.669703
1015.669703
1015.669703
1015.669703
1015.669703
1015.669703
992.518067
585.186481
342.928767
139.966607
61.621666
20.257831
14.247894
17.650723
23.979545
37.651658
50.660968
71.642995
91.182590
108.865499
115.940571
119.245648
111.407638
95.127821
78.020692
54.565668
39.531589
24.898648
17.401576
11.898875
9.590983
7.827878
7.228851
6.595850
6.250739
5.909801
5.664825
5.414486
5.421638
5.594492
5.246997
5.181432
5.066991
5.406737
5.092621
4.818439
5.019903
4.775524
4.676580
4.553795
4.397631
4.402995
4.755855
4.354715
4.395843
4.419684
4.427433
4.102588
4.280806
4.169941
4.195571
4.151464
4.295707
4.349947
4.054904
4.225969
4.175901
4.064441
4.334450
4.119873
3.755689
4.068613
3.913641
##ZVALUE=315
0.853539
0.840425
0.991821
0.840425
0.732541
0.812411
0.831485
0.982881
0.962615
0.982881
0.893474
0.995994
0.884533
0.898838
0.962615
0.896454
1.002550
1.158714
1.037717
1.142621
1.112819
1.157522
1.268983
1.171827
1.283884
1.233816
1.466870
1.464486
1.278520
1.540780
1.707673
1.602769
1.816750
1.978874
2.039671
2.168417
2.346635
2.754927
2.985597
5.392432
29.902458
87.305903
257.190466
472.289920
901.193023
1015.669703
1015.669703
1015.669703
1015.669703
1015.669703
1015.669703
1015.669703
744.338632
456.302762
209.286809
94.983578
25.621653
12.912750
12.089610
13.843775
21.822453
32.171607
48.625469
64.896941
86.439848
99.607706
110.218525
110.444427
101.550817
88.304877
68.693757
53.631663
36.801696
25.456548
15.650988
10.818839
7.764697
6.214976
5.543828
5.295873
5.127788
4.863739
4.629493
4.684925
4.634857
4.501939
4.502535
4.603863
4.457831
4.427433
4.365444
4.106760
3.926754
4.122853
4.249811
4.111528
4.178882
3.888607
4.193783
3.885627
3.854632
3.905892
4.327893
3.900528
4.258752
4.042983
4.168749
3.998876
4.251599
3.888607
3.881454
4.121661
4.020929
3.916621
3.677607
3.691912
##ZVALUE=320
0.825524
0.809431
0.993609
0.673532
0.938773
0.987649
0.882745
0.786781
0.953674
0.846982
0.980496
0.846982
0.824928
0.721812
0.808835
0.980496
0.930429
1.044869
1.207590
1.059771
1.046658
1.027584
1.026988
1.035929
1.128912
0.989437
1.230836
1.179576
1.253486
1.341701
1.363754
1.415610
1.635551
1.811981
1.853704
1.921654
1.930594
1.958609
2.160668
2.251863
2.581477
3.479719
10.051727
56.201816
145.741701
386.141539
649.378896
1014.515758
1015.669703
1015.669703
1015.669703
1015.669703
1015.669703
1015.669703
943.666101
611.093640
292.906761
144.192576
45.033693
18.223524
10.651946
10.708570
13.637543
18.162727
29.409528
41.818619
61.162710
76.177716
94.941854
103.283525
104.615688
99.337697
83.478689
68.898797
50.026774
36.537647
21.994710
14.976859
9.081960
6.649494
5.246997
5.075932
4.322529
4.116893
4.041791
3.972650
4.231930
4.155636
4.141927
4.201531
3.807545
4.121661
3.847480
3.919601
4.028678
3.806949
3.922582
3.685951
3.911853
4.129410
3.608465
3.892779
3.812909
3.968477
4.000664
3.880858
4.155636
3.761649
3.747940
3.770590
3.574491
3.534555
3.832579
3.547668
3.553629
3.490448
##ZVALUE=325
0.853539
0.800490
0.807643
0.672936
0.809431
0.905991
0.650883
0.784993
0.732541
0.897646
0.861883
1.003742
0.946522
0.807643
0.832677
0.868440
0.953674
0.886917
0.959635
1.006722
1.014471
1.045465
0.997782
1.051426
0.935793
1.182556
1.128912
1.012683
1.126528
1.247525
1.360774
1.370907
1.353621
1.449585
1.528859
1.620650
1.731515
1.784563
1.941919
2.035499
2.056956
2.320409
2.624989
2.742410
7.247925
28.468966
110.358000
240.271688
536.126494
850.436687
1015.669703
1015.669703
1015.669703
1015.669703
1015.669703
1015.669703
1001.668572
718.160868
376.404524
202.605724
70.523620
26.497841
10.064840
8.974671
9.742975
12.017488
17.738938
26.370883
42.721629
57.828426
76.442957
87.230802
97.387433
97.487569
90.914965
80.750585
62.043667
46.803951
30.260682
20.644665
12.340546
8.394718
5.870461
4.823804
4.262924
3.845692
3.874898
3.759861
3.647804
3.766418
3.491640
3.647804
3.832579
3.446937
3.572702
3.405809
3.811717
3.560781
3.594756
3.866553
3.778934
3.596544
3.596544
3.534555
3.702641
3.483891
3.758669
3.577471
3.560781
3.864765
3.682971
3.751516
3.583431
3.453493
3.436804
3.587604
##ZVALUE=330
0.789762
0.677705
0.700951
0.831485
0.715852
0.808835
0.755787
0.641942
0.876784
0.795722
0.800490
0.727773
0.833869
0.763535
0.787973
0.717640
0.855923
0.858903
0.763535
0.985861
1.015663
1.012683
1.064539
0.978708
0.935793
1.050830
0.935793
0.903606
1.039505
1.098514
1.081824
1.210570
1.324415
1.463890
1.370907
1.408458
1.279712
1.419783
1.637936
1.636744
1.799464
1.823902
1.856685
2.371669
2.369881
2.662539
3.606677
15.677810
54.104924
141.793489
361.172557
624.083877
1015.669703
1015.669703
1015.669703
1015.669703
1015.669703
1015.669703
1015.669703
907.154679
501.893759
280.454755
108.636618
44.192672
12.496710
8.832812
8.030534
8.766651
12.224913
16.900897
26.765466
37.361979
54.885745
68.831444
82.591772
89.578629
90.022683
84.952712
71.257949
57.715774
39.991736
29.845834
19.304752
13.120770
7.912517
5.776882
4.496574
4.076958
3.411770
3.469586
3.504753
3.412962
3.425479
3.401637
3.331900
3.433824
3.795624
3.669858
3.435612
3.553629
3.583431
3.469586
3.466606
3.606677
3.751516
3.589988
3.474951
3.497601
3.594756
3.649592
3.444552
3.509521
3.459454
3.456473
3.507733
3.243685
##ZVALUE=335
0.623465
0.700951
0.702739
0.794530
0.779629
0.730753
0.790954
0.748634
0.812411
0.740886
0.872612
0.893474
0.837445
0.782609
0.857711
0.757575
0.782609
0.814795
0.746846
0.859499
0.799894
0.903606
0.739694
0.920892
0.882745
0.892878
1.100898
1.108646
0.941753
1.114607
1.076460
1.097918
1.168847
1.323819
1.395941
1.285672
1.382828
1.441836
1.400709
1.414418
1.441836
1.700521
1.673698
1.730919
2.051592
2.111793
2.119541
2.443790
3.002882
5.864501
34.247637
93.692541
267.081857
482.423902
881.277919
1015.669703
1015.669703
1015.669703
1015.669703
1015.669703
1015.669703
1011.623740
621.035695
376.654863
160.626769
69.518685
18.862486
9.348989
7.444620
7.783771
8.784533
11.108518
16.729832
23.644567
37.046671
48.668981
65.508485
75.374842
83.510876
83.810687
78.516603
68.131685
53.472519
42.372942
28.475523
20.258427
12.101531
8.579493
5.439520
4.416704
3.630519
3.495812
3.281832
3.541708
3.340840
3.273487
3.078580
3.427863
3.117919
3.372431
3.342628
3.363490
3.604889
3.502965
3.453493
3.574491
3.498793
3.587604
3.408790
3.563762
3.589988
3.620982
3.273487
3.248453
3.300905
3.467798
##ZVALUE=340
0.698566
0.678897
0.743866
0.849962
0.654459
0.624657
0.787973
0.618696
0.587702
0.864863
0.870824
0.756979
0.735521
0.781417
0.797510
0.779629
0.809431
0.717640
0.638962
0.894666
0.640750
0.797510
0.994802
0.859499
0.822544
1.000762
0.831485
0.830889
1.008511
0.895858
0.979900
1.049638
0.985861
1.080632
1.162887
1.281500
1.300573
1.251698
1.255870
1.413822
1.236796
1.486540
1.347661
1.499653
1.643896
1.736879
1.862645
1.981854
2.115965
2.552867
2.626777
3.487468
16.928911
55.689812
179.037452
358.721614
738.527775
1015.550494
1015.669703
1015.669703
1015.669703
1015.669703
1015.669703
1015.669703
770.450830
476.178527
211.968422
97.591877
25.314689
10.603666
7.979870
7.421970
7.346869
8.043647
10.616779
14.316440
23.672581
33.145547
48.517585
60.258508
71.572661
77.298880
77.855587
73.390603
64.019561
53.214431
39.562583
29.462576
18.799901
12.775660
7.788539
5.761981
4.230738
3.749728
3.460646
3.461838
3.348589
3.271699
3.005862
3.207922
3.116727
3.328919
3.399849
3.363490
3.547668
3.473759
3.476739
3.630519
3.508925
3.321767
3.490448
3.455877
3.489852
3.216863
3.318787
3.268719
##ZVALUE=345
0.722408
0.720620
0.748634
0.732541
0.707507
0.722408
0.694990
0.770688
0.639558
0.655651
0.679493
0.839829
0.874996
0.766516
0.634789
0.624657
0.665784
0.676513
0.711679
0.793934
0.784993
0.775456
0.751615
0.841618
0.929832
0.879765
0.848770
0.738502
0.976920
0.848770
0.916719
0.883937
1.027584
1.089573
1.134872
1.164675
1.011491
1.075864
1.257658
1.136661
1.234412
1.255870
1.305938
1.434684
1.351833
1.492500
1.515746
1.759529
1.941919
1.885891
1.879930
2.072453
2.641678
2.639890
7.076859
28.908849
120.496750
248.450637
535.826683
832.584500
1015.669703
1015.669703
1015.669703
1015.669703
1015.669703
1015.669703
927.399993
607.052445
274.189711
129.147768
39.235950
15.423894
8.181930
7.438660
6.783605
6.537437
6.921887
8.489490
14.166832
19.658804
30.568838
41.178465
54.859519
63.098669
70.672631
71.396828
69.066882
62.482953
50.701499
39.608479
27.667880
19.488931
12.201667
8.660555
5.699992
4.710555
3.734827
3.439784
3.465414
3.168583
3.213882
3.358722
3.346801
3.528595
3.454685
3.556609
3.364682
3.536940
3.540516
3.500581
3.427863
3.321767
3.404617
3.332496
3.211498
3.168583
##ZVALUE=350
0.808835
0.699759
0.676513
0.737906
0.779629
0.734925
0.730753
0.756979
0.639558
0.738502
0.835657
0.799894
0.827909
0.823736
0.674725
0.778437
0.970960
0.812411
0.747442
0.861883
0.648499
0.755787
0.908971
0.859499
0.760555
0.909567
0.757575
0.545979
0.953674
0.977516
0.963807
0.833869
0.978708
0.994802
1.218915
0.959635
1.046658
1.082420
1.187921
1.143813
1.195669
1.241565
1.225471
1.415610
1.315475
1.170635
1.561642
1.422763
1.570582
1.764894
1.678467
1.889467
1.787543
2.015829
2.321601
2.561808
4.228950
13.901591
66.227913
154.936910
383.678675
655.301809
1015.669703
1015.669703
1015.669703
1015.669703
1015.669703
1015.669703
998.852849
697.865486
346.095562
187.186599
68.058968
24.660826
8.492470
6.967783
6.415844
5.852580
5.600452
5.904436
8.199811
11.391640
17.737746
25.457740
36.777854
46.692491
57.730675
63.418746
66.070557
63.982606
56.648850
49.590468
36.399961
28.081536
18.494725
13.479590
8.804798
6.410480
4.570484
4.012585
3.682971
3.452897
3.652573
3.371835
3.360510
3.145933
3.589988
3.348589
3.553629
3.522635
3.513694
3.446937
3.263950
3.095865
3.204942
3.106594
##ZVALUE=355
0.825524
0.595450
0.722408
0.801682
0.631809
0.728965
0.802875
0.626445
0.744462
0.784993
0.745654
0.713468
0.609756
0.885725
0.694990
0.765920
0.858903
0.676513
0.805855
0.791550
0.846982
0.763535
0.717640
0.808835
0.752807
0.839829
0.799894
0.793934
0.935793
1.127720
1.113415
0.954866
0.956655
0.873804
0.959635
0.978708
0.978708
1.026988
1.088977
1.116991
1.053810
1.088977
1.152754
1.149774
1.131892
1.261830
1.397729
1.292825
1.602769
1.648664
1.624823
1.593828
1.669526
1.842976
1.986623
2.002716
2.185702
2.528429
2.932549
6.380677
37.179589
105.141401
285.262465
498.190522
894.920826
1015.669703
1015.669703
1015.669703
1015.669703
1015.669703
1015.669703
837.641954
467.383862
254.049897
93.208551
36.802888
9.699464
6.667972
6.035566
5.507469
5.388856
5.058646
5.677938
6.738901
10.362864
14.968514
23.730993
31.058788
42.818785
50.718784
58.436990
60.708523
58.357716
54.039955
45.412779
37.779808
27.443767
20.482540
13.273954
9.576678
6.393790
4.894733
3.866553
3.694892
3.645420
3.505945
3.390908
3.661513
3.612638
3.331900
3.440976
3.302693
3.212690
3.121495
3.159642
3.082752
##ZVALUE=360
0.738502
0.731945
0.592470
0.663996
0.650883
0.746846
0.741482
0.697970
0.942945
0.573993
0.706911
0.755787
0.799894
0.688434
0.816584
0.886917
0.819564
0.820756
0.883937
0.739694
0.786781
0.804663
0.845790
0.759959
0.755787
0.938773
0.903606
0.888705
0.920892
0.888705
0.949502
0.972748
0.986457
1.002550
0.894666
1.033545
0.969768
1.006722
1.109838
0.955462
1.163483
1.108646
1.263618
1.165867
1.301765
1.158714
1.208782
1.222491
1.270771
1.311898
1.503825
1.508594
1.434684
1.558661
1.795888
1.797676
1.766682
1.963973
2.253652
2.511740
3.008842
3.763437
17.630458
54.856539
177.596807
346.220732
695.749521
989.160538
1015.669703
1015.669703
1015.669703
1015.669703
1015.669703
990.374088
595.984459
347.248912
133.942962
54.100752
13.892651
7.451773
6.120801
5.649924
5.222559
4.964471
4.637837
4.947782
6.073713
8.121729
12.890697
18.506646
27.631521
35.661459
44.862628
51.042438
55.162907
55.216551
50.868988
45.287609
36.198497
29.011965
20.231605
14.975667
10.097623
7.049441
5.430579
4.241467
3.812909
3.627539
3.793836
3.451705
3.376603
3.284812
3.063679
3.170967
3.114939
3.040433
##ZVALUE=365
0.697970
0.666976
0.733733
0.827909
0.844598
0.783801
0.646710
0.638962
0.714660
0.841618
0.733733
0.915527
0.765920
0.807643
0.846982
0.748634
0.762939
0.790954
0.965595
0.697970
0.789762
0.791550
0.791550
0.812411
0.853539
0.924468
0.951886
0.841618
0.819564
0.872612
0.796914
0.923872
0.896454
0.806451
0.918508
0.911951
1.146793
1.073480
1.000762
1.111627
1.039505
0.911951
0.925660
1.180768
1.067519
1.135468
1.339912
1.151562
1.425743
1.156926
1.345873
1.594424
1.349449
1.369715
1.589656
1.652837
1.666546
1.734495
2.020597
2.139807
2.107620
2.287626
2.637506
3.107786
7.536411
27.239919
108.618736
238.091946
549.806952
871.250629
1015.669703
1015.669703
1015.669703
1015.669703
1015.669703
1015.669703
716.795921
430.305600
182.963610
84.275603
24.862885
9.557605
5.934834
5.483627
4.914999
4.761815
4.574656
4.400611
4.624724
5.401969
7.054806
9.881854
16.071796
22.070408
31.312704
38.407445
45.791864
49.164891
50.724745
49.508810
43.735504
37.321448
29.180646
22.147894
15.231967
11.076927
7.308722
5.428791
4.388690
4.022717
3.684759
3.164411
3.032684
2.937913
2.847910
2.793670
##ZVALUE=370
0.673532
0.667572
0.737906
0.496507
0.661612
0.602603
0.774860
0.782609
0.828505
0.663996
0.921488
0.599623
0.770688
0.769496
0.683665
0.738502
0.753999
0.747442
0.781417
0.905991
0.785589
0.743866
0.735521
0.684857
0.837445
0.851750
0.927448
0.865459
0.760555
0.861883
0.766516
0.919700
0.831485
0.862479
0.898838
0.768900
0.924468
1.016855
0.952482
0.951886
0.990629
0.933409
1.046658
1.102686
1.255870
0.906587
1.006722
1.206994
1.257658
1.297593
1.082420
1.104474
1.324415
1.244545
1.409650
1.376867
1.367927
1.546741
1.590848
1.581907
1.799464
1.698732
2.022982
2.308488
2.332926
2.521873
4.220605
14.770627
76.426864
178.951621
411.202908
680.481791
1015.669703
1015.669703
1015.669703
1015.669703
1015.669703
1015.669703
849.304795
544.153452
248.255730
123.792887
41.463971
15.680790
6.069541
5.312562
5.028844
4.603863
4.445910
4.092455
4.209876
4.227757
5.155802
6.490946
9.958744
13.467669
20.109415
25.525689
33.810735
38.996935
45.708418
48.012733
46.314001
42.689443
35.688877
29.611588
21.279454
15.380979
11.199713
8.449554
5.732775
4.748702
3.760457
3.175735
2.904534
2.541542
##ZVALUE=375
0.586510
0.512600
0.611544
0.562668
0.384450
0.687838
0.586510
0.677705
0.783801
0.726581
0.652671
0.573993
0.797510
0.658631
0.724792
0.740886
0.590682
0.723600
0.634789
0.830889
0.767708
0.772476
0.636578
0.719428
0.857711
0.882745
0.729561
0.861883
0.803471
0.842810
0.730753
0.967979
0.894666
0.883937
0.929832
0.800490
0.919700
0.965595
0.913739
0.968575
0.773668
0.941753
0.890493
0.997782
1.140833
1.033545
1.046658
0.981688
1.176596
1.004934
1.230836
1.030564
1.145601
1.059771
1.206994
1.234412
1.283884
1.107454
1.278520
1.303554
1.245737
1.445413
1.592636
1.493692
1.876950
1.913905
2.144575
2.539754
3.110766
7.679462
38.857460
105.651617
296.351910
526.877642
913.085938
1015.669703
1015.669703
1015.669703
1015.669703
1015.669703
982.416868
695.697665
378.549695
206.742883
76.046586
29.467940
8.409619
5.666614
4.819632
4.612803
4.688501
4.362464
4.407763
4.392862
4.404783
4.681945
5.898476
7.505417
10.925531
15.080571
22.310615
29.007792
37.398934
42.018890
44.931769
44.802427
41.456819
36.160946
30.776858
25.205612
18.128753
13.432503
9.159446
6.633997
4.450679
3.470778
##ZVALUE=380
0.710487
0.740886
0.776649
0.479817
0.536442
0.659823
0.598431
0.616908
0.507832
0.600815
0.754595
0.607967
0.563860
0.570416
0.591874
0.583529
0.600815
0.738502
0.623465
0.685453
0.735521
0.669956
0.745654
0.751615
0.878572
0.796914
0.744462
0.744462
0.843406
0.897646
0.761747
0.698566
0.807643
0.877976
0.924468
0.976920
0.882745
1.049638
0.808835
0.928640
0.869632
0.933409
0.849962
0.945926
0.925660
1.076460
1.009703
1.078844
1.179576
1.064539
1.134872
0.998974
0.986457
1.187921
0.901818
1.134872
1.167655
1.157522
1.258850
1.405478
1.283884
1.389980
1.469851
1.479983
1.494884
1.717806
1.741648
1.809597
2.168417
2.557635
2.753735
4.399419
22.457838
69.267750
209.393501
397.234559
783.755779
1015.669703
1015.669703
1015.669703
1015.669703
1015.669703
1015.669703
874.105692
500.266552
288.909674
114.965439
49.185753
12.834668
6.120801
5.063415
4.873872
5.043745
4.613996
4.524589
4.588962
4.399419
4.265904
4.503727
4.788637
6.976724
9.608865
14.340878
19.752979
26.921630
34.634471
38.998723
42.684674
42.920709
40.204525
37.259459
30.524731
25.306940
18.007755
13.377666
8.956790
##ZVALUE=385
0.642538
0.676513
0.561476
0.546575
0.649691
0.579953
0.569820
0.528693
0.551939
0.601411
0.430942
0.598431
0.691414
0.636578
0.673532
0.748634
0.748634
0.662804
0.653863
0.586510
0.729561
0.613928
0.781417
0.687838
0.722408
0.892878
0.660419
0.595450
0.691414
0.794530
0.800490
0.925660
0.849962
1.106858
0.912547
0.853539
1.112819
0.906587
0.899434
0.935793
0.979900
0.924468
1.116991
1.040697
1.024604
1.059771
0.895858
1.156926
1.090765
1.059771
1.136661
1.164675
1.199841
1.149774
1.073480
1.076460
1.022816
0.978708
1.265407
1.195669
1.256466
1.265407
1.299977
1.456738
1.416802
1.519918
1.752973
1.817942
1.823902
2.059937
2.367496
2.378821
2.457500
3.040433
9.795427
34.436584
131.178498
281.234980
607.100725
926.221013
1015.669703
1015.669703
1015.669703
1015.669703
1015.669703
1014.813781
663.001537
415.242910
184.202790
86.959004
26.202798
9.437799
5.378723
5.039573
5.044937
4.805923
4.573464
4.319549
4.022717
3.755689
3.732443
3.860593
4.434586
5.806684
8.574724
11.616945
17.593503
23.674965
28.967857
33.034682
37.900805
39.749742
38.634539
35.813451
30.687451
23.762584
##ZVALUE=390
0.640750
0.626445
0.724792
0.628829
0.727773
0.569820
0.573993
0.692606
0.510812
0.626445
0.562668
0.531673
0.628829
0.588894
0.625849
0.677705
0.543594
0.632405
0.593662
0.541806
0.753999
0.675917
0.671744
0.619888
0.690818
0.786781
0.815988
0.867844
0.669956
1.063943
0.949502
0.917912
0.870824
1.000762
0.934601
0.867844
1.081824
0.946522
1.233816
0.978708
1.060963
1.086593
1.123548
1.331568
1.180768
1.120567
0.999570
0.943542
1.185536
1.143813
1.233816
1.277924
1.171827
1.188517
1.170635
1.241565
1.200438
1.260638
1.299977
1.185536
1.221895
1.194477
1.275539
1.301765
1.486540
1.400709
1.498461
1.658797
1.816750
1.946688
2.047420
2.246499
2.416968
2.321601
2.493858
2.630949
5.348921
21.467805
95.717907
212.123990
474.353433
761.444569
1015.669703
1015.669703
1015.669703
1015.669703
1015.669703
1015.669703
865.960717
568.864942
266.325474
132.951736
42.535663
15.982985
6.379485
5.111694
4.906654
4.556775
4.345775
4.398823
4.068613
3.932714
3.698468
3.674626
3.673434
4.014969
5.145669
7.299781
9.624958
14.245510
18.420815
24.239421
29.141903
34.372807
37.052631
37.520528
##ZVALUE=395
0.695586
0.605583
0.650883
0.453591
0.597835
0.595450
0.658631
0.528693
0.425577
0.725985
0.534654
0.462532
0.704527
0.538826
0.491738
0.560880
0.544786
0.556707
0.678897
0.826716
0.806451
0.649691
0.684857
0.710487
0.819564
0.715852
0.819564
0.761747
0.863671
0.827909
0.980496
0.920892
0.942945
0.991821
1.094937
0.984669
0.991821
1.112819
0.959635
1.113415
1.221895
0.995994
1.176000
1.161695
1.306534
1.117587
1.251698
1.287460
1.149774
1.168847
1.240969
1.148582
1.368523
1.256466
1.126528
1.319647
1.385808
1.308918
1.293421
1.263618
1.151562
1.277924
1.351833
1.414418
1.465678
1.458526
1.746416
1.535416
1.921654
1.960993
2.060533
2.149940
2.072453
2.086759
2.082586
2.237558
2.311468
2.453923
3.185868
10.635853
59.394836
144.447684
345.932841
589.265823
983.079672
1015.669703
1015.669703
1015.669703
1015.669703
1015.669703
1015.669703
754.707456
393.105745
206.601620
72.732568
29.754639
8.642673
5.248785
4.989505
4.717708
4.571676
4.407763
4.305840
4.357696
3.923774
3.869534
3.893971
3.860593
4.027486
4.791617
5.502701
8.300543
11.188984
16.690493
21.199584
27.487874
##ZVALUE=400
0.786781
0.812411
0.616908
0.595450
0.723600
0.587702
0.710487
0.684857
0.890493
0.759959
0.521541
0.580549
0.704527
0.578761
0.713468
0.617504
0.724792
0.644922
0.548959
0.652671
0.591874
0.574589
0.578761
0.611544
0.735521
0.747442
0.788569
0.923872
0.965595
0.836849
0.841618
0.872612
1.034737
0.953674
1.138449
1.024604
1.205802
0.987649
1.126528
1.071692
1.136661
1.252890
1.069903
1.272559
1.437664
1.371503
1.246929
1.347661
1.276731
1.228452
1.185536
1.063943
1.099706
1.237988
1.348853
1.262426
1.448989
1.324415
1.388788
1.458526
1.410842
1.295805
1.212955
1.370907
1.469851
1.544952
1.503825
1.641512
1.740456
1.803637
1.835823
1.873970
1.964569
1.949668
1.928806
1.890659
2.097487
1.986623
2.249479
2.359748
2.760887
5.382895
29.883981
84.885955
242.100954
442.293882
826.482773
1015.669703
1015.669703
1015.669703
1015.669703
1015.669703
1015.669703
891.153812
502.862930
295.354724
123.036504
53.724647
14.502406
6.630421
4.980564
4.791617
4.574656
4.579425
4.708767
4.796982
4.608631
4.367828
4.201531
3.719926
3.379583
3.619790
3.830791
5.051494
6.396770
10.049939
##END
