##TITLE=1-3
##FORMAT=SPECTACLE-ASCII V-1.2
##DATA TYPE=ULTRAVIOLET SPECTRUM
##SECOND TYPE=ULTRAVIOLET SPECTRUM
##DATE=04/09/18
##TIME=14:44:07
##SPECTROMETER/DATA SYSTEM=SPECTACLE
##XUNITS=NM EM
##YUNITS=ENERGY
##YFACTOR=1
##FIRSTX=220
##LASTX=450
##NPOINTS=116
##3DDATA=Equidistant
##ZUNITS=NM EX
##FIRSTZ=210
##LASTZ=400
##ZPOINTS=39
##XYDATA=(Y..Y)
##ZVALUE=210
23.745894
20.710826
16.893744
14.968514
13.214946
12.199879
11.535883
9.138584
7.755756
7.708669
5.836487
5.008578
4.436970
3.895760
3.952980
4.568696
5.203485
4.328489
4.839897
4.948974
5.904436
6.532669
5.845428
6.490946
7.312894
8.610487
9.081960
9.872913
10.668635
10.330677
12.129545
11.654496
12.696981
12.792945
14.126897
13.263822
13.890862
13.637543
12.652874
14.488697
14.196634
15.675426
15.552640
16.016960
14.870763
15.172958
16.822815
17.321706
17.343760
19.061565
17.249584
20.126700
19.498467
18.527508
19.427538
19.411445
17.637610
19.007921
17.610788
18.555522
17.346740
15.968680
19.299984
18.494725
18.225908
21.395683
19.604564
20.825863
21.829605
25.496483
26.484728
29.297471
32.970905
37.470460
39.599538
42.901635
42.386651
44.831634
42.461753
39.594769
36.802888
34.304857
26.279688
23.578405
19.805431
16.062856
13.733506
14.360547
15.204549
15.479922
19.349456
24.466515
29.950738
38.927794
47.821999
54.762959
69.341660
73.282719
87.723732
92.933774
99.887848
97.305775
98.748803
97.732544
88.901520
82.901716
74.316859
67.145824
55.573583
48.091412
38.600564
31.005740
26.663542
21.858811
18.035769
17.912984
##ZVALUE=215
72.109699
74.611902
56.178570
39.660931
32.262802
21.584630
18.920898
16.578436
18.385649
15.489459
13.516545
9.725690
9.022951
6.678700
5.090833
5.204678
4.513860
4.695654
5.253553
5.334616
6.535649
6.252527
5.926490
7.981658
8.580685
8.765459
9.116530
11.185408
10.358691
11.705756
12.867451
13.769865
13.304949
13.548732
14.503598
13.470650
14.231801
14.900565
16.120672
16.233921
17.257929
17.980933
18.142462
18.785596
19.298792
20.231605
21.154881
21.386743
22.163987
22.048950
23.738742
23.935437
24.586916
23.003817
23.497939
25.772452
26.228428
22.611618
24.900436
23.253560
24.285913
23.180842
23.947954
21.858811
23.194551
21.719933
20.797849
22.594929
24.463534
25.292635
28.118491
31.164885
35.100579
36.306977
37.698746
37.450790
42.423606
38.130879
37.958622
34.851432
32.951832
28.602481
23.428798
20.982623
18.587708
17.078519
14.554858
13.969541
12.305975
12.858510
12.651682
12.116432
12.883544
13.561845
18.432736
22.661686
30.574799
40.386915
52.169561
62.748790
76.148510
92.692971
108.574629
120.140910
128.416419
137.093663
140.017867
140.227675
135.083795
128.060579
121.642947
110.530853
105.725527
86.057782
73.013902
52.410960
##ZVALUE=220
155.598521
152.927637
154.105425
140.650868
108.623505
87.638497
53.610802
41.807890
31.443834
27.196407
25.426745
28.030872
21.897554
20.324588
14.917850
11.036992
8.787513
7.429719
6.854534
5.975962
6.168485
6.180406
5.654693
5.961657
7.125735
8.028746
7.292628
8.978844
10.206699
10.306835
10.371804
11.718869
13.739467
14.293790
14.020801
15.294552
16.451478
15.958548
16.187429
19.590855
19.143820
20.428896
22.022724
21.402836
23.242831
26.023984
26.498437
27.894974
29.150844
29.322505
28.762817
30.864477
34.306645
32.531619
33.624768
34.207702
32.394528
30.298829
34.348965
33.879876
31.050444
31.167865
29.379725
30.407906
28.655529
29.085875
26.170611
28.395653
28.381944
31.842589
30.037761
35.050511
38.601756
39.287806
39.509535
37.801862
37.484765
36.825538
35.096407
31.828880
29.534698
27.074814
25.615692
22.290945
20.211935
16.295910
16.049743
13.357997
12.682676
12.250543
12.112856
11.711717
11.145473
10.741949
10.963678
12.091994
10.849833
11.112690
13.596416
17.724633
21.102428
34.078956
46.629906
64.346790
79.578757
105.127692
120.700598
145.349503
156.129003
181.325674
191.398859
201.824903
197.558999
195.231438
191.749930
178.949833
##ZVALUE=225
189.961791
187.764764
239.220858
259.401798
254.215002
233.739614
205.603838
147.335529
112.073421
71.892738
52.614808
39.650798
40.367842
37.972927
37.509799
33.826828
29.200912
21.929741
17.618537
11.589527
8.937716
7.948875
6.747842
6.423593
7.322431
7.935762
8.624792
8.448958
10.405779
10.061860
11.532903
10.772943
12.510419
11.915565
13.787746
14.793873
18.046498
19.880533
21.239519
21.766424
23.501515
24.971962
26.581883
27.004480
30.520558
30.289888
32.324791
33.184886
33.982992
38.679838
39.477944
42.163730
40.590763
41.685700
41.532516
41.685700
44.947863
43.512583
42.075515
42.630434
40.998459
41.297674
41.334629
37.432909
37.061572
36.992431
33.778548
36.192536
35.829544
35.885572
35.350919
36.586523
36.268830
36.035776
38.679838
38.829446
37.434697
33.932924
31.594634
31.045675
28.439760
25.261641
23.093820
21.124482
18.987656
18.246770
16.708970
14.769435
15.305877
14.202595
14.995933
12.875795
11.861920
11.304617
11.505485
10.681748
11.311769
11.144876
9.446740
10.922551
10.279417
10.443926
12.033582
14.317632
19.546747
28.557777
45.154691
67.578554
84.669590
111.687779
142.701864
170.086622
200.905800
234.383941
255.997777
289.604664
##ZVALUE=230
114.386678
124.852657
214.001536
289.692879
350.948572
419.679880
428.857803
411.643982
352.183580
264.846683
198.820829
120.406747
88.543892
63.159466
59.952736
63.654780
61.387420
57.605505
52.290559
40.812492
29.680729
22.856593
15.208721
11.569858
8.903742
7.709861
7.537603
8.373857
9.890795
9.210706
9.813905
9.809732
11.205673
11.415482
13.919473
15.724897
16.039610
18.552542
19.696951
22.597909
25.880933
27.934909
30.971766
31.372905
33.239722
35.754442
37.110448
38.879514
41.726828
40.532947
42.426586
45.831800
45.571923
46.082735
46.792626
47.781467
46.896935
49.552917
48.428774
47.743917
48.221946
45.215487
44.249892
44.283867
42.505860
41.681528
39.173961
39.724708
38.747787
36.990643
40.707588
38.131475
42.736530
40.457845
39.498806
40.314794
37.711859
36.034584
34.754872
31.253695
29.954910
25.530457
23.208857
22.452474
18.164515
18.549562
17.537475
15.432835
16.501546
14.159679
15.851855
14.314651
13.406873
14.333725
13.517737
11.473894
12.283921
12.748837
12.661815
11.435747
10.682940
11.470914
11.668801
9.692907
10.890961
11.580586
10.167956
11.501908
15.222430
21.402836
34.493804
55.285692
76.761842
119.079947
154.228806
211.491585
##ZVALUE=235
34.307837
38.604736
89.157820
162.840486
263.498425
406.830907
532.492995
659.444928
708.325505
678.002834
600.149632
457.775593
336.696506
207.449794
146.059990
97.278953
82.314610
88.141561
90.024471
87.507963
81.146955
67.708492
52.551627
35.996437
27.788877
17.763972
13.879538
10.592937
10.385513
11.628866
10.910630
11.500716
10.978580
13.768673
15.449524
14.483929
15.948415
17.240644
19.592643
22.172928
23.623705
26.355982
26.017427
29.304624
33.818483
33.756495
35.621524
35.476685
40.584803
39.553642
42.432547
44.705868
43.737888
45.218468
46.883821
44.595599
45.449734
45.192838
42.521954
42.928457
41.903853
43.116808
40.754676
41.568875
38.381815
40.038824
36.269426
38.249493
37.725568
37.936568
38.316846
38.879514
40.076971
39.227605
40.349960
41.019917
38.060546
35.873652
32.479763
31.198859
25.948882
26.362538
24.995804
23.080707
20.401478
18.875599
17.444491
17.000437
15.531778
14.763474
15.830994
13.636947
13.786554
14.363527
13.206601
12.880564
12.737513
13.436675
11.595488
11.878610
13.804436
11.184812
11.420846
10.412931
11.858940
11.101961
10.509491
11.129975
10.822415
10.691881
11.034608
12.131929
11.961460
15.032887
27.364492
50.084591
##ZVALUE=240
3.919601
4.080534
14.175773
35.470724
82.627535
189.757943
329.080820
554.187894
748.592615
945.490599
1015.669703
1015.669703
946.055651
753.530860
581.097603
356.055498
240.696669
146.641731
113.967657
115.826726
119.577646
125.697851
120.654702
108.971596
88.277459
69.802999
49.377680
32.892823
23.832917
19.874573
14.967918
13.372898
13.105869
14.310479
14.335513
15.581846
15.637875
18.474460
18.515587
21.709800
22.457838
24.621487
24.168491
26.239753
27.752519
29.674768
30.063987
31.061769
32.932758
31.860471
32.943487
32.896996
36.175847
35.433769
35.563707
35.340786
36.641955
36.911964
33.801794
35.177469
33.244491
35.120845
36.347508
34.794807
34.810901
31.726956
31.785965
32.600760
30.793548
32.228827
34.686923
33.460855
35.361648
35.281777
37.767887
33.693910
32.304525
33.323765
29.711723
27.404428
26.303530
23.719668
21.736622
21.534562
19.180775
17.131567
15.358925
16.140938
15.317798
14.835000
14.892817
13.991594
12.802482
12.255907
13.257861
13.117790
13.304949
11.538863
12.767911
12.103915
13.155937
13.007522
12.136698
11.855960
12.663603
12.785792
12.389421
11.510849
11.837482
11.872649
10.532737
12.512803
11.517406
11.060834
9.920597
9.992719
##ZVALUE=245
2.553463
2.605915
2.972484
3.277659
6.189942
27.477741
64.677596
181.338787
307.360888
558.625460
766.080022
1015.669703
1015.669703
1015.669703
1015.669703
992.116928
802.250504
527.522564
357.200503
198.461413
137.678981
111.238956
118.481517
130.887628
133.364797
126.060843
116.993785
103.229880
78.290701
58.440566
40.386915
29.062629
19.611716
15.678406
15.561581
15.083551
14.376640
15.047789
17.062426
17.348528
18.317699
20.017624
20.013452
20.700693
21.406412
22.494793
22.792816
25.236607
25.218725
26.094913
27.256608
27.016997
26.588440
26.950836
27.884841
26.442409
27.130842
28.827786
28.363466
28.724670
27.738810
26.563406
25.074482
25.659800
26.452541
25.593638
24.273992
25.285482
25.191903
24.878979
27.686954
27.564764
29.548407
27.876496
26.967525
29.200912
25.898814
26.618838
24.495721
22.149682
19.582510
19.870996
17.290711
15.170574
15.966892
15.661716
14.705658
13.446808
14.346838
14.761686
12.387633
13.208985
11.939406
11.717677
11.151433
10.265708
11.503696
11.386871
11.047721
11.834502
11.105537
11.601448
10.096431
10.344982
10.581613
9.959936
10.194778
10.465980
11.163950
9.909868
10.753870
10.315776
9.898543
9.477735
10.285974
9.426475
##ZVALUE=250
2.469420
2.831817
2.141595
2.600551
2.883673
2.858639
3.819466
16.859770
49.724579
136.901736
264.272690
526.863933
766.636729
1015.669703
1015.669703
1015.669703
1015.669703
1015.669703
1015.669703
732.517838
499.458909
278.269649
168.615580
113.460422
106.792450
126.908422
139.510632
142.162442
141.841769
130.316615
106.254816
85.695982
60.648918
43.132901
28.645992
21.922588
17.012954
16.207695
16.657710
17.071962
17.706752
18.381476
17.998815
21.122694
22.299886
22.641420
23.508668
22.954941
25.577545
24.167895
26.674867
26.772618
26.676655
26.766658
27.035475
27.193427
27.664900
26.981831
27.384758
27.152896
25.142431
25.147796
24.934411
26.110411
24.358630
22.623539
23.925900
23.301840
24.525523
23.294687
25.319457
24.935603
25.175810
27.476549
25.070906
25.385618
24.278760
22.556782
21.346807
19.755960
18.796921
15.942454
15.764832
14.728904
13.937950
12.909770
12.779832
11.789799
11.377931
11.302829
10.668635
10.745525
10.135770
10.896921
9.662509
9.815693
9.489655
10.213852
9.146929
9.070635
9.587407
9.570718
9.838939
9.474754
8.986592
9.530783
9.553432
8.774996
8.670688
8.902550
8.766651
7.827878
8.673668
9.133816
8.785725
8.443594
##ZVALUE=255
1.994967
2.346635
2.202988
2.169609
2.162457
2.628565
2.717972
2.401471
3.830791
9.441972
29.840469
106.569529
215.361714
463.382602
693.133473
1009.643674
1015.669703
1015.669703
1015.669703
1015.669703
1015.669703
1045.417786
688.400865
430.404544
212.152600
136.366487
102.655888
108.607411
132.436752
146.726966
151.581764
149.716735
134.625435
113.645792
85.271001
65.419674
44.822693
32.411814
23.303628
21.178722
20.583868
20.386577
21.500587
22.807717
23.070574
23.495555
25.396943
26.039481
28.181672
27.599931
29.623508
30.369759
31.428933
31.624436
32.068491
31.646490
32.327771
31.677485
32.946467
33.473969
30.948520
29.607415
30.887723
29.337406
28.584599
29.035807
26.904941
26.162863
26.013851
25.633574
24.708509
26.254654
26.129484
24.545789
25.914907
24.082661
24.455786
23.282766
20.875931
19.464493
17.369986
17.015934
15.376806
13.734698
12.296438
12.663603
12.689829
11.163950
11.191964
10.525584
9.903908
10.455847
9.323955
9.243488
9.610653
8.812547
8.889437
9.160638
8.374453
8.346438
9.074807
8.273721
8.465648
8.058548
7.953644
9.353757
8.272529
8.197427
8.215904
8.408427
8.261800
7.102489
7.996559
8.081794
7.804632
7.308722
##ZVALUE=260
1.944900
1.723766
1.966953
1.873970
2.229810
2.167821
2.201796
2.536774
2.563000
2.771616
2.671480
5.070567
16.891956
69.990754
149.623752
355.192423
584.948659
969.238877
1015.669703
1015.669703
1015.669703
1015.669703
1015.669703
1015.669703
927.935839
551.087856
345.224738
170.684457
107.795000
97.786784
108.262897
135.919452
152.997971
159.712434
158.481002
143.270493
123.425722
92.611909
72.185993
50.752759
39.226413
30.938983
28.605461
27.335882
28.571486
31.022429
31.481981
33.556819
34.940839
34.756660
36.471486
38.433671
39.533973
40.833950
41.115880
41.090846
40.311813
40.212870
39.296746
38.774610
38.539767
37.135482
35.183430
35.979748
35.132766
33.821464
32.798648
31.092763
30.209422
30.804873
29.881001
28.843880
29.173493
28.139949
27.892590
26.425719
25.558472
23.205876
22.612810
20.698905
18.829703
16.931891
15.694499
14.698505
14.174581
13.749599
12.468696
11.912584
12.292862
11.258721
10.483861
10.422468
9.927750
9.871721
9.274483
8.466840
8.231997
8.577704
8.620620
7.703900
8.153915
7.673502
7.593632
8.083582
7.839799
7.592440
7.513762
7.938743
7.710457
8.012652
7.039905
7.623434
7.313490
6.975532
7.078648
7.004738
##ZVALUE=265
1.665950
1.839995
1.584888
1.821518
2.107620
1.997948
1.887679
2.382994
2.428889
2.577901
2.625585
2.733469
2.814531
3.635883
8.786917
45.475960
111.548901
279.771686
491.751432
908.277631
1015.669703
1015.669703
1015.669703
1015.669703
1015.669703
1015.669703
1015.669703
884.451866
475.007892
279.409885
132.503510
89.877844
94.877481
115.990639
147.164464
163.041949
167.822838
167.181492
148.341656
128.215551
107.068419
81.532598
65.218806
49.231648
43.183565
39.613843
39.335489
41.156411
42.383671
44.989586
46.175718
47.469735
47.985911
48.022866
50.279498
50.264001
50.638914
51.046610
49.760938
47.610998
47.508478
47.655702
45.763850
44.379830
42.929649
41.513443
39.439797
38.541555
38.282871
36.459565
35.096407
34.736991
33.679605
30.941963
31.217933
30.101538
27.759671
25.572777
23.455620
22.526979
21.110773
19.381642
17.165542
16.558766
15.630722
15.022755
13.605952
12.061596
12.260675
11.690855
10.405779
10.932684
9.919405
10.026693
9.442568
9.330511
8.457899
8.021593
8.424520
8.182526
8.152723
7.270575
7.297993
7.639527
7.797480
7.201433
7.614493
7.051826
7.683635
7.556677
6.570816
7.074475
6.720424
6.622672
7.178783
6.939769
##ZVALUE=270
1.658797
1.681447
1.850724
1.672506
1.856685
1.951456
1.828671
1.895428
1.870990
2.205968
2.157688
2.328753
2.379417
2.636909
3.222823
3.081560
4.514456
21.199584
62.934756
204.225779
391.963720
781.821609
1015.669703
1015.669703
1015.669703
1015.669703
1015.669703
1015.669703
1015.669703
1015.669703
688.198805
420.029759
193.304420
104.672909
79.065561
93.310475
126.035810
151.184797
171.460509
179.949999
177.218914
165.816545
141.522884
121.020675
93.451738
77.673793
64.519644
58.362484
55.986643
57.156682
57.615638
58.265924
59.049726
60.231686
60.011744
61.432719
60.908794
60.626864
61.286688
58.900714
57.282448
56.409836
55.845976
53.400993
51.538944
50.880909
47.987700
45.582652
43.949485
43.148994
41.332841
39.696693
38.103461
36.744475
36.157966
32.268763
30.165911
29.947758
26.567578
25.534630
22.230744
22.027493
19.561648
18.115640
16.884804
16.549826
14.666915
14.406443
13.143420
12.232661
11.697412
11.983514
10.165572
10.199547
9.951591
9.565949
8.947849
8.954406
8.624792
8.425713
8.280873
7.832646
8.282661
7.591844
7.305741
6.986856
6.982684
7.266998
6.683469
7.294416
6.599426
6.438494
6.516576
5.624890
6.131530
6.092787
##ZVALUE=275
1.467466
1.391768
1.573563
1.621842
1.772642
1.623631
1.608729
1.538992
1.608729
2.067685
1.947880
1.775622
2.171993
2.303720
2.223849
2.531409
2.442598
3.080964
3.348589
9.256601
35.277605
134.422779
289.968848
656.279922
987.889767
1015.669703
1015.669703
1015.669703
1015.669703
1015.669703
1015.669703
1015.669703
972.568989
535.649657
303.448439
132.401586
79.639554
80.981851
102.545619
134.423971
158.041716
182.768703
190.036893
188.659430
176.203847
152.797699
132.043958
106.245875
93.433857
79.492927
72.066784
67.237616
67.130923
67.080855
69.044828
68.702698
68.958998
69.305897
67.632794
65.854788
66.610575
64.047575
62.533617
60.019493
57.032704
56.880713
53.426623
50.839782
49.721599
46.996474
46.794415
44.199824
42.274594
40.104985
38.933754
37.009716
33.439994
31.346679
30.084848
26.299953
25.567412
22.984743
21.955967
20.156503
19.074678
17.433763
16.710758
15.337467
14.255643
12.429953
12.571812
12.128949
11.601448
10.026693
9.425879
9.619594
9.316802
9.336472
8.620620
8.399487
7.578731
7.579923
7.516742
7.596612
7.070899
7.227659
7.028580
7.134676
6.908774
6.827712
6.589890
6.657839
6.552935
6.087422
5.696416
5.927682
##ZVALUE=280
1.507998
1.375675
1.510978
1.377463
1.488924
1.471639
1.639724
1.683831
1.700521
1.665950
1.719594
1.747608
1.940727
1.979470
2.076626
2.414584
2.011657
2.440810
2.438426
2.961755
3.160834
5.573630
22.312403
76.503754
248.003602
460.496545
869.882703
1015.669703
1015.669703
1015.669703
1015.669703
1015.669703
1015.669703
1015.669703
1015.669703
765.885711
380.997658
200.560689
89.762807
68.501830
83.673000
107.506514
139.474869
164.035559
187.040567
194.396973
193.869472
182.260871
159.721971
139.852762
115.988851
99.251866
85.198879
77.418685
72.144866
71.136951
70.083737
70.034862
69.234967
67.586899
65.667629
65.698624
62.673688
60.904622
58.584809
58.190823
53.786635
52.569509
48.886538
48.189759
46.697855
45.727491
42.910576
40.611625
38.588643
37.406683
34.037828
32.810569
29.475689
26.756525
25.173426
22.822618
20.970702
20.021796
18.832684
17.533898
16.240478
15.089512
13.414621
13.761520
12.537837
11.955500
11.785626
10.754466
10.369420
9.402633
9.389520
8.828640
8.950830
8.107424
8.113980
8.116961
8.097887
7.511973
7.653832
7.293820
6.975532
6.928444
6.728768
6.833673
6.572604
6.462932
6.373525
6.032586
6.146431
5.640984
##ZVALUE=285
1.374483
1.400709
1.455545
1.518726
1.406670
1.548529
1.332760
1.656413
1.585484
1.448989
1.408458
1.557469
1.799464
1.788735
1.822710
1.900792
2.006888
2.290606
2.041459
2.325773
2.560616
2.996922
3.133416
4.183650
8.760691
51.768422
130.285621
280.787945
618.052483
967.434645
1015.669703
1015.669703
1015.669703
1015.669703
1015.669703
1015.669703
1015.669703
987.032652
539.646745
304.751992
155.420899
70.853829
62.839985
80.823898
105.121732
138.943791
159.666538
183.274746
193.356872
194.191933
181.137919
162.974000
137.119889
117.483735
94.506741
80.830455
70.875883
66.426992
63.483715
60.905814
60.192943
59.015751
57.354569
55.901408
53.428411
52.098632
50.872564
48.058629
45.514703
44.681430
42.141676
40.702820
38.407445
38.134456
35.980940
33.327937
31.468868
29.617548
26.494861
25.403500
23.031831
22.312999
20.921826
19.797683
17.708540
16.161799
15.271902
14.752746
13.345480
13.146996
12.053847
11.771917
10.803938
10.362864
9.617805
9.417534
9.098649
8.615851
8.683801
8.360744
7.716417
7.867813
7.552505
7.359982
7.492900
7.193685
6.573796
6.778836
6.829500
6.482601
6.349683
6.236434
6.203651
6.173849
5.657673
5.447865
##ZVALUE=290
1.125932
1.337528
1.383424
1.320839
1.356602
1.499653
1.319647
1.538992
1.575947
1.526475
1.490712
1.544952
1.405478
1.654625
1.538992
1.632571
1.836419
1.841784
1.990795
2.024770
2.107620
2.417564
2.467632
2.967715
3.071427
3.703833
4.328489
13.438463
71.429610
176.783800
446.392894
767.123699
1015.669703
1015.669703
1015.669703
1015.669703
1015.669703
1015.669703
1015.669703
1015.669703
776.425004
458.988547
195.947886
96.371770
50.937533
55.227876
77.011585
96.987486
127.980709
148.994923
173.171759
181.360841
178.323984
168.935657
146.848559
126.296878
99.945664
83.178878
66.383481
57.415962
49.910545
47.447681
44.314861
43.922663
41.662455
42.149425
38.872957
37.990808
36.186576
35.874844
34.174919
32.813549
32.008886
30.140877
29.172897
26.973486
25.833845
23.988485
21.673441
20.576715
19.082427
18.399954
17.106533
16.294718
15.362501
14.769435
13.551712
12.478828
12.161732
11.248589
10.480881
10.202527
9.735823
9.413958
9.248853
8.639693
8.203983
7.939935
7.658601
7.763505
7.356405
7.326603
7.028580
6.962419
6.894469
6.642938
6.684661
6.778836
6.513000
6.299615
6.179810
5.999804
5.895495
5.740523
5.387664
5.247593
##ZVALUE=295
1.218915
1.289845
1.177788
1.174808
1.278520
1.153946
1.333952
1.344681
1.202822
1.372695
1.467466
1.497865
1.242757
1.452565
1.606941
1.363754
1.581907
1.590848
1.785755
1.807809
1.813769
2.068877
1.998544
2.365708
2.555847
2.943873
3.036857
3.214478
3.734827
8.461475
31.526685
131.880641
290.341973
667.610765
1008.728743
1015.669703
1015.669703
1015.669703
1015.669703
1015.669703
1015.669703
1015.669703
1009.806991
562.282801
309.741497
114.602447
55.445433
39.772987
47.154427
66.375732
84.700584
112.133622
132.143497
153.701901
162.468553
159.207582
149.230957
126.733780
108.256936
82.236528
65.081716
47.934651
39.968491
32.408834
30.197501
26.943684
26.732683
26.238561
24.230480
24.563670
23.767948
22.679567
22.815466
21.420717
20.778775
19.720793
18.080473
17.359853
16.028881
15.628934
14.205575
13.728738
12.764931
12.050867
11.615753
11.247993
10.823607
9.910464
9.241700
9.423494
9.110570
8.347631
8.405447
7.943511
7.545948
7.446408
7.007718
6.870627
7.194877
6.870627
6.711483
6.437898
6.543994
6.341934
6.651878
6.215572
6.473660
5.894899
6.126761
5.688667
5.754828
5.520582
5.400777
5.423427
4.904866
5.065799
##ZVALUE=300
1.081824
1.205802
1.047850
1.189709
1.194477
1.226664
1.211762
1.213551
1.273751
1.299977
1.308918
1.345873
1.362562
1.415610
1.479983
1.373887
1.361966
1.510978
1.567602
1.647472
1.593828
1.616478
2.041459
1.996756
2.085567
2.235770
2.612472
2.505779
2.774596
2.943873
3.303885
4.361868
17.187595
62.132478
214.701891
427.224636
893.658996
1015.669703
1015.669703
1015.669703
1015.669703
1015.669703
1015.669703
1015.669703
1015.669703
826.407671
409.028530
216.530561
75.869560
35.408735
29.301643
37.227869
52.526593
70.249438
95.121861
114.971995
133.816004
142.164826
140.682459
130.610466
111.461878
93.282461
68.698525
52.210689
35.481453
26.963949
20.214915
17.349720
15.884638
14.930964
14.852881
14.577508
14.429688
14.611483
13.222694
12.681484
12.577772
11.829734
11.349916
10.605454
10.286570
9.440780
9.609461
9.249449
9.164810
8.377433
7.647872
7.809997
7.552505
7.328987
7.199645
6.972551
7.247925
6.810427
6.145835
6.111860
6.330609
5.980730
5.903840
6.058812
5.901456
5.977750
5.445480
5.758405
5.637407
5.537868
5.317926
5.375743
5.545616
5.310774
5.131960
5.303621
5.111694
5.002618
4.893541
4.896522
##ZVALUE=305
1.103878
1.127720
1.121759
1.048446
1.143813
0.904799
1.162887
0.932813
1.020432
1.027584
1.348853
1.137853
1.132488
1.127720
1.218915
1.149774
1.286864
1.367927
1.347661
1.497865
1.406670
1.681447
1.749992
1.753569
1.855493
1.827478
2.353787
2.076626
2.202988
2.499819
2.659559
2.842546
3.393888
3.573895
8.617640
32.801628
138.542652
306.913853
701.420903
1015.669703
1015.669703
1015.669703
1015.669703
1015.669703
1015.669703
1015.669703
1015.669703
973.182917
607.561469
329.148769
118.333697
48.522949
21.236539
21.969676
32.724738
44.358969
64.511895
82.360506
105.322599
118.768811
129.680634
128.117800
117.634535
103.475451
79.664588
61.883926
41.302443
29.811859
19.006729
14.767647
11.848807
11.110902
10.589957
10.436773
10.142922
9.861588
9.487867
8.953810
8.136630
7.862449
7.530451
7.416606
7.321835
7.110834
7.172823
7.064939
6.555915
6.539822
6.468892
6.018877
5.876422
5.778670
5.902648
5.783439
5.678535
5.973577
5.527735
5.299449
5.555749
5.460978
5.558729
5.254745
5.367994
5.415678
5.385876
5.242825
5.354881
5.602837
5.386472
4.967451
4.998446
4.868507
4.993677
4.838705
4.618764
4.601479
##ZVALUE=310
1.072884
0.988841
1.012683
1.010895
0.878572
1.028776
1.025796
1.000762
1.127720
1.225471
0.879765
1.112819
1.168847
1.262426
1.155734
1.001954
1.187921
1.345873
1.218915
1.324415
1.668930
1.293421
1.599789
1.480579
1.808405
1.730919
1.720786
1.843572
1.907945
1.931787
2.204776
2.428889
2.526641
2.674460
2.906919
3.605485
4.064441
18.126965
62.334538
213.702321
431.395769
896.318555
1015.669703
1015.669703
1015.669703
1015.669703
1015.669703
1015.669703
1015.669703
1015.669703
862.453580
438.501835
222.821832
71.545839
27.136803
15.828609
17.679930
26.220679
36.582947
53.883791
71.190000
94.425678
108.225942
117.683411
118.279457
111.144781
98.049641
75.183511
58.802962
39.736629
28.198957
18.534660
13.705492
10.079741
9.025931
8.172989
7.718801
7.023811
6.811619
6.189942
6.377697
6.392598
6.075501
5.898476
5.836487
5.732775
5.488992
5.683899
5.648732
5.227923
5.461574
5.273819
5.298853
5.140901
5.238652
5.020499
5.091429
5.015731
5.084872
4.832745
4.942417
4.975796
5.009770
5.045533
4.966855
4.864931
4.905462
4.688501
4.930496
4.892945
4.671812
4.869699
4.702806
4.638433
4.528761
4.078746
##ZVALUE=315
0.847578
1.009703
0.929832
0.843406
0.877976
1.049638
1.015663
1.063943
1.149774
1.002550
0.911951
1.081824
1.017451
0.948906
1.065731
1.176000
1.065731
1.232624
1.190901
1.222491
1.191497
1.300573
1.225471
1.419783
1.494884
1.544952
1.510978
1.605749
1.652837
1.629591
1.791716
1.856685
2.001524
2.200603
2.293587
2.700686
2.970695
3.289580
3.944635
6.545782
38.481951
112.462640
331.583619
617.579818
1015.669703
1015.669703
1015.669703
1015.669703
1015.669703
1015.669703
1015.669703
1015.669703
962.070823
605.044961
272.519588
121.694803
31.734705
15.022755
13.383627
15.712976
23.415685
32.386780
49.651861
63.654780
87.165833
99.506974
110.548735
113.295913
102.427602
90.466738
69.156885
56.119561
37.757754
26.002526
16.522408
11.770725
8.470416
7.077456
6.316900
5.841851
5.604625
5.486608
5.313754
5.476475
5.301833
5.119443
5.170703
4.892945
4.927516
4.874468
5.040765
5.088449
4.756451
4.560947
4.813671
4.659891
4.758835
4.663467
4.586577
4.685521
4.487634
4.832745
4.475713
4.436970
4.471540
4.285574
4.621744
4.534721
4.581809
4.608631
4.314780
4.482865
4.348755
4.423857
3.860593
4.358888
##ZVALUE=320
0.795722
1.007915
0.848770
0.791550
0.983477
0.811815
0.900626
0.752807
1.043677
1.096725
0.971556
1.037717
0.873804
0.893474
1.109838
0.896454
1.178980
1.130700
1.168847
1.154542
1.233816
1.380444
1.387596
1.326799
1.267791
1.466870
1.429915
1.526475
1.634955
1.669526
1.666546
1.698732
1.673698
1.905560
2.035499
2.188683
2.448559
2.629757
2.688766
3.020763
3.416538
4.136562
17.783642
61.307549
220.761299
447.204709
909.976959
1015.669703
1015.669703
1015.669703
1015.669703
1015.669703
1015.669703
1015.669703
1015.669703
800.063610
360.864997
181.985497
59.953928
23.180842
11.627674
11.305809
14.801621
19.698739
30.011535
43.111444
61.338544
76.492429
94.774961
103.061795
104.059577
99.888444
84.891915
69.950819
50.104856
37.145615
22.735596
15.373826
9.458661
7.060766
5.740523
5.278587
4.729629
4.999638
4.531741
4.513860
4.498959
4.434586
4.510880
4.583597
4.542470
4.732609
4.523993
4.721880
4.598498
4.395843
4.494786
4.451871
4.657507
4.647970
4.272461
4.104972
4.402995
4.247427
4.449487
4.355907
4.289746
4.428625
4.334450
4.480481
4.276633
4.382730
4.403591
4.198551
4.077554
4.151464
##ZVALUE=325
0.781417
0.866652
0.760555
0.795722
0.963807
0.939965
0.977516
0.945926
1.004934
0.943542
0.884533
1.081824
0.964999
1.012683
0.882745
0.971556
0.865459
0.962615
0.983477
1.020432
1.177788
1.111627
1.475811
1.381636
1.153946
1.419783
1.191497
1.394749
1.572967
1.306534
1.494884
1.660585
1.714826
1.947880
1.728535
1.763701
2.143979
2.285838
2.286434
2.329946
2.525449
2.829432
3.167987
3.661513
9.259582
36.015511
145.441890
308.031440
696.222782
1015.669703
1015.669703
1015.669703
1015.669703
1015.669703
1015.669703
1015.669703
1015.669703
954.170823
488.782525
259.178877
89.496970
33.481717
11.939406
10.067821
10.913610
12.956858
18.899441
27.911663
44.001937
59.147477
77.922940
89.133978
97.474456
98.414421
90.376735
80.688000
62.327981
47.373772
30.729771
21.052957
12.657642
9.238720
6.025434
5.471706
4.676580
4.528761
4.300475
4.110932
4.332662
4.325509
4.334450
4.199743
4.141927
4.339814
4.168749
4.234910
4.437566
4.148483
4.535913
4.284978
4.255772
4.134774
4.348755
4.074574
4.225969
3.982782
4.235506
4.260540
4.131794
4.332662
4.440546
4.234910
3.993511
4.231930
3.961921
3.960729
##ZVALUE=330
0.860691
0.820756
0.803471
0.907779
0.779629
0.835657
0.825524
0.896454
0.925660
0.798702
0.813603
0.878572
0.865459
1.007915
0.903606
1.059771
0.911951
1.026988
1.154542
1.024604
0.988841
1.095533
1.092553
1.037717
1.093745
1.318455
1.315475
1.192689
1.299977
1.201630
1.480579
1.421571
1.595616
1.558661
1.590848
1.679659
1.602769
1.792908
1.860857
2.146959
2.109408
2.441406
2.515912
2.560616
3.158450
3.397465
4.838705
16.070604
84.737539
202.459097
505.033731
855.758786
1015.669703
1015.669703
1015.669703
1015.669703
1015.669703
1015.669703
1015.669703
1015.669703
661.993027
360.791683
132.390857
54.745674
15.144944
9.934902
9.224415
9.422898
12.466908
17.895699
28.734803
39.280653
55.537820
69.639683
84.722638
90.724826
91.453791
84.963441
70.154667
58.554411
42.196512
30.919909
19.471645
13.683438
8.481741
6.243587
5.083680
4.292727
4.251599
4.201531
3.829598
3.930926
4.066825
4.298687
4.161596
4.007816
4.069805
4.144907
3.998876
3.995895
4.301667
4.313588
3.906488
4.018545
4.237890
4.113913
4.409552
4.212856
4.340410
4.102588
4.122853
4.210472
3.953576
4.135966
3.924966
3.903508
##ZVALUE=335
0.913739
0.884533
0.832677
0.696778
0.773668
0.694990
0.816584
0.764728
0.837445
0.896454
0.811815
0.826716
0.826716
0.825524
0.760555
0.956655
0.899434
1.031756
1.028776
1.025796
1.031756
0.950694
1.020432
0.941753
1.014471
1.002550
1.167655
1.216531
1.205802
1.398921
1.383424
1.231432
1.300573
1.435876
1.319647
1.325607
1.632571
1.472831
1.726747
1.630783
1.794696
1.941919
2.052784
2.312660
2.344847
2.442598
2.858639
3.094673
3.651977
7.400513
44.267774
121.995807
347.332954
631.852746
1015.669703
1015.669703
1015.669703
1015.669703
1015.669703
1015.669703
1015.669703
1015.669703
813.463926
481.846929
204.119682
87.734461
22.865534
10.830760
8.522868
8.810759
9.633899
12.019873
17.355680
24.310946
37.152767
48.895478
64.419508
76.021552
84.449649
84.983706
77.603459
68.221688
54.485798
42.945743
29.268861
20.910501
12.801886
9.074807
5.876422
4.900694
4.353523
4.252791
4.101992
4.077554
4.029870
3.943443
4.142523
3.937483
3.814697
3.663898
3.948808
3.910661
3.887415
3.765821
3.937483
4.030466
4.490614
4.267693
4.129410
4.318953
4.049540
4.157424
4.109740
3.960729
4.053712
3.789663
##ZVALUE=340
0.713468
0.640750
0.642538
0.860691
0.731945
0.759959
0.713468
0.733733
0.781417
0.813603
0.807643
0.687838
0.801682
0.772476
0.848770
0.808835
0.953674
0.748634
0.761747
1.034737
0.820756
1.021624
1.006722
0.895858
1.095533
1.133680
1.159906
1.166463
1.128912
1.109838
1.227856
1.195669
1.299977
1.356602
1.153946
1.388788
1.193881
1.313686
1.460910
1.486540
1.512766
1.573563
1.644492
1.755953
2.013445
2.259612
2.171993
2.449751
2.745986
2.777576
3.232956
4.204512
20.566583
72.055459
243.380666
476.498604
952.997804
1015.669703
1015.669703
1015.669703
1015.669703
1015.669703
1015.669703
1015.669703
970.186591
615.223646
271.422863
123.490691
31.217933
12.535453
8.775592
8.476973
8.233786
8.846521
11.368990
14.892817
23.049712
32.507777
48.301816
59.466958
72.971582
77.526569
78.511834
74.873567
64.343810
54.130554
39.929748
30.247569
19.367933
13.350844
8.687973
6.577969
5.258918
4.633665
4.001856
4.348755
3.886819
4.092455
4.055500
3.680587
3.632903
3.748536
3.954768
3.885627
3.786683
4.065633
4.164577
4.326701
4.075766
3.973842
4.193783
3.944635
4.006624
4.088879
3.776550
3.897548
##ZVALUE=345
0.833869
0.836849
0.689626
0.812411
0.669956
0.792742
0.811815
0.863671
0.729561
0.892878
0.824928
0.891685
0.818968
0.743866
0.900626
0.878572
0.910759
0.733733
0.988841
0.855923
0.938773
1.012683
0.970960
0.913739
0.980496
1.128912
0.868440
1.104474
0.964999
1.101494
1.183748
0.984669
1.011491
1.091957
1.154542
1.161695
1.214743
1.188517
1.451969
1.496673
1.487732
1.426935
1.548529
1.603961
1.698732
1.679659
1.858473
1.968741
2.192855
2.455711
2.415776
2.820492
3.078580
3.441572
9.222627
37.444830
158.457756
331.240892
710.207820
1015.669703
1015.669703
1015.669703
1015.669703
1015.669703
1015.669703
1015.669703
1015.669703
803.632736
357.238650
165.566802
49.032569
19.305944
9.717941
8.554459
7.974505
7.496476
7.778406
9.421706
14.375448
20.242929
31.496882
41.568875
54.819584
63.571930
70.330501
71.645975
69.586635
62.840581
51.077604
39.882660
27.776957
20.154715
12.858510
9.508729
6.825924
5.480647
4.738569
4.216433
4.165769
4.025698
3.899932
3.943443
3.788471
3.940463
4.055500
4.303455
4.106760
4.060864
4.153848
4.220605
4.041791
4.069805
3.870726
3.916621
3.923774
3.785491
##ZVALUE=350
0.812411
0.724792
0.744462
0.745654
0.859499
0.784993
0.922680
0.746846
0.792742
0.828505
0.816584
0.947714
0.812411
0.958443
0.923872
0.952482
0.842810
0.845790
0.878572
0.888705
0.827909
0.948906
0.819564
0.878572
0.934601
1.020432
0.940561
1.199841
0.931621
1.077652
1.036525
0.937581
1.167655
1.072884
1.267791
1.026988
1.194477
1.288652
1.248717
1.348853
1.273751
1.402497
1.378655
1.453757
1.509786
1.587868
1.727939
1.809597
1.890659
1.962781
2.019405
2.236962
2.234578
2.529621
2.798438
3.121495
5.385876
18.630624
89.108944
209.213495
517.605543
886.486769
1015.669703
1015.669703
1015.669703
1015.669703
1015.669703
1015.669703
1015.669703
907.002091
444.075465
234.395862
82.183480
29.397607
10.119677
8.169413
7.059574
6.795526
6.320477
6.476641
8.961558
12.022853
18.781424
25.909543
37.655830
47.019720
58.262944
63.409805
66.167712
63.924789
56.864619
48.792958
36.885738
28.457642
19.697547
14.773607
9.822845
7.271767
5.476475
4.753470
4.224777
4.189610
4.246831
3.972650
4.347563
4.156828
4.330873
4.401803
4.152656
4.264712
4.153848
4.134774
4.097819
3.902912
3.785491
3.845692
##ZVALUE=355
0.724792
0.711679
0.772476
0.736713
0.706911
0.758767
0.758767
0.673532
0.773668
0.753999
0.718832
0.808835
0.804663
0.837445
0.746846
0.899434
0.841618
0.853539
0.898838
0.873804
0.967979
0.888705
0.696778
0.756979
0.827909
0.958443
1.049638
0.981688
1.087785
1.033545
0.967979
1.055598
1.039505
1.083612
1.121759
1.118779
1.152754
1.284480
1.190901
1.293421
1.352429
1.384616
1.340508
1.492500
1.500845
1.546741
1.651645
1.629591
1.726747
1.852512
1.782775
2.033710
2.119541
2.222657
2.428889
2.488494
2.774596
3.131628
3.872514
8.542538
49.626827
141.062737
388.198495
677.003860
1015.669703
1015.669703
1015.669703
1015.669703
1015.669703
1015.669703
1015.669703
1015.669703
604.319572
324.484706
118.331909
46.278834
12.468696
7.943511
6.930828
6.543994
6.055832
5.787611
6.247759
7.712841
11.194944
15.139580
23.624897
31.545758
42.894483
51.013827
58.441758
61.063766
59.085488
55.447817
45.839548
38.454533
27.917624
20.670891
13.969541
10.089874
7.021427
5.564690
4.922748
4.703999
4.587770
4.482865
4.543662
4.270673
4.655719
4.287958
4.270673
4.019737
4.077554
3.886819
3.833771
3.734827
##ZVALUE=360
0.724792
0.903606
0.811815
0.747442
0.785589
0.885725
0.823736
0.812411
0.820756
0.840425
0.659823
0.886917
0.795722
0.813603
0.714660
0.930429
0.879765
0.745654
0.915527
0.946522
0.800490
0.872612
0.979900
1.095533
0.834465
0.925660
1.040697
0.981688
0.908971
0.833869
1.179576
1.177788
1.021624
1.123548
1.182556
1.078844
1.152754
1.234412
1.143813
1.313686
1.153946
1.249909
1.334548
1.296997
1.292825
1.254678
1.559854
1.558661
1.616478
1.626611
1.769662
1.851916
1.924634
2.000928
2.054572
2.290606
2.404451
2.419949
2.889633
2.925992
3.465414
4.906654
23.591518
73.831677
236.203671
461.866856
932.862759
1015.669703
1015.669703
1015.669703
1015.669703
1015.669703
1015.669703
1015.669703
789.901614
457.901955
173.464417
68.617463
17.121434
8.483529
7.259846
6.420612
5.955696
5.824566
5.544424
5.662441
6.766915
8.813739
13.426542
18.722415
27.634501
35.829544
46.004653
51.319599
56.185722
56.059957
51.460862
46.192408
37.457943
29.834509
21.170974
16.071796
10.744929
8.127689
6.138682
5.571842
4.712939
4.663467
4.762411
4.477501
4.410744
4.240870
4.053712
3.748536
3.723502
3.396869
##ZVALUE=365
0.859499
0.820756
0.825524
0.784993
0.668764
0.812411
0.666976
0.516772
0.675917
0.789762
0.911951
0.887513
0.902414
0.820756
0.915527
0.829697
0.921488
0.864863
0.843406
0.844598
0.830889
0.916719
0.923872
1.020432
0.993609
0.940561
1.140833
1.239777
0.923872
0.944734
1.124740
1.009703
1.018643
1.072884
1.066923
0.912547
1.036525
1.253486
1.234412
1.079440
1.150966
1.258850
1.377463
1.276731
1.389980
1.350641
1.484752
1.401901
1.602769
1.588464
1.566410
1.688600
1.688600
1.840591
1.953840
1.913905
2.031922
2.156496
2.265573
2.471805
2.722740
3.121495
3.636479
3.891587
10.320544
36.697984
149.239898
323.935747
740.369558
1015.669703
1015.669703
1015.669703
1015.669703
1015.669703
1015.669703
1015.669703
943.647623
561.842918
234.739780
107.068419
30.687451
11.402965
7.061958
6.390810
5.943775
5.395412
4.949570
4.842877
5.045533
6.008744
8.137822
11.276603
17.995834
23.372769
32.059550
38.707852
46.508908
49.818754
51.168799
49.825907
43.408871
37.602782
29.387474
22.609830
16.182661
11.114478
8.391738
6.176829
5.557537
4.795790
4.662871
4.197955
3.999472
3.723502
3.425479
3.433824
##ZVALUE=370
0.729561
0.826716
0.750422
0.791550
0.835657
0.733733
0.788569
0.781417
0.545979
0.710487
0.815988
0.638962
0.811815
0.840425
0.730753
0.856519
0.908971
0.735521
0.668764
0.812411
0.926852
0.875592
0.938773
0.898838
0.967979
0.804663
0.777841
0.870824
0.915527
0.874996
1.013875
1.032948
0.973940
1.018643
1.068711
1.155734
1.145601
1.173615
1.108646
1.089573
1.140833
1.037717
1.265407
1.199841
1.192689
1.304746
1.187921
1.323819
1.316667
1.410842
1.328588
1.447797
1.404881
1.464486
1.539588
1.697540
1.584888
1.860857
1.905560
1.976490
2.111793
2.255440
2.436638
2.811551
3.084540
3.302693
5.563498
19.778609
102.257729
249.872804
587.557554
940.482020
1015.669703
1015.669703
1015.669703
1015.669703
1015.669703
1015.669703
1015.669703
706.987977
333.388448
160.827637
51.487684
18.898845
7.039905
6.035566
5.665421
5.288720
5.147457
4.797578
5.049706
5.343556
6.194711
7.321835
10.659695
14.120936
20.785928
26.424527
35.147667
41.477680
46.611428
48.301816
46.920776
44.295788
37.084818
29.031634
22.943616
16.511679
12.796521
8.976460
7.236600
5.236864
4.514456
3.942847
3.565550
3.423691
##ZVALUE=375
0.766516
0.722408
0.770688
0.729561
0.732541
0.655651
0.794530
0.714660
0.671744
0.622869
0.676513
0.863671
0.744462
0.790954
0.861883
0.840425
0.821948
0.763535
0.794530
0.823736
0.720620
0.696778
0.893474
0.888705
0.864863
0.882745
0.620484
0.928640
0.889897
0.894666
0.792742
0.975728
0.976920
0.858903
0.946522
1.072884
1.124740
1.062751
1.008511
1.049638
0.926852
1.026988
1.100898
1.136661
1.061559
1.123548
1.093745
1.305938
1.077652
1.302958
1.324415
1.344681
1.281500
1.476407
1.387596
1.261830
1.421571
1.627803
1.459718
1.591444
1.651645
1.701713
1.899600
2.045631
2.360940
2.379417
2.718568
2.930760
3.809929
9.955764
52.887797
145.422816
408.873558
725.938678
1015.669703
1015.669703
1015.669703
1015.669703
1015.669703
1015.669703
1015.669703
927.871466
502.586961
272.783637
98.960996
38.001537
9.455681
6.288886
5.777478
5.388856
5.576611
5.501509
5.502701
5.375743
5.710721
5.869865
6.935596
8.414984
11.734962
15.894771
23.151636
29.740930
37.359595
42.580962
46.024919
46.292543
42.907596
37.180781
31.526685
26.150942
18.923879
14.073849
9.876490
7.321835
5.212426
4.178882
##ZVALUE=380
0.646710
0.690818
0.625849
0.689626
0.754595
0.629425
0.790954
0.584722
0.793934
0.658631
0.621676
0.603795
0.810623
0.667572
0.677705
0.843406
0.675917
0.833869
0.824928
0.848770
0.731945
0.760555
0.776649
0.660419
0.904799
0.822544
0.706911
0.927448
0.798702
0.815988
0.809431
0.818968
0.908971
1.006722
0.975728
0.954866
1.043677
0.972748
1.179576
1.008511
0.866652
1.313686
1.113415
1.071692
1.224875
1.091957
1.170635
0.949502
1.022816
1.080632
1.220703
0.976920
1.193881
1.263618
1.188517
1.270771
1.366735
1.403689
1.540780
1.451969
1.491904
1.497865
1.463890
1.765490
1.839995
1.875758
2.150536
2.353787
2.752542
3.021955
3.585815
5.465746
32.416582
98.277926
286.391377
545.094013
1000.341773
1015.669703
1015.669703
1015.669703
1015.669703
1015.669703
1015.669703
1015.669703
661.559701
379.830003
148.981810
63.421726
15.666485
7.452965
6.239414
5.964637
6.176829
5.902648
6.006956
5.697608
5.377531
4.980564
5.426407
5.552769
7.370710
10.209680
15.638471
20.860434
27.902722
33.760667
40.282607
43.774843
43.250918
42.417645
37.431717
32.503605
25.311708
19.644499
14.023781
9.292960
##ZVALUE=385
0.768900
0.677705
0.594854
0.621676
0.562668
0.538826
0.584722
0.695586
0.620484
0.742674
0.695586
0.628829
0.710487
0.624657
0.643730
0.628829
0.647902
0.777841
0.674725
0.744462
0.644922
0.668764
0.727773
0.736713
0.750422
0.787973
0.886917
0.995994
0.908971
0.983477
0.890493
0.953674
0.855923
1.064539
1.039505
1.058578
1.092553
1.081824
1.166463
1.093745
0.995994
1.044869
0.950694
1.044869
1.237988
1.130700
1.123548
1.235604
0.963807
1.149774
1.206994
1.121759
1.158714
1.071692
1.267791
1.413822
1.410842
1.430511
1.381636
1.203418
1.443624
1.493692
1.416802
1.640916
1.672506
1.584888
1.961589
2.050996
2.205968
2.523661
2.979636
3.026724
3.425479
3.720522
13.159513
49.299598
193.314552
413.124561
871.039033
1015.669703
1015.669703
1015.669703
1015.669703
1015.669703
1015.669703
1015.669703
908.778906
570.417643
251.598954
114.983916
29.984713
10.934472
6.838441
6.378889
6.041527
6.024837
5.606413
5.386472
4.794598
4.433990
4.419684
4.485846
5.260706
6.284714
8.837581
13.660789
17.848611
24.734735
29.199719
35.028458
37.999749
39.818883
39.513707
36.050677
31.698942
25.140643
##ZVALUE=390
0.574589
0.690818
0.552535
0.630617
0.559688
0.643730
0.525713
0.550747
0.378489
0.697970
0.608563
0.756979
0.721812
0.708699
0.510812
0.572801
0.509620
0.739694
0.561476
0.543594
0.610948
0.717640
0.842810
0.762939
0.764728
0.708699
0.758767
0.848770
0.848770
0.898838
0.860691
0.998974
1.040697
1.017451
0.970960
1.043677
1.214743
1.089573
1.177788
1.345873
1.133680
1.178980
1.231432
1.310706
1.205802
1.331568
1.324415
1.256466
1.026988
1.159906
1.329780
1.093745
1.462698
1.277924
1.201630
1.293421
1.519918
1.435876
1.448989
1.225471
1.327991
1.475811
1.606941
1.305938
1.593828
1.652837
1.904964
1.934767
2.106428
2.486706
2.446771
2.840757
2.891421
2.913475
3.126860
3.055930
6.528497
25.888681
122.690797
287.930965
674.913526
1009.637713
1015.669703
1015.669703
1015.669703
1015.669703
1015.669703
1015.669703
1015.669703
787.780881
389.084816
194.355845
62.326789
21.549463
7.413626
6.245971
5.899668
5.603433
5.422831
4.991889
5.025864
4.547834
4.545450
4.536510
4.514456
5.000830
6.066561
8.045435
10.662675
14.863610
19.321442
25.164485
29.741526
34.930706
37.203431
36.959648
##ZVALUE=395
0.658631
0.662804
0.659823
0.648499
0.672936
0.655651
0.664592
0.641942
0.545979
0.668764
0.559688
0.562668
0.688434
0.685453
0.606775
0.779629
0.822544
0.607967
0.701547
0.725985
0.588894
0.809431
0.627637
0.591874
0.698566
0.786781
0.704527
0.849962
0.894666
0.904799
0.961423
1.005530
0.989437
0.993609
1.200438
1.035929
1.067519
1.195669
1.280904
1.322627
1.309514
1.215935
1.256466
1.305938
1.180768
1.266599
1.393557
1.283884
1.356602
1.324415
1.333952
1.362562
1.442432
1.327991
1.378655
1.363754
1.495481
1.384616
1.494884
1.373887
1.441836
1.564622
1.516938
1.554489
1.543760
1.619458
1.819730
1.987815
2.146959
2.219677
2.572536
2.456903
2.486706
2.414584
2.521873
2.430677
2.949834
3.004670
4.424453
14.543533
75.924993
194.330812
482.381582
817.324519
1015.669703
1015.669703
1015.669703
1015.669703
1015.669703
1015.669703
1015.669703
971.518755
510.915518
272.855759
104.209781
41.801929
10.843873
6.715655
5.898476
5.629659
5.482435
5.402565
4.965663
5.201697
4.776716
5.039573
4.557967
4.630685
4.924536
5.369782
6.432533
8.826852
11.527538
16.829967
21.540523
27.181506
##ZVALUE=400
0.743866
0.851750
0.781417
0.689626
0.769496
0.667572
0.482798
0.639558
0.663996
0.587702
0.548959
0.659823
0.532866
0.550747
0.636578
0.756979
0.801682
0.708699
0.752807
0.748634
0.671744
0.756979
0.628829
0.640750
0.777841
0.817776
0.638962
0.957847
0.925660
0.901818
0.888705
1.048446
1.085997
1.025796
1.052618
1.174808
0.990629
1.076460
1.067519
1.166463
1.211762
1.179576
1.312494
1.267791
1.392961
1.279712
1.344681
1.314878
1.275539
1.439452
1.369715
1.430511
1.447797
1.504421
1.433492
1.462698
1.454949
1.492500
1.421571
1.448989
1.495481
1.727939
1.597404
1.371503
1.654625
1.649857
1.781583
2.036691
1.965761
2.220869
2.184510
2.338886
2.330542
2.256632
2.317429
2.191663
2.397895
2.471805
2.644658
2.953410
3.750920
7.035732
39.351583
113.654733
328.968763
609.127879
1015.669703
1015.669703
1015.669703
1015.669703
1015.669703
1015.669703
1015.669703
1015.669703
693.279505
405.966640
166.741610
74.551702
22.253990
8.603930
6.043911
5.785823
5.711913
5.688667
5.772710
5.608797
5.531907
5.045533
4.969835
4.738569
4.334450
4.124641
4.699826
5.247593
7.320642
10.808706
##END
