##TITLE=10-1
##FORMAT=SPECTACLE-ASCII V-1.2
##DATA TYPE=ULTRAVIOLET SPECTRUM
##SECOND TYPE=ULTRAVIOLET SPECTRUM
##DATE=04/09/18
##TIME=11:43:13
##SPECTROMETER/DATA SYSTEM=SPECTACLE
##XUNITS=NM EM
##YUNITS=ENERGY
##YFACTOR=1
##FIRSTX=220
##LASTX=450
##NPOINTS=116
##3DDATA=Equidistant
##ZUNITS=NM EX
##FIRSTZ=210
##LASTZ=400
##ZPOINTS=39
##XYDATA=(Y..Y)
##ZVALUE=210
14.913678
14.818907
12.556911
12.894869
10.264516
10.589957
9.618998
7.862449
7.194877
6.058812
4.076958
3.827810
3.409982
3.009439
3.309846
2.716780
3.377795
3.286600
3.259778
3.398657
3.634691
3.510714
3.873706
3.830791
4.749894
4.537702
4.625916
4.417896
4.511476
4.929900
4.768968
5.363822
6.415844
6.002784
6.447434
6.437898
6.240606
6.762743
6.051660
6.784797
7.021427
7.201433
7.563829
6.097555
7.694960
6.556511
7.065535
6.864667
7.750988
7.778406
8.093715
9.305477
8.652806
7.884502
8.901954
8.061528
7.909536
7.520914
7.981658
7.465482
7.649660
7.210970
7.451773
7.771850
8.543730
7.525682
8.489490
7.431507
9.221435
9.558797
10.781884
12.244582
14.104843
15.152693
16.089678
16.309619
14.141798
16.983747
15.268922
14.151931
13.756752
11.817813
11.679530
11.225939
8.978844
8.875728
8.701682
7.082820
8.330941
8.709431
10.512471
12.219548
16.618967
21.323562
26.165843
28.842688
34.137964
39.922595
43.347478
44.841766
49.622655
50.355792
50.929785
51.083565
49.623847
46.642423
45.131445
41.561723
34.742951
34.324527
26.877522
22.693872
17.592907
15.344620
14.694929
13.237596
##ZVALUE=215
41.570663
37.743449
31.093955
25.986433
19.583702
18.641949
14.741421
15.190840
15.629530
14.027953
11.237860
9.345412
7.442832
5.552769
4.108548
4.066825
3.113747
3.653765
3.721714
3.628731
3.913641
3.517866
4.247427
4.521608
4.149675
4.250407
4.873872
4.850626
4.593730
4.633665
5.363822
6.098747
6.382465
6.089807
6.300807
7.509589
6.310940
7.030964
7.599592
7.147789
8.368492
7.240772
7.840991
7.902980
7.645488
8.713603
7.630587
9.082556
7.410645
9.051561
8.568764
8.665919
9.357929
9.154677
9.640455
9.241700
8.849502
9.714961
9.721518
9.076595
8.877516
9.760857
8.519888
9.030700
9.531975
8.940697
9.819865
9.958744
9.562969
11.747479
11.722445
13.264418
11.907816
14.235973
15.972853
15.404820
15.890598
15.053749
15.308857
14.906526
12.847781
11.366606
11.645555
9.460449
9.098649
8.420944
8.429885
7.869601
6.423593
6.457567
7.025599
6.659627
7.908940
8.659959
10.081530
14.812946
16.149879
22.143722
26.940703
35.318732
40.166974
49.905777
58.489442
64.774752
69.936514
74.716806
73.087811
73.371530
72.416663
71.708560
69.519877
66.840649
58.901906
51.637888
46.704412
38.540959
##ZVALUE=220
85.811615
80.869794
78.807473
70.397854
58.718920
46.312809
36.707520
30.296445
25.726557
24.360418
24.054646
22.662878
20.702481
17.595887
13.674498
11.159778
8.193851
5.646944
4.580617
4.031658
4.338622
3.940463
4.115701
4.042983
4.258752
4.689693
4.241467
5.947948
5.473495
5.889535
6.262660
5.818605
6.197691
7.023811
8.436441
7.331967
7.908940
7.716417
8.652806
8.337498
8.636713
8.461475
9.573698
9.428859
8.222461
9.704828
9.913445
10.833740
10.294914
11.287928
10.949969
10.787845
11.924505
12.058616
11.589527
12.858510
12.913942
12.712479
13.538599
13.052821
12.595654
12.609959
11.289716
12.025833
12.464523
11.501908
11.698604
11.160970
12.236834
13.040900
14.921427
15.102625
14.694929
16.500950
16.503930
16.902685
16.402602
15.493631
14.332533
16.027689
13.855696
13.469458
11.722445
12.541413
10.435581
9.952784
8.783937
8.086562
7.478595
7.186532
7.778406
7.999539
7.278919
7.143617
7.498860
7.022619
7.459521
7.940531
9.245872
11.265874
17.369986
21.228790
30.647516
36.081672
45.672655
55.658817
68.179965
82.196593
90.903640
103.093982
108.563900
115.435719
115.721822
115.265846
110.246539
110.760927
##ZVALUE=225
101.481676
111.614466
129.911900
142.998695
143.148899
126.498938
112.439990
80.170631
64.414740
44.944882
40.149689
37.015676
37.705898
39.804578
38.721561
31.849742
26.937723
20.605922
17.176867
9.768605
6.713867
5.444884
5.566478
4.325509
4.662871
5.749464
4.688501
5.795956
6.218553
6.275773
6.593466
7.100701
7.586479
7.689595
8.216500
8.373857
8.975863
9.767413
10.225773
9.754896
9.530783
9.807944
10.096431
11.047721
9.834766
10.855794
11.015534
11.534691
11.492968
11.898875
13.528466
14.054775
14.679432
14.407635
12.729764
13.936758
14.217496
15.443563
14.071465
15.538931
14.357567
14.270544
14.627576
13.672709
12.973547
14.425516
11.456609
13.139844
13.519526
13.861656
13.626814
15.037656
16.068816
17.302632
17.016530
17.141700
17.192960
15.891790
14.806986
13.891459
14.106631
12.921691
11.957884
11.807680
11.111498
8.873940
9.250641
10.604858
8.206964
9.881854
8.994937
10.005832
7.437468
8.001924
8.808970
9.077787
8.578897
8.440614
7.762909
8.443594
8.804798
9.145737
8.471608
9.634495
14.311671
18.456578
28.252602
41.737556
52.349567
66.013932
84.761977
107.396841
119.033456
140.524507
152.411461
162.936449
##ZVALUE=230
76.476932
75.941682
126.771927
164.576769
204.370618
228.039622
240.904689
222.504735
198.990703
148.535967
109.379888
76.796412
60.561895
53.059459
53.918958
61.172843
60.066581
55.345893
49.242973
40.969849
30.018687
20.424724
14.065504
8.195639
6.568432
5.274415
5.028844
5.958676
5.688667
6.854534
7.004738
6.328821
7.620454
7.352829
7.440448
7.847548
8.491874
9.216666
9.348989
9.308457
11.130571
11.239648
10.414720
10.359883
11.267662
11.376739
12.534857
11.997819
12.864470
11.839867
12.827516
12.751818
13.383627
13.979673
14.801621
13.819933
15.377998
14.693737
16.082525
15.789866
16.115904
16.549826
14.960766
16.338825
14.897585
15.946627
15.771985
15.542507
15.233755
15.910864
16.718507
16.320944
17.620921
17.982721
18.538833
18.895864
18.913746
19.469857
16.950965
16.723871
16.627908
14.921427
14.187694
14.036894
12.656450
11.858940
11.323690
10.850430
10.739565
11.292696
11.516809
10.402799
10.201931
10.285974
9.983778
10.281801
10.185838
10.674596
10.879636
9.017587
9.099841
10.614991
10.632873
9.993911
10.268688
10.133982
10.711551
12.018681
12.839437
18.355846
22.158623
37.012696
48.636794
74.671507
94.161630
121.100545
##ZVALUE=235
24.022460
25.064945
58.311820
97.049475
146.032572
224.522948
292.453766
363.137722
383.511782
370.301008
325.694680
256.356597
190.598965
124.851465
95.589757
80.513954
76.575875
85.220933
85.606575
88.959932
78.331828
62.674880
52.685738
39.007664
21.960735
16.395450
11.702776
7.926822
6.773472
6.591678
6.593466
6.939769
7.877946
8.705854
7.640719
8.522868
9.140968
9.048581
9.262562
10.529757
9.798408
9.393692
11.152625
11.372566
11.352897
11.037588
10.654926
11.074543
11.500716
11.055470
11.183619
12.551546
13.329983
13.166666
13.573766
12.572408
13.228655
14.039874
13.729930
14.344454
14.122725
14.674664
16.060472
14.858842
16.306639
15.574694
16.407967
16.781688
16.011596
17.330647
18.333793
19.524693
19.379854
20.588636
19.938946
22.558570
20.727515
19.432902
19.937754
19.668937
16.948581
17.272830
16.096830
15.897751
15.657544
14.307499
13.820529
15.071630
14.888644
13.972521
14.244914
13.696551
13.768673
12.347698
13.032556
13.671517
14.074445
11.918545
13.625622
12.819767
12.818575
13.036728
11.191964
12.688637
12.437701
12.475848
11.865497
11.505485
11.857748
11.882782
12.753606
11.304617
14.091730
15.998483
19.788742
29.895902
##ZVALUE=240
3.082752
3.084540
8.252859
22.037625
46.720505
110.628605
188.995600
308.055878
405.745506
505.858660
559.343696
543.445945
498.178005
393.790007
299.088955
196.085572
144.558549
107.223988
95.627904
104.516745
110.984445
116.309524
114.462972
102.670789
84.747672
68.876743
45.489669
30.949712
19.712448
12.753606
9.412766
7.017851
8.335710
8.190870
8.743405
7.652640
8.831620
8.571744
9.762645
10.858774
9.725690
9.479523
11.106730
10.952950
10.382533
10.907650
10.859966
11.137724
11.448860
12.112856
11.197925
12.431741
11.999607
12.296438
12.348890
11.848807
13.134480
12.272000
13.205409
12.215972
12.919903
14.140606
14.481544
13.570786
14.143586
15.475750
14.143586
15.323758
17.057657
16.796589
18.947721
18.994808
21.166801
21.009445
21.176934
21.644831
22.237897
22.226572
20.145774
20.626783
19.254684
19.861460
19.734502
16.749501
16.177893
16.363859
16.595721
17.456412
15.006661
14.769435
15.235543
14.728904
14.669895
14.736652
15.683770
15.005469
14.794469
15.272498
15.687943
14.916658
14.517903
15.957952
15.744567
13.869405
15.471578
13.500452
14.405847
14.525652
15.832782
13.715625
15.329719
13.643503
12.737513
14.084578
13.244748
14.863610
##ZVALUE=245
2.436638
1.981854
2.558827
2.958775
4.445910
15.309453
38.111806
97.606778
174.386501
299.235582
412.729979
552.985668
629.834533
663.828850
630.263686
529.409647
419.114828
282.779932
200.352669
126.248002
104.895830
104.197860
114.530921
127.563477
131.360888
122.055411
115.375519
95.704794
71.505904
54.250956
32.904744
24.154782
14.211535
9.805560
8.566976
8.918643
7.592440
8.364916
8.724928
8.411407
9.066463
10.435581
9.308457
10.180473
10.337830
10.032654
10.346770
10.655522
11.507869
11.598468
11.196733
11.656880
10.837913
10.865927
11.679530
11.478662
11.237860
11.714697
11.262894
12.655854
11.438727
12.124777
12.939572
12.089610
11.947751
12.819767
12.424588
13.177991
14.262795
14.992952
15.496612
17.044544
16.447902
18.958449
19.071698
18.516779
18.910766
18.938780
17.446876
16.653538
17.159581
15.930533
15.094876
15.063882
14.912486
15.268922
13.532639
15.998483
14.896989
14.133453
13.578534
14.117956
14.041662
13.888478
12.943745
13.446808
13.128519
13.477802
13.194680
12.896657
12.597442
11.842847
13.278723
14.156699
14.659762
12.274981
12.751818
13.101697
13.799667
13.956428
13.232827
14.121532
12.828708
14.331937
13.316870
13.744831
##ZVALUE=250
1.758933
2.111793
2.318621
2.140999
2.158880
2.318621
2.960563
9.995699
27.364492
76.661706
142.070651
277.252793
400.743484
560.105443
672.053695
745.944977
742.465854
654.473901
560.683608
393.580794
269.293785
156.820416
110.506415
93.297958
102.037787
120.954514
131.511688
138.948560
133.173466
120.877624
100.259781
79.575777
55.924654
37.299991
21.822453
15.364885
10.823607
9.573698
9.208918
8.226633
9.271502
9.829998
10.445714
10.228753
9.572506
11.049509
10.151863
10.018945
10.715723
10.949969
10.565519
11.362433
11.637807
11.289716
11.093616
10.979772
10.953546
11.814833
10.402799
11.256933
9.705424
10.529757
11.153817
10.855794
11.543632
11.645555
12.007952
11.347532
12.153983
12.166500
13.301969
14.097691
14.276505
14.187694
14.485717
15.837550
15.645623
14.402866
14.636517
14.544725
13.888478
12.774467
12.995601
11.705756
12.241602
13.028979
12.443662
11.769533
11.798739
11.008978
11.698604
12.251735
11.660457
11.968613
11.508465
11.724830
11.196733
11.730790
11.932850
12.079477
11.949539
11.586547
11.704564
12.939572
11.562705
12.081861
11.992455
13.107657
12.105703
11.929870
11.962652
12.112856
11.923909
12.825727
11.347532
12.314916
##ZVALUE=255
1.811981
1.757741
2.046824
1.744628
2.082586
2.401471
2.269745
2.409816
2.765656
5.401969
17.886758
57.828426
115.996599
242.269635
364.492536
546.309948
679.633617
811.721683
847.656727
789.330602
695.082545
517.011881
360.772014
232.859850
128.677487
97.129941
88.625550
98.428726
127.371550
140.358806
142.929554
142.366886
127.311945
108.094811
78.221560
58.792830
38.435459
26.363730
14.718771
11.596680
10.517836
10.157824
10.567904
10.154843
10.804534
11.001825
10.833740
11.059642
10.483861
10.965466
10.997653
11.975765
11.273623
10.654926
11.746883
11.742711
11.136532
11.422634
11.058450
11.219978
11.208653
10.817647
9.921789
10.227561
10.518432
10.203719
11.025667
10.975599
11.428595
12.654662
12.901425
13.241768
14.011860
14.182925
13.862848
13.993979
13.835430
13.774633
12.708902
11.862516
12.064576
12.165904
11.187792
11.442900
10.817647
11.028647
10.364652
10.522604
9.918809
10.238886
9.615421
9.705424
9.983778
9.797812
9.508729
11.079907
9.691715
9.508729
10.502934
10.530949
10.380745
10.470748
10.537505
10.328889
10.698438
11.330843
11.128783
10.350943
11.349916
10.906458
9.868741
10.534525
10.866523
10.980964
11.157990
10.932684
##ZVALUE=260
1.752973
1.583695
1.586676
1.527667
1.611710
1.501441
1.927614
1.772642
1.713634
2.004504
2.136827
3.268719
9.107590
36.833882
80.528855
150.305629
308.547616
455.300808
671.922565
814.339519
932.645798
938.838720
820.180774
680.932999
458.137989
314.523578
183.423758
113.183856
81.578493
81.345439
98.754764
125.297904
141.901970
153.387785
149.454474
132.122636
116.167665
84.129572
62.007904
40.735602
26.982427
18.473864
14.753938
12.010932
10.981560
11.047721
11.517406
12.003779
11.460781
12.065768
12.625456
12.861490
12.313724
12.914538
12.590885
11.993647
11.122823
12.510419
11.824965
11.138916
11.429787
11.395812
10.570884
11.681914
10.470748
10.287762
10.735989
10.759830
11.325479
11.315942
11.744499
11.154413
11.509657
11.719465
12.211800
11.876822
12.087822
11.855960
11.376739
11.401772
10.707974
9.838939
10.100603
9.987950
9.928942
9.059906
8.901954
8.733869
9.044409
9.257793
9.405613
9.054542
9.683967
8.741617
8.995533
9.285808
9.098649
9.181499
8.982420
8.997917
9.247661
9.643435
10.026693
9.455681
10.249615
9.972453
9.435415
10.273457
10.128617
9.945631
9.605885
10.039806
9.900928
9.862781
9.169579
9.818673
##ZVALUE=265
1.540780
1.458526
1.670718
1.508594
1.765490
1.655817
1.699924
1.781583
1.900792
1.848936
1.903772
1.847744
2.182722
2.437830
5.460978
24.063587
54.794550
142.752528
250.134468
461.966991
637.691021
851.497650
971.555710
1008.569002
938.228965
768.352747
607.275963
435.637832
244.107842
152.292848
84.018707
72.022676
84.481835
108.775496
135.342479
149.827003
157.823563
153.452754
131.974816
116.063952
85.618496
65.623522
43.055415
31.616688
19.465685
16.158819
13.833642
13.554692
12.729764
13.081431
13.556480
13.865829
13.962984
14.065504
12.980700
13.607740
14.074445
13.139844
12.824535
12.446642
12.566447
11.813641
11.566877
11.551976
11.979938
11.267662
10.443926
10.989904
11.017919
11.459589
11.457801
11.536479
11.734962
11.743903
11.913776
11.112690
11.207461
11.067986
10.584593
10.264516
9.814501
9.529591
10.004640
9.181499
9.285808
9.386539
9.062886
8.232594
8.592606
8.915663
8.785725
8.879900
8.770823
8.330941
8.711815
9.308457
8.727908
8.456707
9.110570
9.080768
9.079576
8.953810
9.361506
8.936524
9.415746
9.449720
9.363890
9.113550
9.472966
8.819699
9.089708
8.651614
9.992719
9.852648
9.132624
8.854866
##ZVALUE=270
1.263618
1.378655
1.407862
1.493692
1.464486
1.365542
1.703501
1.628995
1.683831
1.825690
1.592636
1.849532
1.917481
1.886487
2.236962
2.241731
2.985597
11.113882
32.733679
101.055503
195.256472
383.304954
569.117665
833.843946
983.020663
1015.669703
1015.669703
967.252851
761.063695
571.274757
344.934464
213.996768
107.906461
68.817735
65.681934
83.842874
115.196705
135.014653
156.456828
163.125992
157.072544
141.348839
119.006634
90.619922
65.483451
47.847629
31.560659
23.934841
17.337799
16.208887
15.374422
15.436411
14.464855
14.857650
15.181899
14.858842
14.617443
15.091896
14.323592
14.459491
12.995601
13.446808
12.904406
12.600422
12.226701
12.042522
11.661649
11.629462
11.415482
11.166930
11.348724
11.857748
11.294484
11.233687
11.135936
11.647940
11.669993
10.792613
10.417700
9.769797
10.174513
9.515882
9.481907
9.250641
9.211898
9.726882
9.349585
8.962750
8.877516
8.560419
8.786917
8.509755
8.758903
7.768869
8.310676
8.707643
8.508563
7.938743
8.410811
8.371472
8.420944
8.419752
8.884668
8.894801
9.030700
9.339452
9.300709
9.192824
8.711815
9.235740
9.173751
9.016991
9.644628
8.708835
8.893609
8.480549
##ZVALUE=275
1.329780
1.146793
1.344681
1.417994
1.546741
1.502633
1.390576
1.323819
1.482964
1.461506
1.612902
1.571774
1.434684
1.414418
1.441836
1.708865
2.035499
1.974702
2.082586
5.440712
19.209981
68.039894
144.175887
320.228934
494.100451
740.707517
917.987823
1015.669703
1015.669703
1015.669703
888.803005
710.631013
458.300710
285.730958
136.802793
80.398917
52.972436
60.217977
87.981820
109.180808
136.197805
152.353644
160.093904
157.950521
139.726996
119.178891
91.914535
71.369410
46.594739
34.315586
23.158789
19.513965
16.376972
15.886426
15.029907
15.033484
15.155673
15.211701
14.075637
14.289618
13.805628
14.070868
13.209581
13.229847
11.890531
11.838675
11.628866
11.975765
11.249781
11.322498
11.627674
11.973977
11.656880
12.150407
12.245774
11.381507
11.384487
11.732578
10.841489
10.535717
9.733438
10.105968
9.640455
9.854436
9.785891
9.035468
8.041859
8.807778
8.387566
8.840561
8.672476
8.451939
9.261966
8.675456
8.978844
8.236766
8.722544
8.829832
9.103417
8.696914
8.295774
8.908510
8.826852
9.132624
9.057522
9.211898
9.467602
9.426475
8.975863
9.189844
9.572506
8.906722
9.067655
8.562803
8.546710
9.589791
##ZVALUE=280
1.361966
1.127720
1.079440
1.158714
1.276731
1.471639
1.186728
1.050830
1.225471
1.394749
1.358986
1.539588
1.510978
1.643896
1.803637
1.681447
1.855493
1.560450
1.886487
2.154708
2.106428
3.350973
11.732578
37.264824
119.621754
220.117569
410.585999
607.680678
866.299868
1008.967757
1015.669703
1015.669703
990.374684
811.330676
542.487502
364.226699
187.069774
100.807548
51.982999
45.196414
62.180758
82.464814
112.129450
132.375956
150.736570
157.588720
153.381824
138.115883
113.090873
93.572736
65.906644
48.593879
31.527877
23.760796
18.044710
15.559793
14.536977
14.084578
13.463497
13.623834
12.945533
13.257861
12.878776
12.507439
13.365746
12.531877
11.698604
11.693835
11.437535
11.830926
11.588931
11.693835
11.657476
11.986494
11.805892
11.713505
11.151433
11.032820
11.138916
10.358691
9.982586
10.214448
9.925961
9.680986
9.265542
9.102821
8.668900
8.949637
8.731484
8.768439
8.924603
8.911490
8.922815
8.701682
8.732677
8.647442
9.120703
8.604527
8.815527
8.805990
9.161830
8.932948
8.934736
8.979440
9.524822
8.834600
9.447932
9.647608
8.762479
9.165406
9.158850
9.091496
9.340644
8.876920
8.526444
8.469820
##ZVALUE=285
1.246929
1.071692
1.193881
1.245737
1.108646
1.251698
1.097918
1.101494
1.424551
1.277924
1.241565
1.305938
1.473427
1.490712
1.407862
1.397729
1.486540
1.467466
1.378655
1.554489
1.746416
1.872778
1.949668
2.303720
4.930496
25.782585
62.344670
95.627904
286.592841
458.771586
722.742677
915.992856
1015.669703
1015.669703
1015.669703
946.530700
684.604645
477.592945
256.343484
144.137740
75.560808
37.557483
37.873983
56.614876
77.841878
107.710958
125.891566
145.945549
150.382519
150.330663
134.390593
116.870999
89.292526
67.717433
44.224858
32.762885
20.981431
16.470551
13.923645
12.829900
11.855960
12.053847
11.744499
12.111664
11.325479
11.325479
11.103749
11.303425
11.352897
11.529922
11.614561
11.306405
11.688471
11.522770
11.448860
11.413693
11.099577
10.962486
10.883808
10.538697
10.072589
9.628534
9.826422
9.672642
9.618998
8.912683
9.239912
9.764433
9.152889
8.746982
8.723736
8.839965
9.020567
9.217858
8.873940
9.264946
8.984804
9.152889
9.469986
9.700656
9.819865
9.091496
9.547472
9.311438
9.412766
9.680986
9.352565
9.510517
9.023547
9.391904
9.281635
9.118915
9.426475
8.906722
8.721948
8.552670
##ZVALUE=290
1.067519
1.102686
1.045465
1.124740
1.090765
0.925660
1.049638
1.221895
1.186728
1.265407
1.185536
1.132488
1.152754
1.333952
1.302958
1.333952
1.450777
1.435876
1.414418
1.404881
1.436472
1.646876
1.644492
2.001524
2.139807
2.003908
2.873540
11.072755
33.762455
83.609819
205.624700
350.869894
601.716042
822.191834
1015.669703
1015.669703
1015.669703
1013.976932
798.390508
587.825775
389.287472
193.662643
102.347732
40.611625
28.327703
35.426617
49.659610
72.130561
94.137788
115.771890
136.532784
146.146417
142.637491
131.569505
108.905435
88.719726
62.339902
45.091510
28.862953
20.213723
14.139414
11.645555
10.589957
10.002851
9.824634
9.827614
9.529591
9.914637
10.231733
10.505915
10.749698
10.896921
11.256933
11.181831
11.004806
11.054873
10.741949
10.452867
10.280609
10.375977
10.218620
9.674430
9.525418
9.833574
9.438992
9.450912
9.231567
9.452701
9.145737
9.654760
9.021759
9.119511
9.132624
9.557605
9.099841
9.343624
9.079576
9.724498
9.793639
9.981990
9.037852
9.605885
9.638667
9.482503
9.416938
9.702444
9.217858
9.629726
9.654760
9.380579
9.225607
9.500980
9.581447
8.830428
9.138584
8.874536
##ZVALUE=295
1.020432
0.982881
1.107454
1.137853
0.984669
1.055598
1.227856
1.249909
1.235604
1.170635
1.185536
1.254678
1.093745
1.041889
0.922680
1.236796
1.319647
1.373887
1.485944
1.462698
1.495481
1.353621
1.599789
1.466870
1.787543
1.726747
1.940727
2.277493
2.289414
3.395677
17.980933
49.587488
140.550733
268.645883
514.639616
718.269944
983.597636
1015.669703
1015.669703
1015.669703
914.992690
711.664557
444.338918
275.892615
123.021007
60.669780
25.768876
21.294951
31.944513
44.721961
68.240762
87.308884
114.169717
129.534602
137.382746
136.313438
106.454492
104.135871
80.095530
62.515736
40.753484
28.841496
17.748475
13.295412
10.648966
9.381771
8.983612
9.163618
9.572506
9.571910
10.062456
10.031462
9.979606
10.164976
10.608435
10.548830
9.933710
10.401607
9.682775
9.692907
10.277629
10.051727
9.902716
9.786487
9.802580
9.310842
9.228587
9.813905
9.214878
9.663701
9.509921
9.355545
8.685589
9.266734
9.420514
9.379983
9.157658
9.652972
9.753704
9.705424
9.485483
9.501576
9.613633
9.431839
9.613633
9.824634
9.977818
9.436607
9.896755
9.775758
9.821653
9.378791
9.142756
9.358525
9.626746
8.709431
##ZVALUE=300
0.977516
0.954866
0.985861
1.112819
0.982881
1.211762
1.158714
1.091957
0.999570
1.157522
0.961423
1.220703
1.081824
1.086593
0.956655
1.290441
1.139641
1.070499
1.164675
1.215935
1.280904
1.378655
1.207590
1.510978
1.203418
1.500845
1.695752
1.818538
1.793504
1.965761
2.062917
2.206564
8.844733
29.358864
97.958446
190.373659
392.192602
591.956973
876.056552
1015.669703
1015.669703
1015.669703
1006.336808
840.854645
559.868813
364.876986
181.021690
96.346736
37.131906
19.290447
18.917918
26.483536
42.547584
59.563518
82.757473
101.968646
122.356415
130.840540
126.851797
122.396946
100.624561
82.201958
58.403611
42.347908
26.038885
18.540621
12.595654
10.038614
9.026527
8.899570
9.184480
9.282827
9.170771
9.924769
9.373426
9.923577
9.634495
9.265542
9.884834
9.592772
9.603500
9.285808
9.356737
9.514689
9.383559
9.594560
8.955598
9.250641
9.387732
9.070635
8.970499
9.135604
9.323955
9.199977
9.418726
9.193420
9.181499
9.293556
9.332895
9.242892
9.628534
9.168983
9.640455
9.828806
9.444952
9.478927
9.585619
9.328723
9.334683
8.848906
9.396672
9.001493
9.242892
8.948445
8.587837
8.611679
##ZVALUE=305
1.008511
0.960827
0.885725
0.866652
0.851750
0.909567
0.979900
1.093745
1.097918
0.929832
1.020432
1.214743
0.995994
0.939965
0.955462
1.249909
0.983477
0.952482
1.238585
1.220703
1.196861
1.347661
1.322627
1.133680
1.349449
1.555681
1.487732
1.411438
1.558661
1.670718
1.747608
1.616478
1.984835
2.235770
4.374981
15.480518
61.948895
136.522651
307.104588
482.813716
760.399699
967.205763
1015.669703
1015.669703
1015.669703
948.416591
677.089691
470.610857
245.068669
134.471655
51.227808
23.980737
14.223456
16.490817
26.335716
38.009882
59.359670
77.269673
98.402500
112.472773
122.381449
122.827888
110.460520
97.608566
76.072812
57.717562
38.591623
27.384758
17.123818
12.360811
9.659529
9.206533
9.292960
9.194613
9.177923
9.042621
8.792877
8.891821
9.075999
8.906722
9.193420
8.931756
9.501576
9.549856
9.046793
9.228587
9.019971
9.385943
8.847713
8.930564
9.216666
8.819699
9.123683
9.098649
8.937716
8.585453
8.913875
8.999705
9.232759
8.714795
9.702444
9.354949
9.376407
9.255409
9.671450
9.265542
9.248853
9.216666
9.771585
9.049773
8.926988
8.857846
9.211898
9.036660
8.702874
8.746982
##ZVALUE=310
0.942945
0.858903
0.913739
0.894666
1.037717
0.870824
0.980496
1.013875
0.940561
0.882745
0.981688
0.912547
0.904799
1.008511
1.013875
1.102686
1.184940
1.228452
1.300573
1.232624
1.171827
1.088977
1.130700
1.148582
1.248717
1.024604
1.371503
1.301765
1.434684
1.614690
1.709461
1.523495
1.678467
1.791716
1.839995
2.101660
2.448559
6.799698
33.726692
80.473423
201.304555
350.526571
619.070530
836.254954
1015.669703
1015.669703
1015.669703
1015.669703
814.411640
604.472756
348.644853
204.458833
86.471438
39.122701
15.012622
11.496544
15.044808
21.719933
34.113526
47.628880
70.059896
88.061690
105.289817
114.592910
114.973783
108.482838
93.519688
76.989532
54.071546
39.664507
24.931431
18.093586
12.810826
10.312796
9.214878
8.689761
8.205771
8.360744
8.321404
8.367896
8.645654
8.370876
8.604527
8.710623
8.374453
8.548498
8.437634
8.920431
8.608699
8.732677
8.554459
8.524656
8.344650
8.312464
8.785725
8.687973
8.625984
8.907914
8.640885
8.662939
8.760691
8.636713
8.978844
8.735657
9.107590
9.081960
9.164810
8.935928
9.336472
8.728504
8.570552
8.890629
8.541942
8.503795
8.324981
8.345842
##ZVALUE=315
0.941753
0.822544
0.802875
0.924468
0.828505
0.906587
0.869632
0.923872
0.840425
0.890493
0.898838
0.969768
0.943542
1.028776
1.040697
0.953674
0.951886
0.991821
1.147985
1.065731
1.038909
1.049638
0.916719
0.986457
1.184940
1.260638
1.185536
1.285672
1.263618
1.440644
1.330972
1.521707
1.424551
1.448989
1.613498
1.743436
1.844764
1.910925
2.301931
3.578663
17.441511
50.448775
144.360662
266.130567
512.190461
727.700591
990.664959
1015.669703
1015.669703
1015.669703
929.728746
722.872615
446.534753
277.002454
128.289461
58.443546
18.183589
10.580420
10.553598
13.108850
20.800829
31.057596
47.831535
63.046813
83.282590
96.696615
108.249784
109.818578
100.359917
88.025928
68.506598
54.384470
37.176609
26.566982
16.760826
12.476444
9.253621
8.389950
7.897615
7.869601
7.683635
7.940531
7.800460
8.041859
7.952452
7.902980
7.850528
7.648468
7.702708
7.928610
8.107424
8.038878
8.302927
8.075833
8.257627
7.951856
8.230805
8.170605
8.325577
8.407831
8.281469
8.496642
8.450747
8.366704
8.563995
8.795857
8.275509
8.704662
8.782744
8.496642
8.022785
8.471608
8.354783
7.979870
7.965565
7.565618
##ZVALUE=320
0.959635
0.792742
0.802875
0.705719
0.832677
0.923872
0.846982
0.895858
0.928640
0.977516
0.776649
0.924468
0.997782
0.921488
0.895858
0.950694
0.786781
0.908971
0.820756
1.036525
0.978708
0.933409
0.969768
1.151562
1.118779
1.102686
1.188517
1.080632
1.282692
1.188517
1.154542
1.398921
1.347661
1.327991
1.357794
1.271963
1.529455
1.537800
1.757741
1.785755
1.892447
2.442598
6.164908
33.066869
84.135532
222.218633
368.923545
615.372658
832.961798
1009.268761
1015.669703
1015.669703
1015.669703
876.432657
580.667853
376.961827
182.012916
90.591908
30.290484
13.796687
8.827448
9.325743
12.670755
17.140508
28.720498
40.379763
59.709549
74.768662
92.853904
100.503564
102.027655
97.344518
82.668662
68.914890
51.210523
38.138628
23.707747
17.011762
11.268854
8.835793
7.802844
7.456541
7.630587
7.399917
7.515550
7.441640
7.375479
7.358789
7.353425
7.624626
7.546544
7.492900
7.731915
7.591844
7.578731
7.612705
8.041859
7.966757
7.738471
7.951856
8.052588
7.848740
8.083582
7.859468
7.968545
8.282661
7.777810
7.833838
8.034706
7.866621
7.865429
8.247495
7.815957
7.970929
7.427931
7.585883
##ZVALUE=325
0.821948
0.871420
0.868440
0.725985
0.901818
0.878572
0.844598
0.836849
0.888705
0.875592
0.761747
0.817776
0.867844
0.900626
0.789762
0.900626
0.814795
0.922680
0.916719
0.940561
0.927448
0.937581
0.912547
1.044869
1.062751
1.084805
1.072884
0.917912
1.097918
0.997782
1.308918
1.096725
1.186728
1.165867
1.257658
1.101494
1.394749
1.447797
1.565814
1.557469
1.577735
1.756549
2.043843
1.969934
4.588962
16.803741
63.026547
136.951804
307.245851
484.463573
757.620931
950.831771
1015.669703
1015.669703
1015.669703
912.394524
622.869730
429.739952
222.560763
121.665001
44.169426
18.370748
8.495450
8.062720
8.769631
10.996461
17.958879
25.755763
42.367578
56.212544
75.236559
87.045431
95.911622
96.450448
89.445710
79.192519
61.458945
47.244430
31.203628
22.722483
14.650822
10.901690
8.477569
7.744431
7.243752
6.873608
6.683469
7.221699
7.154942
6.898642
7.090569
7.072687
7.031560
7.412434
7.070899
7.357597
7.332563
7.436872
7.414818
7.635951
7.665753
7.528663
7.371902
7.831454
7.662773
7.607937
7.469654
7.645488
7.499456
7.547736
7.421970
7.668734
7.656813
6.902814
7.208586
6.774664
##ZVALUE=330
0.809431
0.922680
0.790954
0.730753
0.793934
0.753999
0.863671
0.687838
0.875592
0.992417
0.912547
0.731945
0.862479
0.938773
0.924468
0.723600
0.834465
0.819564
0.853539
0.911951
0.877976
0.866652
0.896454
1.015663
0.984669
0.850558
1.095533
0.946522
0.929832
0.908971
1.058578
1.087785
1.075864
1.238585
1.227856
1.057982
1.267791
1.241565
1.260638
1.391768
1.509786
1.524687
1.528859
1.706481
1.840591
1.898408
2.827644
8.039474
38.544536
92.534423
224.669576
375.145674
636.568666
835.827589
1015.669703
1015.669703
1015.669703
982.329845
734.123588
536.152720
295.301676
163.710713
64.123869
27.742982
10.479689
7.604957
7.437468
8.286834
11.495948
16.474724
27.259588
37.229657
53.717494
67.938566
82.399845
89.411736
90.383887
85.285902
72.090626
59.082508
42.652488
31.828880
21.319985
15.771985
10.756850
8.796453
7.312894
7.129908
6.685853
6.655455
6.606579
6.857514
6.479621
6.713867
6.807446
7.043481
6.725788
7.039905
6.860495
6.749630
7.071495
7.150769
7.138848
7.326603
7.494688
7.228851
7.064939
7.139444
7.204413
7.111430
7.069707
6.946921
6.647706
6.652474
6.506443
6.383657
##ZVALUE=335
0.748634
0.925660
0.841618
0.783801
0.836849
0.718832
0.750422
0.735521
0.701547
0.814795
0.780821
0.624657
0.776649
0.705719
0.754595
0.780821
0.752807
0.857711
0.741482
0.983477
0.878572
0.836849
0.884533
0.826716
1.018643
0.905991
0.981688
0.856519
0.928640
0.885725
0.990629
0.910759
1.069903
1.107454
0.969768
1.177788
1.023412
1.129508
1.018643
1.224875
1.264811
1.262426
1.258850
1.459718
1.642704
1.605749
1.811981
1.856685
2.031922
3.857613
20.773411
56.739450
159.144402
283.488631
514.830947
728.545785
984.740853
1015.669703
1015.669703
1015.669703
833.914876
628.663898
367.619991
222.584009
96.406937
43.090582
14.007688
7.821918
6.940961
7.096529
8.217692
10.542870
16.057491
23.526549
36.166906
48.064590
65.704584
76.167583
83.144903
84.182620
78.491569
69.744587
55.847764
44.587851
31.330585
22.847652
15.056729
11.258721
8.582473
7.280707
6.599426
6.539822
6.375909
6.370544
6.374717
6.351471
6.377697
6.571412
6.756783
6.514788
6.841421
6.722808
6.988645
6.966591
6.784797
7.091761
6.973743
6.971955
6.901622
6.822944
6.828904
6.679893
6.534457
6.533861
6.655455
6.157756
##ZVALUE=340
0.789762
0.742674
0.659823
0.636578
0.853539
0.903606
0.673532
0.604987
0.708699
0.755787
0.790954
0.748634
0.635982
0.861883
0.880957
0.841618
0.857711
0.776649
0.665784
0.784993
0.735521
0.805855
0.903606
0.810623
0.924468
0.759959
0.868440
0.875592
0.853539
0.868440
0.952482
1.014471
0.928640
0.971556
1.012683
1.050830
1.100898
1.058578
1.090765
1.230836
1.127720
1.156926
1.060963
1.244545
1.200438
1.514554
1.390576
1.428723
1.621842
1.705885
1.906753
2.264977
9.923577
34.071803
114.020705
219.196677
430.446863
630.034804
882.872939
1012.881994
1015.669703
1015.669703
907.756686
716.651678
449.505448
278.634429
126.582980
59.067607
17.388463
8.870959
7.201433
6.778836
7.187724
7.708669
10.497570
14.304519
22.807717
33.098459
48.411489
59.984922
72.910786
77.542663
78.790784
74.595809
64.462423
55.032969
40.875673
31.077862
20.781755
14.867783
10.554790
8.352995
7.037520
6.374717
6.513596
6.193519
6.202459
6.152987
6.059408
6.130934
6.283522
6.442666
6.345510
6.428957
6.392598
6.516576
6.417632
6.533861
6.600618
6.502867
6.440878
6.274581
6.303787
6.166697
6.114841
5.890727
##ZVALUE=345
0.770688
0.676513
0.834465
0.840425
0.564456
0.854731
0.827909
0.786781
0.691414
0.695586
0.681877
0.671744
0.840425
0.747442
0.682473
0.742674
0.813603
0.772476
0.895858
0.783801
0.808835
0.870824
0.848770
0.833869
0.817776
0.944734
0.872612
0.890493
0.954866
0.995994
0.858903
1.053810
0.820756
0.852942
1.015663
0.980496
1.019835
1.042485
1.013875
1.054406
0.923872
1.139641
1.100898
0.930429
1.195669
1.198649
1.412630
1.247525
1.229644
1.330972
1.593828
1.627803
1.793504
2.039671
4.524589
18.008947
76.868534
158.089995
327.392817
501.771569
758.751631
938.892961
1015.669703
1015.669703
976.202488
810.425878
546.802878
357.284546
161.871910
78.246593
25.785565
11.785626
7.582903
7.014871
6.619692
6.590486
7.248521
9.048581
14.656782
20.628572
31.507611
41.592717
54.472685
63.350797
70.594549
72.864890
69.159865
62.854886
51.740408
41.532516
29.054880
21.131635
14.399886
10.674000
8.229613
7.053614
6.232858
6.114841
5.712509
5.938411
5.870461
5.875826
5.880594
5.880594
6.102920
6.050467
6.131530
5.930662
6.048679
6.130934
5.904436
5.850792
6.047487
5.889535
5.790591
5.902648
##ZVALUE=350
0.658631
0.730753
0.727773
0.647902
0.671744
0.709891
0.747442
0.810623
0.739694
0.692606
0.760555
0.618696
0.760555
0.748634
0.760555
0.762939
0.788569
0.815988
0.805855
0.780821
0.798702
0.815988
0.909567
0.724792
0.817776
0.991821
0.724792
0.639558
0.819564
0.764728
0.768900
0.793934
0.885725
0.898838
0.886917
0.882745
1.024604
1.006722
0.970960
1.052618
0.975728
0.983477
0.963807
1.051426
1.120567
0.991821
1.109838
1.113415
1.286864
1.335740
1.452565
1.516938
1.542568
1.679659
1.489520
1.837611
2.909899
8.902550
42.784810
99.734664
243.747830
405.464768
665.018559
845.984817
1014.753580
1015.669703
1011.511683
879.663825
608.090758
404.454470
199.324489
108.519793
39.911866
16.759634
7.727742
6.430745
6.211996
5.797744
6.125569
6.731749
9.108782
12.217760
19.177794
26.231408
37.799478
46.888590
57.973862
63.627958
66.534877
64.655542
57.940483
49.863458
38.327575
29.852986
20.410419
15.121698
10.801554
8.572936
6.766915
6.072521
5.727410
5.875826
5.890727
5.604625
5.602837
5.495548
5.453825
5.599856
5.674958
5.773902
5.705953
5.854964
5.526543
5.686879
5.506873
5.426407
##ZVALUE=355
0.701547
0.726581
0.675917
0.793934
0.754595
0.724792
0.775456
0.929832
0.790954
0.872612
0.697970
0.818968
0.701547
0.677705
0.766516
0.640750
0.777841
0.709891
0.887513
0.687838
0.699759
0.943542
0.790954
0.824928
0.802875
0.871420
0.829697
0.814795
0.816584
0.843406
0.814795
0.951886
0.867844
0.898838
0.960827
0.845790
0.955462
0.924468
0.868440
1.067519
0.904799
0.962615
0.954866
0.974536
0.939965
0.975728
1.010895
1.192689
1.394749
1.146793
1.179576
1.332760
1.340508
1.394749
1.520514
1.546741
1.554489
1.632571
2.072453
3.993511
22.971630
65.964460
182.736516
313.740969
548.979640
743.697882
960.455537
1015.669703
1015.669703
915.960670
675.930977
491.779447
273.460746
148.994923
56.347847
23.171902
8.114576
6.160736
5.944967
5.631447
5.628467
5.517602
6.382465
7.713437
11.447668
15.659928
23.907423
31.713843
42.459965
50.927997
58.107972
60.474873
58.689713
54.157972
45.951605
38.074851
27.930737
21.838546
14.587641
11.268854
8.071661
6.862879
6.143451
5.709529
5.370975
5.611777
5.386472
5.383492
5.417466
5.348921
5.583763
5.199909
5.423427
5.275607
5.194545
4.983544
##ZVALUE=360
0.662804
0.836849
0.897646
0.791550
0.671744
0.706911
0.601411
0.569820
0.680685
0.816584
0.772476
0.762939
0.778437
0.689626
0.791550
0.781417
0.775456
0.875592
0.870824
0.807643
0.752807
0.759959
0.934601
0.826716
0.909567
0.849962
0.975728
0.765920
0.767708
0.986457
0.921488
0.893474
1.027584
0.784993
0.998974
0.984669
0.840425
0.928640
0.831485
1.041889
0.874996
0.938773
0.910759
0.892878
1.028776
1.027584
1.080632
1.168847
1.011491
1.067519
1.172423
1.162887
1.093745
1.268983
1.417994
1.410842
1.459718
1.601577
1.870990
1.764894
2.021790
2.531409
10.736585
33.826828
109.728575
215.047598
427.162647
620.597601
873.346925
1004.113555
1015.669703
980.250835
788.377523
596.794486
352.652669
205.809474
79.620481
33.600926
10.677576
6.636977
5.829930
5.357862
5.106926
5.125999
5.220771
5.503893
6.558895
8.522868
13.464689
18.770695
28.055906
36.217570
45.488477
50.908923
54.010749
54.714680
51.020980
46.072602
36.915541
30.104518
21.517873
15.816689
11.387467
8.601546
6.683469
5.634427
5.442500
5.375743
5.365610
5.138516
5.022883
5.097985
5.147457
5.043745
4.889965
4.948974
##ZVALUE=365
0.678897
0.699759
0.763535
0.599623
0.622869
0.707507
0.645518
0.757575
0.731945
0.708699
0.875592
0.883937
0.787973
0.783801
0.817776
0.738502
0.663996
0.685453
0.798702
0.691414
0.673532
0.807643
0.857711
0.874996
0.872612
0.817776
0.869632
1.232624
0.764728
0.891685
0.764728
0.883937
0.978708
0.826716
0.888705
0.764728
0.862479
0.798702
0.888705
0.919700
0.951886
0.977516
0.948906
1.010895
0.967979
0.971556
1.124740
1.009703
1.022816
1.088977
1.049638
1.048446
1.150966
1.218915
1.191497
1.274943
1.327991
1.286864
1.538992
1.490712
1.547933
1.640916
1.972914
2.255440
4.809499
16.159415
66.969991
148.084760
335.873961
525.987744
774.483681
922.672749
1015.669703
1006.843448
860.057473
684.770942
421.226621
252.668858
107.859969
50.804615
16.570687
7.841587
5.801916
5.412698
5.057454
4.957914
4.547834
4.593730
4.857779
5.436540
7.762909
10.696650
16.655922
21.898746
30.151606
37.246943
44.893622
48.018694
50.998926
49.271584
43.641925
38.039684
29.935837
23.636818
16.361475
12.320876
8.670688
6.799698
5.815625
5.136728
5.132556
4.844666
4.655719
4.845858
4.575849
4.460812
##ZVALUE=370
0.720620
0.602603
0.651479
0.741482
0.764728
0.771880
0.761747
0.729561
0.703931
0.715852
0.677705
0.729561
0.778437
0.771880
0.532866
0.739694
0.628829
0.672936
0.677705
0.772476
0.717640
0.691414
0.713468
0.842810
0.827909
0.778437
0.899434
0.816584
0.838637
0.787973
0.651479
0.640750
0.774860
0.846982
0.840425
0.807643
1.007915
0.858903
1.017451
0.953674
1.016855
1.025796
0.967979
0.944734
0.967979
0.869632
1.039505
0.772476
0.995994
0.961423
1.101494
1.174808
1.011491
1.097918
1.105666
1.172423
1.041889
1.128912
1.217723
1.334548
1.382828
1.404881
1.497865
1.563430
1.824498
2.054572
2.966523
8.583665
44.026971
109.858513
263.620019
420.455933
664.747953
841.415524
998.553634
1015.669703
912.252665
743.144751
490.869880
319.987535
154.366493
76.873899
26.261806
11.407733
5.806684
5.161762
4.584789
4.755855
4.330873
4.244447
4.098415
4.314780
5.291700
6.431937
9.604692
13.150573
19.629598
25.463700
34.552813
40.080547
46.097636
47.615767
46.287775
43.381453
36.741495
30.307770
22.668839
16.142726
12.883544
9.436607
7.465482
5.921721
5.224943
4.774928
4.522800
4.492998
##ZVALUE=375
0.722408
0.678897
0.752807
0.605583
0.644922
0.666976
0.639558
0.887513
0.598431
0.764728
0.780821
0.624657
0.745654
0.768900
0.785589
0.708699
0.760555
0.764728
0.815988
0.886917
0.875592
0.827909
0.824928
0.693798
0.672936
0.602603
0.816584
0.795722
0.711679
0.881553
0.721812
0.778437
0.820756
0.729561
0.844598
0.801682
0.933409
0.925660
0.868440
0.913739
0.805855
0.754595
0.901818
0.826716
0.820756
0.889897
0.918508
0.828505
0.814795
0.955462
1.003742
0.969768
1.079440
1.008511
1.042485
1.062751
1.026988
1.043677
0.958443
1.138449
1.062751
1.101494
1.313686
1.212955
1.394749
1.639724
1.481771
1.751781
2.252460
4.869699
24.822950
64.301491
172.294974
309.415460
548.327565
740.821958
949.733853
1014.809012
966.591835
837.066770
607.723594
422.962904
225.471854
124.353766
46.770573
20.019412
6.928444
5.194545
4.522800
4.418492
4.261732
4.128814
4.044771
3.962517
4.062653
4.334450
5.689859
7.511973
11.085868
15.905499
23.073554
28.997660
36.381483
40.805936
44.778585
44.834614
41.966438
36.718845
31.702518
24.887919
19.514561
14.146566
10.625720
7.401705
5.978942
4.813671
##ZVALUE=380
0.537634
0.623465
0.736713
0.658631
0.646710
0.889897
0.660419
0.749826
0.721812
0.724792
0.721812
0.602603
0.658631
0.675917
0.602603
0.746846
0.695586
0.707507
0.642538
0.607967
0.651479
0.542998
0.817776
0.600815
0.650883
0.867844
0.683665
0.807643
0.912547
0.810623
0.882745
0.818968
0.860691
0.796914
0.793934
0.923872
0.855923
0.806451
0.852942
0.897646
0.861883
0.786781
0.804663
0.945926
0.861883
0.876784
0.835657
0.666976
0.821948
0.831485
0.924468
0.794530
0.976920
0.902414
1.099706
0.979900
0.950694
1.070499
0.957847
0.955462
1.147985
1.062751
1.115799
1.124740
1.278520
1.254678
1.367927
1.438856
1.676679
1.792908
2.006888
2.763867
13.725758
41.526556
123.506784
236.635804
454.791784
655.202866
888.903737
998.582840
1004.620790
909.258723
706.994534
527.336001
303.342938
173.812509
69.862604
30.897856
9.259582
5.355477
4.476905
4.199743
4.152656
4.227757
3.845692
3.835559
3.843904
3.907681
4.015565
4.969835
6.887913
9.452701
14.622808
19.779801
27.065873
32.596588
38.533807
41.762590
42.371750
41.608810
36.902428
31.930804
25.133491
20.051599
14.160872
9.892583
##ZVALUE=385
0.648499
0.615716
0.571609
0.636578
0.630617
0.629425
0.680685
0.504851
0.523925
0.566840
0.694990
0.691414
0.716448
0.597835
0.648499
0.597835
0.714660
0.772476
0.723600
0.677705
0.716448
0.723600
0.798702
0.536442
0.675917
0.736713
0.633597
0.680685
0.723600
0.755787
0.735521
0.843406
0.822544
0.914931
0.789762
0.826716
0.844598
0.851750
0.723600
0.787973
0.806451
0.774860
1.048446
0.941753
0.986457
0.839829
1.081824
0.823736
0.916719
0.876784
0.836849
0.792742
0.737906
0.917912
0.855923
0.955462
0.990629
0.814795
1.089573
0.907779
1.139641
1.076460
1.180768
1.147985
1.258850
1.308918
1.289845
1.342893
1.536608
1.637936
1.964569
1.875758
1.991987
2.203584
6.129742
20.174980
75.876713
165.592432
354.977846
540.316701
791.876912
927.107930
1008.105874
976.482034
818.415880
648.200512
410.541892
259.085894
114.768744
54.768920
17.645955
7.279515
4.526973
4.201531
4.225969
4.086494
4.071593
4.134774
3.828406
3.898740
3.889799
4.055500
4.756451
5.554557
8.519888
11.585951
16.705990
23.486614
28.201938
33.932924
37.484765
39.188862
39.016604
35.710931
31.799674
25.606751
##ZVALUE=390
0.581741
0.589490
0.501871
0.630617
0.577569
0.653863
0.767708
0.651479
0.678897
0.599623
0.615716
0.539422
0.674725
0.749826
0.592470
0.622869
0.545979
0.614524
0.651479
0.678897
0.654459
0.682473
0.724792
0.700951
0.760555
0.630617
0.753999
0.779629
0.655651
0.820756
0.624657
0.734925
0.722408
0.810623
0.871420
0.957847
0.878572
0.885725
0.902414
0.901818
1.061559
1.043677
0.990629
0.846982
1.037717
1.094937
0.791550
1.021624
1.014471
0.940561
0.934601
1.096725
1.015663
1.006722
1.129508
1.048446
1.045465
1.111627
1.103878
1.152754
1.249909
1.130700
1.283884
1.190901
1.294613
1.559854
1.513958
1.652837
1.832843
1.822710
2.119541
2.128482
2.191663
2.158880
2.300739
2.485514
4.204512
13.695955
57.713985
130.412579
304.364562
504.443645
816.448927
1007.460952
1015.669703
1015.669703
1015.669703
956.982970
638.516545
411.700010
180.410743
86.404681
28.224587
11.745691
5.682707
4.929900
4.591942
4.708767
4.628897
4.469752
4.171729
4.240870
4.043579
4.029870
4.109740
4.554987
5.459785
7.617474
9.967685
14.444590
18.877983
24.741888
29.301643
34.899712
36.987662
37.367940
##ZVALUE=395
0.711679
0.721812
0.759959
0.611544
0.733733
0.714660
0.742674
0.847578
0.574589
0.754595
0.754595
0.785589
0.732541
0.687838
0.794530
0.783801
0.648499
0.665784
0.844598
0.748634
0.569820
0.676513
0.911951
0.738502
0.692606
0.830889
0.659823
0.723600
0.709891
0.916719
0.748634
0.850558
0.908971
0.986457
0.920892
0.986457
0.913739
0.875592
1.012683
1.044869
0.888705
0.999570
1.043677
1.072884
1.193881
0.972748
1.238585
1.195669
1.097918
1.083612
1.288652
1.162887
1.124740
1.181960
1.359582
1.326799
1.276731
1.221895
1.361966
1.222491
1.241565
1.298785
1.360774
1.289845
1.647472
1.595616
1.721978
1.797676
1.994967
2.197623
2.260804
2.278686
2.535582
2.456903
2.498627
2.473593
2.766848
3.049970
3.909469
8.121729
35.891533
101.285577
302.831531
562.263727
1001.729965
1015.669703
1015.669703
1015.669703
1015.669703
1015.669703
1007.495522
701.587796
330.141783
156.936646
54.109693
22.159815
7.828474
5.798936
5.266666
5.318522
5.076528
5.095601
5.115867
4.913807
4.721880
4.537702
4.315972
4.194975
4.408956
5.142689
6.195903
8.924603
12.040734
17.340779
21.670461
27.801991
##ZVALUE=400
0.857711
0.963807
0.852942
0.879765
0.676513
0.609756
0.687838
0.603795
0.685453
0.747442
0.851750
0.675917
0.757575
0.795722
0.656843
0.820756
0.829697
0.811815
0.835657
0.803471
0.680685
0.722408
0.761747
0.661612
0.654459
0.859499
0.932813
0.692606
0.875592
0.934601
0.988841
0.818968
0.939965
0.914931
1.018643
0.957847
1.010895
1.009703
0.976920
1.096725
0.965595
1.097918
1.074672
1.050830
1.049638
1.032948
1.053810
1.163483
1.059771
1.180768
1.225471
1.113415
1.276731
1.255870
1.170635
1.181960
1.207590
1.256466
1.296997
1.338720
1.412630
1.339912
1.279712
1.504421
1.278520
1.549721
1.781583
1.946688
2.070665
2.319813
2.487898
2.542734
2.422929
2.541542
2.508759
2.770424
2.584457
2.769828
3.140569
3.371835
3.886819
5.563498
20.033717
61.946511
235.894918
499.431491
1001.083851
1015.669703
1015.669703
1015.669703
1015.669703
1015.669703
1015.669703
999.341011
523.877740
269.770622
93.999505
38.575530
12.166500
7.098913
5.868673
5.780458
5.701780
5.355477
5.548596
5.429983
5.058646
4.951954
4.572868
4.333854
4.344583
4.314780
4.857779
5.794764
7.653832
10.704994
##END
