##TITLE=12-2
##FORMAT=SPECTACLE-ASCII V-1.2
##DATA TYPE=ULTRAVIOLET SPECTRUM
##SECOND TYPE=ULTRAVIOLET SPECTRUM
##DATE=04/09/18
##TIME=11:24:50
##SPECTROMETER/DATA SYSTEM=SPECTACLE
##XUNITS=NM EM
##YUNITS=ENERGY
##YFACTOR=1
##FIRSTX=220
##LASTX=450
##NPOINTS=116
##3DDATA=Equidistant
##ZUNITS=NM EX
##FIRSTZ=210
##LASTZ=400
##ZPOINTS=39
##XYDATA=(Y..Y)
##ZVALUE=210
18.086433
18.470883
15.472770
11.955500
11.628866
10.537505
10.017753
9.029508
7.498860
6.777644
5.577803
3.426671
3.026724
3.812909
3.702641
3.701448
3.658533
3.498793
4.181862
4.131794
4.622936
4.973412
5.136728
5.544424
5.277991
6.188750
6.170869
7.196665
7.359982
7.134676
8.966923
8.626580
8.372664
9.885430
9.305477
8.070469
9.233952
10.297894
9.599924
9.316802
9.743571
9.781718
9.951591
9.697676
10.046959
9.770989
9.396672
9.875894
9.601712
10.026693
8.947849
9.833574
9.631515
10.598898
9.322762
10.957718
10.258555
9.792447
8.662939
10.286570
9.578466
9.210706
9.831786
9.460449
9.255409
9.792447
10.272861
11.478662
11.495948
14.729500
15.751719
18.720627
19.126534
22.710562
23.244619
21.644831
23.690462
24.319887
23.520589
21.614432
19.482970
17.117858
15.929937
15.557408
12.151599
10.962486
8.656979
8.697510
9.295940
10.175705
13.628602
17.217994
21.713972
26.846528
35.075545
41.903853
47.436953
55.983663
64.342618
64.766407
64.901710
67.746639
72.936416
67.184567
65.354705
58.528781
58.813691
53.480864
46.936870
40.279627
33.738613
27.065873
21.117926
18.314719
16.107559
15.129447
##ZVALUE=215
58.734417
56.668520
44.339895
34.481883
29.805899
20.579696
18.271804
16.353726
16.276836
13.980865
10.953546
10.354519
8.895993
6.261468
4.997849
4.389882
3.549457
4.046559
3.907681
4.732609
4.498959
4.711747
4.560947
5.831718
5.173683
5.660653
6.121993
7.313490
8.237958
8.041859
7.901788
8.771420
9.085536
9.324551
10.756850
10.763407
10.008812
10.634661
10.206699
11.091828
12.029409
10.603666
11.877418
9.757876
10.675788
10.514855
11.002421
11.421442
10.103583
11.177659
11.323690
11.793971
12.062788
12.827516
11.679530
11.059642
11.639595
11.836886
11.179447
11.621714
10.371804
10.506511
10.896921
10.982752
11.651516
10.967851
10.701418
11.641979
13.583899
13.520718
15.015602
16.844869
19.516945
21.629930
22.948980
22.257566
22.236705
20.130873
19.519925
19.018650
16.367435
15.984774
12.995601
12.107491
10.772943
10.873675
8.681417
8.104444
8.363724
8.235574
7.974505
7.670522
8.377433
9.551644
11.685491
14.898777
23.788810
31.577945
39.613843
47.991872
59.031844
67.578554
79.164505
87.471604
97.253919
96.158981
103.398561
103.936791
103.259683
98.322630
94.130635
84.299445
79.597831
65.451860
56.539774
43.555498
##ZVALUE=220
124.823451
127.286911
120.997429
105.579495
91.897845
64.801574
50.617456
35.085678
28.611422
27.998686
25.984645
24.750829
21.499991
18.545985
14.504790
10.256767
9.537935
5.726814
5.836487
4.662871
5.003810
5.112886
5.508661
4.991889
6.378889
5.784631
6.978512
7.057786
7.423759
7.696748
8.292794
9.270906
9.100437
9.427667
9.981990
10.373592
11.032820
10.584593
11.445880
12.240410
11.133552
11.443496
11.042953
12.767911
13.122559
12.192726
12.711883
12.717843
12.697577
14.102459
12.546778
13.807416
12.466908
13.692975
14.391541
14.626980
14.112592
12.402534
13.030767
13.326406
13.283491
13.607740
13.265610
12.416840
11.993647
12.552738
12.310743
12.680888
13.724566
14.558434
16.378760
17.013550
17.425418
20.748973
22.053719
22.789836
22.879839
21.503568
21.031499
19.687414
16.680956
18.312931
14.932752
13.370514
11.158586
10.501742
10.622740
10.280609
8.738637
8.105636
7.931590
8.015633
7.420778
7.871985
7.518530
8.049607
7.795691
9.045601
9.914637
12.651682
18.800497
24.843812
37.933588
49.632788
66.157579
81.093907
100.666881
118.279457
132.468939
147.850513
157.657862
163.293481
166.537762
163.972974
160.472989
150.060654
##ZVALUE=225
159.482956
168.745518
202.631950
210.380554
218.090415
195.561647
172.617435
125.030875
90.683699
63.444972
48.514605
40.345788
39.289594
39.922595
37.289858
32.059550
27.561784
19.881725
16.319752
11.973977
7.895827
7.424951
6.448627
7.050633
6.194711
7.001758
6.734729
7.449985
7.598996
7.691979
8.401871
9.843707
9.307861
10.441542
10.090470
10.205507
11.465549
11.791587
12.252927
13.387799
13.902783
14.648438
13.493896
14.346838
14.427900
14.414787
15.313625
15.447736
15.823841
14.775991
15.321970
15.710592
15.352964
15.050769
15.625954
14.953613
14.170408
15.360713
14.183521
15.542507
14.421940
14.364719
13.651848
15.911460
15.467405
12.632608
13.987422
14.548898
15.660524
15.990734
16.108751
18.140674
20.150542
21.406412
21.482706
21.339655
21.631718
21.228790
19.941926
18.244982
17.383695
15.527606
14.464855
12.924671
12.032986
11.514425
9.400845
10.011792
9.402633
9.876490
9.877682
8.546710
8.098483
8.147955
8.319616
8.447766
9.093881
9.315610
8.881688
8.769631
9.641647
8.012652
9.584427
12.001991
17.325878
26.947856
35.030842
53.691864
68.488717
103.522539
118.053555
153.619647
178.519487
206.861496
228.716731
254.103541
##ZVALUE=230
110.005736
119.104981
193.942785
256.758928
320.367813
361.287594
377.436876
354.862809
305.239558
228.758454
162.259936
105.405450
77.158809
58.182478
58.234930
63.227415
65.483451
58.664680
51.984787
39.671659
32.336712
20.480752
13.976693
10.375977
7.958412
6.911755
8.016825
7.583499
8.523464
8.449554
9.514689
9.248853
9.383559
11.309981
10.622740
12.130737
11.986494
12.247562
13.078451
13.844967
13.838410
14.306903
14.569759
15.462637
14.966726
15.234947
14.500618
15.783906
15.369654
17.082691
15.668869
16.446710
16.402602
17.149448
17.280579
17.368793
14.919639
17.125607
15.553832
15.664697
16.563535
14.166832
15.314817
16.997457
16.447902
14.421940
16.235709
15.756488
16.787648
16.548634
17.525554
20.668507
22.637844
23.451447
23.803711
23.024678
21.390915
20.749569
20.531416
19.540787
17.905831
15.986562
14.402866
13.515949
13.365746
11.570454
11.235476
11.690855
9.821653
10.106564
10.793805
10.451674
10.822415
9.831786
10.203719
10.087490
9.188652
8.706450
9.607673
9.975433
9.717941
9.193420
7.926822
9.797812
9.321570
9.130836
9.580851
10.497570
13.293624
20.635724
29.168725
49.543977
71.166754
101.155639
130.420923
184.327960
##ZVALUE=235
32.692552
35.818815
84.867477
147.004724
229.116678
360.051990
461.363792
566.251874
602.105856
574.191809
515.972972
390.685797
283.977985
180.007815
129.228830
94.415545
85.113645
85.182786
89.392662
91.045499
83.392859
66.748857
55.649877
36.975741
27.545691
16.057491
13.298988
11.332631
8.677840
9.964705
9.704828
10.251999
9.996891
10.839701
10.020733
10.769963
12.718439
12.525916
13.992786
12.845993
14.353991
15.205741
14.753938
15.428662
15.029907
15.964508
16.987920
16.229749
14.642477
15.585423
16.699433
15.372634
16.567707
15.484691
15.237927
16.886592
15.805960
15.735626
16.175508
13.647676
15.325546
14.310479
14.275908
15.639663
16.385913
15.925765
16.384721
17.296672
16.570687
18.903613
20.389557
21.439791
22.687912
23.820996
24.406910
23.715496
21.637678
22.404790
21.781921
20.375848
18.598437
18.266439
16.016960
15.601516
14.168620
13.161898
12.798905
12.413859
12.070537
12.265444
11.961460
12.153983
11.626482
9.778738
10.875463
11.386871
11.362433
11.242628
12.339950
11.428595
11.579990
10.692477
9.882450
10.440946
9.811521
11.456609
9.435415
10.738969
10.820627
10.563731
9.344816
11.547804
11.392832
15.170574
23.848414
39.839745
##ZVALUE=240
3.616810
3.637671
12.674928
32.345653
72.881579
165.799856
276.327729
467.552543
611.543655
778.282881
844.549537
841.679573
761.973858
600.837469
461.039543
299.360752
195.039511
132.052898
109.484792
105.891824
111.108422
116.501451
117.247701
103.742480
83.548427
63.018799
49.292445
36.295652
21.841526
15.108585
11.617541
9.861588
10.859966
10.317564
11.332631
11.280775
12.282729
12.261868
13.198853
12.602806
13.120770
13.757944
14.310479
14.931560
14.265776
14.962554
15.356541
14.819503
15.961528
14.522672
17.469525
15.129447
15.533566
14.193654
14.752746
14.845729
15.462637
15.568733
14.665723
14.298558
15.562773
14.270544
15.627742
13.792515
15.009642
14.736652
15.094876
15.801787
17.954707
18.425584
17.701983
19.122958
21.629930
22.739768
25.044680
25.855899
23.049712
22.284985
21.657944
20.341873
20.398498
18.068552
17.217994
15.877485
15.293956
14.861822
13.398528
13.523698
12.823939
12.612939
12.567639
12.792945
12.697577
11.867881
11.777878
11.054873
11.896491
11.779666
12.213588
11.168718
11.613965
12.098551
11.649728
11.412501
12.080669
11.750460
12.481809
11.247993
10.790825
11.709929
10.697842
11.366606
11.262894
11.153817
11.202693
10.637641
##ZVALUE=245
2.591610
2.783537
2.744794
2.911687
5.186796
21.496415
55.882931
149.672627
260.794759
462.275743
643.412471
864.863992
981.643796
1015.669703
969.199538
804.323554
638.661981
424.687862
288.608670
167.418718
121.833682
103.453994
114.715695
123.995543
130.854845
122.110844
113.000870
94.819665
69.854856
54.366589
36.547780
25.874972
16.848445
13.392568
10.781884
11.298656
11.548996
12.113452
11.712909
12.547970
12.015700
13.003945
12.896657
13.057590
13.560653
15.307665
14.675856
14.086962
14.541745
14.529824
15.353560
14.002919
13.864636
13.072491
13.407469
13.971925
13.835430
13.201833
13.232827
12.477636
12.486577
13.188720
12.608767
12.465715
13.269782
12.106895
12.890697
14.480948
15.256405
15.164614
18.031597
17.766953
20.306706
20.391941
21.130443
20.128489
21.057725
18.999577
19.338727
17.642975
16.054511
15.892982
14.897585
14.190674
13.721585
12.194514
11.858940
12.334585
11.359453
11.274815
10.967851
11.506677
11.592507
9.953976
9.349585
9.901524
10.231733
10.885000
10.121465
10.465980
10.639429
10.932684
11.199713
10.321736
10.117888
10.926723
9.600520
10.480881
10.809898
10.406971
10.222793
9.503961
9.840727
10.202527
9.337664
9.680986
##ZVALUE=250
2.045631
2.185702
2.245903
2.358556
2.545714
2.530813
3.678799
15.955567
43.247938
121.540427
223.301649
440.889001
650.391579
919.886827
1015.669703
1015.669703
1015.669703
1015.669703
883.907676
606.278777
413.838625
225.778818
145.304799
104.841590
105.768442
125.107765
133.388638
138.398409
133.633614
120.564699
101.828575
83.172917
57.476759
41.923523
26.068687
17.631650
12.980700
11.911988
11.889935
12.353659
12.184978
13.050437
12.827516
13.538599
13.575554
14.050603
13.123751
13.081431
14.132857
13.151765
13.386607
13.147593
13.608932
13.256669
13.229847
12.864470
12.138486
12.086630
12.585521
12.511611
11.386871
11.607409
12.496710
13.146996
11.768937
12.174845
12.284517
12.201667
12.577772
14.100671
15.297532
15.510917
16.747713
18.091798
19.100904
18.309951
18.535852
17.251968
16.636848
15.913844
14.308691
13.621449
12.741685
11.927485
11.571646
11.227727
10.454655
10.867715
9.649992
9.741783
9.645820
10.156631
9.498596
9.411573
8.870959
9.967685
9.192824
9.706616
9.506941
9.551644
9.363890
9.825826
8.933544
9.434819
8.767843
8.721948
9.009838
8.864999
9.844899
8.569956
9.248853
9.104609
8.872747
8.916855
8.006692
8.157492
##ZVALUE=255
2.097487
2.112985
1.758933
2.380610
2.146959
2.453923
2.500415
2.920628
3.371835
8.907914
28.239489
91.209412
186.629891
392.730832
592.453480
907.721519
1015.669703
1015.669703
1015.669703
1015.669703
1015.669703
843.096972
589.068532
317.622423
189.576745
110.853910
95.291734
101.418495
124.718547
139.303803
148.392916
144.650936
128.155947
110.915899
80.555677
63.089728
40.936470
27.510524
19.382834
15.896559
13.620853
13.561845
13.262630
13.537407
13.200641
14.605522
14.355779
14.234781
13.473630
13.642907
13.679862
13.387799
13.522506
13.498664
13.011694
12.805462
12.244582
12.780428
12.770891
12.898445
12.112856
12.240410
11.681914
11.932850
11.804700
12.254715
11.716485
12.270808
12.811422
13.762712
13.719797
14.653802
17.099977
16.179681
15.920997
15.740991
15.403628
14.946461
13.306737
13.249516
11.796951
11.975765
10.272861
10.967851
9.614825
9.970665
8.404851
8.686781
8.516908
9.082556
8.735657
8.373857
8.568764
8.469820
8.732677
8.393526
8.248687
7.670522
8.160472
8.715987
8.184910
8.100867
8.106828
8.180737
8.274913
8.635521
7.917881
8.196831
8.378625
8.170605
7.715821
8.262992
8.616447
7.573962
7.801652
7.784963
##ZVALUE=260
1.910925
1.802444
1.942515
1.749992
1.943707
1.954436
2.467632
2.441406
2.564788
2.662539
2.670884
4.411936
14.972687
60.293674
127.981901
300.997496
497.439504
817.801952
1015.669703
1015.669703
1015.669703
1015.669703
1015.669703
1015.669703
776.269436
454.678535
282.294750
171.150565
98.135471
87.208748
105.784535
125.409961
145.782828
153.562427
147.271752
135.737658
112.839937
90.780854
62.344670
45.509934
30.332804
22.202730
16.886592
15.704632
15.085936
15.385747
15.243888
14.989972
14.411807
14.677644
15.073419
14.978647
14.393926
14.424920
14.478564
13.766885
13.736486
13.444424
12.446642
12.769699
11.788607
12.306571
11.453629
11.824965
11.269450
11.544824
10.974407
11.316538
12.438893
12.854934
12.803674
12.945533
13.868809
14.468431
14.333725
14.128685
13.470650
12.390614
12.676716
11.945963
10.722876
10.313988
9.614825
9.486675
8.387566
8.697510
8.210540
7.730722
7.663965
7.514954
7.767677
7.869601
7.520914
7.078648
7.202625
6.981492
7.155538
7.495880
7.273555
7.396936
7.157922
7.525682
7.115602
7.415414
6.838441
7.840991
6.626844
7.670522
7.453561
6.677508
6.296635
7.008910
6.799698
7.076859
7.416606
6.971955
##ZVALUE=265
1.948476
1.878738
1.704693
1.471639
2.053976
1.903772
1.980662
2.351999
2.212524
2.698898
2.272725
2.346635
2.688766
3.324747
7.534623
37.198663
91.529489
233.567953
411.154628
763.290524
1015.669703
1015.669703
1015.669703
1015.669703
1015.669703
1015.669703
990.670919
715.671778
395.674706
231.435895
111.998916
82.438588
87.287426
110.953450
135.776997
150.677562
161.924958
151.515603
137.260556
117.449760
88.155866
69.065690
46.374798
34.010410
23.949742
19.852519
18.098950
17.315745
16.963482
17.146468
16.355515
15.930533
15.784502
15.829802
15.874505
15.680790
14.789701
14.790893
14.144778
13.287663
13.749599
13.813972
12.603998
12.510419
12.211800
11.850595
11.838675
11.350513
12.412667
12.351871
12.912750
13.344884
13.968945
13.276935
13.127923
13.579726
12.443662
11.838675
10.649562
10.793805
9.465814
8.986592
8.575916
8.507967
8.426905
7.413626
7.593632
7.169843
7.479787
7.691979
7.639527
6.631613
6.759763
6.696582
6.999969
6.844997
7.010698
7.036924
6.621480
6.498694
6.591678
6.443858
6.463528
6.377697
6.583929
6.524920
6.790757
6.612539
6.154776
6.712675
6.437898
6.759763
6.375909
5.965829
6.320477
6.106496
##ZVALUE=270
1.595616
1.460910
1.634955
1.769662
1.769662
1.804829
1.936555
1.887679
2.082586
2.090931
2.216697
2.047420
2.018809
2.412796
2.357960
3.129840
3.855824
17.622709
51.095486
166.758895
323.500633
649.943948
969.336033
1015.669703
1015.669703
1015.669703
1015.669703
1015.669703
1015.669703
954.671502
567.106009
349.751711
167.406797
93.184710
70.555806
85.067749
113.787651
135.607719
157.660842
164.442658
158.462524
144.250989
117.610693
96.290708
69.100857
51.844716
35.093427
27.801991
22.089481
20.055771
18.964410
18.265843
18.916726
18.536448
17.319918
16.568899
17.298460
16.455650
15.851855
15.162826
15.317798
15.008450
13.715625
12.985468
13.237596
12.112856
12.168884
11.734962
12.289882
12.482405
13.484955
13.568997
14.031529
12.438893
13.090968
12.400746
12.290478
11.164546
11.094809
10.199547
9.351969
9.374619
8.867979
8.483529
7.524490
7.418990
7.291436
7.719994
6.766915
7.333755
6.811619
6.843805
6.498694
6.883740
6.667972
6.403923
6.610751
5.930662
6.617904
6.201863
6.209612
6.513000
5.881786
6.059408
6.173849
6.182790
6.407499
6.119609
6.431937
6.735921
5.991459
6.198883
5.689859
6.237626
5.892515
5.654693
##ZVALUE=275
1.576543
1.535416
1.658797
1.553893
1.484752
1.681447
1.643896
1.657605
1.713634
1.754761
1.803637
1.969934
2.027750
2.340674
2.259612
2.533793
2.602935
2.783537
2.818704
8.177757
28.724670
107.622743
238.616467
534.032583
849.878788
1015.669703
1015.669703
1015.669703
1015.669703
1015.669703
1015.669703
1015.669703
763.904452
471.996665
215.947628
117.129683
63.085556
65.350533
91.044903
111.098886
135.163665
157.336593
161.792636
157.492757
145.199895
116.722584
97.815990
71.473718
55.665970
40.268898
29.053688
23.631454
21.087527
19.810796
18.543601
18.065572
17.583966
16.597509
17.217994
16.016960
15.500784
15.990734
14.454722
14.628768
13.894439
13.326406
12.830496
11.707544
12.667775
12.635589
12.946725
13.386607
12.975931
13.431907
12.475848
12.335777
11.971593
12.323856
10.740757
9.700656
10.152459
9.342432
8.888841
8.292794
8.068681
7.173419
7.987618
6.994605
7.136464
7.076859
6.811619
6.556511
6.426573
6.213784
6.414652
6.446838
6.247759
6.206632
6.233454
5.919933
5.917549
6.051660
6.251931
5.877614
6.036758
5.878806
5.974770
6.072521
5.755424
6.428957
5.782843
5.594492
6.098747
5.952716
5.426407
6.190538
##ZVALUE=280
1.399517
1.481771
1.587868
1.827478
1.563430
1.645684
1.567602
1.495481
1.414418
1.571774
1.693964
1.684427
1.894832
1.951456
1.984835
2.034903
2.150536
2.259612
2.374649
2.686977
2.893806
4.797578
16.657710
77.409744
177.958012
421.388745
689.099431
986.217856
1015.669703
1015.669703
1015.669703
1015.669703
1015.669703
1015.669703
927.845836
606.742501
296.892524
153.890848
67.984462
53.190589
66.601634
87.158680
115.071535
133.834481
153.890848
159.441829
152.418613
140.264630
115.687847
94.201565
69.177747
50.731897
35.213828
27.039647
20.437837
18.152595
16.639829
15.919805
15.716553
15.547872
15.328526
15.032887
14.631748
14.338493
13.383627
13.482571
12.964606
13.156533
12.488961
12.095571
12.966990
12.385845
13.161898
12.676716
12.291670
12.071729
11.806488
11.101961
10.746717
10.691881
9.399652
9.246469
8.721948
8.425713
8.281469
7.357597
7.519722
7.352829
7.308722
6.892681
7.090569
6.301999
6.931424
6.391406
6.586909
6.392598
6.125569
6.536841
6.587505
6.115437
5.788803
6.317496
6.304979
5.803704
6.217957
5.683899
6.101727
6.011724
6.181598
5.856752
5.721450
5.619526
5.457997
5.862713
6.147623
5.460978
##ZVALUE=285
1.330972
1.299977
1.350641
1.399517
1.249909
1.462698
1.482964
1.486540
1.547933
1.555681
1.629591
1.434684
1.509786
1.629591
1.828671
1.855493
1.615882
1.904964
1.960993
2.275705
2.359748
2.520680
2.801418
3.070831
9.140968
31.193495
111.981630
237.087011
525.017977
821.192861
1015.669703
1015.669703
1015.669703
1015.669703
1015.669703
1015.669703
1015.669703
847.914815
438.592434
243.273973
98.238587
52.723885
44.479966
56.676865
82.783699
104.474425
129.761696
144.495964
152.116418
149.902701
136.353970
117.825866
89.535713
69.877505
47.992468
33.791661
22.351742
18.229485
15.081763
13.593435
13.768673
12.450814
12.953877
12.866855
12.598634
11.952519
11.877418
11.976957
11.783838
11.853576
11.617541
11.648536
11.734962
12.310743
11.701584
11.665821
11.116862
10.542870
10.030866
9.740591
8.977652
8.516908
8.074641
8.359551
8.151531
7.997751
7.492900
7.210970
7.617474
7.083416
7.037520
6.899834
6.774664
6.435513
6.241798
6.584525
6.188750
6.272793
6.017685
6.050467
6.245971
6.191730
6.005764
5.841851
5.801916
5.914569
5.859733
5.840659
5.628467
5.896688
5.735755
5.927682
6.052852
5.358458
5.479455
5.433559
##ZVALUE=290
1.367927
1.285672
1.306534
1.427531
1.336932
1.323819
1.460910
1.404881
1.461506
1.320839
1.419783
1.629591
1.577735
1.704693
1.695752
1.614690
1.685619
1.878738
1.806617
1.981854
2.087951
2.174973
2.318621
2.553463
2.679825
3.348589
4.120469
12.318492
58.578849
146.134496
360.942483
612.295866
1007.860899
1015.669703
1015.669703
1015.669703
1015.669703
1015.669703
1015.669703
1015.669703
645.876527
376.784801
149.882436
69.236755
33.873916
36.729574
52.552819
71.361661
99.302530
118.460655
138.655901
144.313574
143.727660
131.352544
108.906627
88.853836
60.109496
44.619441
29.230714
21.444559
15.543699
12.365580
11.002421
10.734797
10.092854
10.261536
9.423494
10.338426
10.201931
10.095835
10.416508
11.315942
10.885596
10.890961
10.769963
10.155439
10.160804
9.699464
8.839965
8.997917
8.617640
8.213520
8.270741
7.746816
7.741451
7.599592
7.461905
7.635951
6.793737
7.119775
6.874800
6.762743
6.232858
6.418824
6.493926
6.151795
6.346703
6.438494
6.256700
6.291866
6.060600
6.117821
6.226897
5.967617
5.876422
6.039739
6.166697
5.936623
6.069541
5.998611
5.825758
5.582571
5.657673
5.313754
5.556941
5.324483
##ZVALUE=295
1.339912
1.221895
1.297593
1.221895
1.294613
1.264811
1.401901
1.270771
1.216531
1.580715
1.440644
1.625419
1.472831
1.360774
1.545548
1.645684
1.501441
1.601577
1.659989
1.944900
1.915693
1.926422
1.854897
2.007484
2.410412
2.806783
2.735853
2.665520
3.252625
5.864501
32.941699
93.058944
259.995461
492.208004
927.900672
1015.669703
1015.669703
1015.669703
1015.669703
1015.669703
1015.669703
1015.669703
849.242806
524.557829
227.655768
104.174614
35.406947
24.911761
33.289790
46.707988
69.652796
87.425709
113.423467
126.464963
135.799646
135.261416
118.064880
104.190707
79.297423
61.782598
41.125417
28.960705
17.522573
12.947917
10.376573
9.370446
8.688569
8.842945
8.976460
9.093881
9.541512
9.641647
10.026693
9.633899
10.192990
9.828806
9.243488
9.058714
8.536577
8.430481
8.314848
8.502603
7.540584
7.662773
7.042885
7.242560
7.311702
7.041693
6.980896
6.559491
6.438494
6.415844
6.653666
6.377697
6.231666
6.418824
6.354451
6.176829
6.380677
5.865693
6.265640
6.024837
6.043911
5.765557
6.160736
5.975962
5.833507
5.733967
6.181598
5.586743
5.865693
5.752444
5.594492
5.578995
5.652905
5.485415
##ZVALUE=300
1.124740
1.132488
1.220703
1.039505
1.078844
1.153946
1.407862
1.218915
1.347661
1.177788
1.325607
1.390576
1.400709
1.348853
1.481771
1.521707
1.456738
1.498461
1.587868
1.538992
1.492500
1.565814
1.659989
1.941919
1.819730
2.087951
2.306700
2.424717
2.643466
2.740622
3.340840
3.902912
15.087724
55.794716
185.880661
356.512666
727.941990
1015.669703
1015.669703
1015.669703
1015.669703
1015.669703
1015.669703
1015.669703
1002.351642
696.332455
346.383452
179.379582
61.398745
25.767684
20.851493
27.518868
43.128729
58.019757
83.238482
101.298690
121.284723
127.775669
126.547813
118.350983
99.761486
81.537962
58.421493
42.387843
25.875568
18.556714
12.436509
9.971857
8.519888
8.283854
8.462667
8.717775
9.046793
8.959770
8.897781
8.960962
8.620620
8.258820
8.175969
7.900596
7.618666
7.695556
7.489920
7.292628
7.336736
6.753802
6.743670
6.703734
6.346703
6.856918
6.504655
6.713867
6.466508
6.335974
6.146431
6.155968
6.298423
6.438494
6.006956
6.260872
6.066561
6.063581
6.073713
6.149411
6.107688
6.030798
5.984902
5.925894
5.615950
5.483627
6.176829
5.604625
5.653501
5.755424
5.359650
5.491972
##ZVALUE=305
1.109838
0.979900
1.082420
1.279712
1.054406
1.167655
1.039505
1.224875
1.098514
1.204610
1.340508
1.190901
1.134872
1.288652
1.352429
1.324415
1.283884
1.443624
1.385808
1.488924
1.651645
1.370907
1.484752
1.782775
1.757741
1.971722
2.046824
2.031922
2.163649
2.295971
2.452731
2.825856
3.250837
3.249645
8.226633
30.044913
122.999549
268.528461
594.778657
915.857553
1015.669703
1015.669703
1015.669703
1015.669703
1015.669703
1015.669703
1015.669703
861.462951
454.565883
253.254771
94.722509
38.468838
16.792417
17.823577
27.117729
38.075447
59.627891
76.010823
97.562671
109.650493
122.463703
121.424794
109.701753
96.107721
73.462725
56.952834
37.646890
26.366711
16.000867
12.132525
9.266734
8.785725
8.463860
8.299947
8.055568
8.124709
7.810593
7.337928
7.477999
7.628798
7.258654
7.073879
7.006526
7.039905
6.724596
6.434917
7.023811
6.585717
6.399751
6.435513
6.164908
6.315708
6.231666
6.003976
6.043911
6.005764
6.057620
5.861521
5.861521
6.113648
5.770922
5.668998
6.037951
5.799532
5.705953
5.904436
5.742908
5.541444
5.744696
5.512834
5.849600
5.503893
5.748868
5.604625
5.720854
5.319715
##ZVALUE=310
1.080632
1.083612
1.041889
1.047850
1.044869
1.071692
1.250505
1.120567
1.082420
1.320839
1.073480
1.198649
1.354814
1.310706
1.183748
1.283884
1.249909
1.323819
1.269579
1.338720
1.385808
1.437664
1.489520
1.504421
1.741648
1.711845
1.725554
1.828671
1.896620
1.874566
1.966953
2.151728
2.276897
2.333522
2.865791
3.112555
3.978610
12.793541
69.916844
172.565579
352.025628
736.105442
1015.669703
1015.669703
1015.669703
1015.669703
1015.669703
1015.669703
1015.669703
1015.669703
643.509030
378.171802
156.811476
67.232847
20.139813
13.698936
16.461611
22.389889
35.118461
48.448443
70.041418
85.361004
103.244781
111.544728
113.559961
106.807947
90.858936
76.258779
52.213669
39.210916
25.434494
18.115640
11.945963
9.688735
8.225441
7.902980
7.114410
6.838441
6.924868
6.558895
6.463528
6.379485
6.319880
6.364584
6.074905
6.428957
6.101727
6.216764
6.421804
6.263852
6.070733
5.934834
5.546808
5.635619
5.800724
5.754828
5.452633
5.644560
6.049871
5.517602
5.800724
5.647540
5.725622
5.910993
5.763769
5.602837
5.791783
5.862713
5.690455
5.570650
5.607605
5.445480
5.209446
5.467534
5.218983
5.184412
##ZVALUE=315
1.192689
1.116991
0.935793
1.128912
1.204610
1.161695
1.042485
1.030564
1.072884
1.148582
0.928640
1.100898
1.073480
1.133680
1.256466
1.181960
1.150966
1.211762
1.270771
1.385808
1.327991
1.269579
1.547933
1.443624
1.506805
1.459718
1.508594
1.623631
1.626611
1.774430
1.601577
2.045631
2.087951
2.198815
2.101660
2.255440
2.622604
2.670884
3.188848
5.750656
23.571849
109.549761
256.628990
586.026907
945.391655
1015.669703
1015.669703
1015.669703
1015.669703
1015.669703
1015.669703
1015.669703
796.897411
485.508442
211.211443
98.914504
29.727817
13.864636
11.924505
14.748573
21.422505
30.326843
47.431588
61.630607
82.567930
96.608996
106.115937
107.110739
98.732710
88.066459
69.268942
53.573847
35.913587
25.207996
16.563535
11.604428
8.542538
7.290840
6.292462
6.699562
6.165504
6.140471
6.143451
5.766749
6.081462
5.864501
5.256534
5.775690
5.595684
5.803704
5.428791
5.642772
5.628467
5.831718
5.686879
5.553961
5.539656
5.564690
5.440712
5.522966
5.322695
5.576611
5.407929
5.350709
5.659461
5.373955
5.814433
5.459785
5.414486
5.713701
5.269647
5.107522
5.114675
5.233884
5.066991
5.079508
##ZVALUE=320
1.036525
0.942945
1.059771
0.872612
0.715852
1.039505
1.068711
0.929832
0.992417
1.169443
1.173615
1.074672
1.051426
1.058578
1.099706
1.134872
1.157522
1.109838
1.157522
1.197457
1.286864
1.210570
1.278520
1.386404
1.263618
1.415610
1.519918
1.498461
1.727939
1.690984
1.773834
1.595616
1.767874
1.796484
1.951456
1.972914
2.190471
2.421737
2.635717
2.919436
3.358722
3.707409
14.208555
49.999952
185.264945
377.933979
768.058896
1015.669703
1015.669703
1015.669703
1015.669703
1015.669703
1015.669703
1015.669703
982.110500
652.509928
295.150876
150.506496
50.413609
19.829869
10.476708
10.858774
13.362765
18.253922
29.030442
40.229559
59.020519
73.777437
91.387630
98.849535
102.017522
95.487833
82.042813
68.573952
49.646497
37.305951
22.947788
15.746951
10.019541
7.661581
6.236434
5.776882
5.550981
5.646944
5.426407
5.453825
5.083680
5.534887
5.333424
5.288720
5.196929
5.304813
5.437732
5.268455
5.555749
5.354881
5.278587
5.437732
5.297661
5.209446
5.448461
5.290508
5.438924
5.335808
5.410910
5.450845
5.084872
5.270839
5.244613
5.390644
5.221963
5.273819
5.027652
4.954934
5.006790
5.063415
##ZVALUE=325
1.032948
0.937581
1.034737
0.880957
1.026988
1.148582
0.995994
0.945926
0.998974
1.146793
1.056790
0.965595
1.033545
1.245737
1.269579
1.071692
1.152754
1.061559
1.052618
1.157522
1.264811
1.236796
1.309514
1.268983
1.324415
1.224875
1.412630
1.343489
1.526475
1.222491
1.535416
1.605749
1.529455
1.498461
1.600981
1.709461
1.992583
2.001524
2.142787
2.245903
2.289414
2.529621
2.991557
3.230572
7.521510
28.648973
115.678906
257.001519
592.080951
945.716500
1015.669703
1015.669703
1015.669703
1015.669703
1015.669703
1015.669703
1015.669703
783.955455
414.800644
226.191878
79.364777
29.976964
10.673404
9.402633
9.985566
11.829734
18.716455
26.487708
42.031407
56.733489
74.867606
85.430741
94.133615
95.233917
88.444948
78.336596
60.307980
46.094656
30.773878
21.277666
12.795925
9.469986
6.967783
6.015897
5.359650
5.505681
4.966855
4.919767
5.166531
4.951954
5.075932
5.095601
5.032420
4.931688
4.910827
5.154610
5.006790
5.036592
4.820824
4.881620
5.098581
5.127788
4.931688
5.091429
5.195737
5.309582
5.264878
5.072951
5.131960
5.022883
5.049706
5.025864
4.850626
4.907846
4.842877
4.925728
##ZVALUE=330
1.118779
0.953674
0.958443
0.954866
0.806451
0.896454
0.997782
0.936985
0.874996
1.049638
0.918508
0.926852
1.019835
0.981688
0.981688
1.113415
0.930429
1.040697
1.063943
1.117587
1.059771
1.215935
1.305938
1.351833
1.093745
1.159906
1.460910
1.247525
1.290441
1.387596
1.292825
1.510978
1.377463
1.422763
1.534820
1.583695
1.747608
1.738667
1.870990
1.963973
2.045631
1.945496
2.278686
2.586842
2.777576
3.066659
4.115701
12.222528
63.501596
160.387754
417.022705
708.120465
1015.669703
1015.669703
1015.669703
1015.669703
1015.669703
1015.669703
1015.669703
968.495607
539.953709
304.704905
121.454000
49.408674
14.009476
9.246469
8.596778
9.099841
12.194514
16.958714
26.825666
37.271976
53.585768
66.570640
80.584884
87.624788
87.765455
82.836747
69.038868
57.897568
40.761828
30.245781
19.911528
13.824701
9.050965
6.943941
5.773902
5.190969
4.878640
4.728436
4.568696
4.894733
4.683733
4.757643
4.909635
4.868507
4.797578
4.965663
4.873872
4.730821
4.793406
5.011559
5.081892
4.946589
4.893541
5.077720
4.836917
5.061626
4.951954
5.067587
4.950762
5.023479
4.809499
4.734993
4.584789
4.664660
##ZVALUE=335
0.888705
0.912547
0.990629
0.726581
0.869632
0.972748
0.971556
0.893474
0.898838
0.951886
1.121759
1.040697
0.984669
0.871420
0.960827
0.912547
0.898838
1.021624
1.037717
1.038909
0.981688
1.124740
1.097918
1.162887
1.014471
1.130700
1.259446
1.256466
1.153946
1.225471
1.246929
1.398921
1.376867
1.575947
1.528859
1.422763
1.603961
1.551509
1.673698
1.972914
1.612902
1.930594
2.105832
2.261996
2.426505
2.520680
2.921820
3.079772
3.522635
5.626678
31.149983
91.551542
270.000100
512.328744
976.450443
1015.669703
1015.669703
1015.669703
1015.669703
1015.669703
1015.669703
1015.669703
694.375634
408.391953
168.737769
74.316859
21.518469
10.541677
8.582473
8.732677
9.254813
11.176467
17.003417
24.331808
35.774708
46.729445
63.335896
74.204803
82.034469
82.769990
75.893998
67.697763
53.271651
43.093562
29.635429
21.433830
13.424754
9.897947
6.892681
5.705953
5.225539
5.024672
5.049706
4.983544
4.976988
4.815459
4.542470
4.922748
4.714727
4.820824
4.855990
4.877448
5.028844
4.877448
5.141497
5.261898
5.225539
5.208850
5.218983
5.366802
5.109906
4.737973
4.870892
4.853606
4.710555
4.630685
##ZVALUE=340
0.882745
0.916719
0.857711
0.932813
0.951886
0.938773
0.944734
0.935793
0.850558
0.847578
0.797510
0.954866
1.020432
1.005530
1.085997
0.888705
0.916719
0.942945
0.967979
1.061559
1.159906
1.064539
1.082420
1.095533
1.145601
1.053810
1.248717
1.280904
1.076460
1.221895
1.178980
1.116991
1.310706
1.406670
1.387596
1.357794
1.528859
1.651645
1.631975
1.618862
1.503825
2.023578
1.884699
1.931787
2.072453
2.189875
2.285838
2.585649
2.758503
2.927780
3.445745
4.309416
19.065738
61.011910
198.152661
401.448011
869.890451
1015.669703
1015.669703
1015.669703
1015.669703
1015.669703
1015.669703
1015.669703
906.810760
536.730886
233.414769
108.618736
29.226542
12.156963
9.057522
8.686781
8.804798
9.140968
11.166930
15.061498
23.259521
32.331944
47.024488
58.494806
70.825815
75.979829
76.274872
73.091984
62.764883
52.706599
39.548874
30.201674
19.567609
14.231801
9.611845
7.273555
5.759597
5.594492
5.196929
5.213618
5.139709
5.012751
4.998446
4.852414
5.035996
4.994869
5.147457
5.273819
5.271435
5.130768
5.232692
5.620718
5.325675
5.261898
5.156994
5.319715
5.217791
5.114675
5.019903
4.899502
##ZVALUE=345
0.918508
0.906587
0.903606
0.897646
0.798702
0.824928
0.772476
0.873804
0.941753
1.023412
0.992417
0.887513
1.001954
1.105666
1.035929
0.974536
0.980496
1.005530
1.091957
1.080632
1.154542
1.099706
1.314878
0.903606
1.217723
1.205802
1.218915
1.027584
1.291633
1.289845
1.343489
1.310706
1.298785
1.267791
1.513958
1.473427
1.369715
1.441836
1.273751
1.621842
1.501441
1.628995
1.749992
1.769662
1.740456
1.901984
1.918674
2.183914
2.360940
2.384782
2.629757
2.752542
3.082752
3.627539
8.252859
31.148791
129.171014
269.857645
608.393550
970.733762
1015.669703
1015.669703
1015.669703
1015.669703
1015.669703
1015.669703
1015.669703
766.434669
328.029990
158.018470
50.472617
20.424724
10.457635
9.460449
8.503795
8.071661
8.398890
10.087490
14.288425
20.035505
30.354857
40.338635
53.726435
62.450767
70.200562
71.102977
68.008900
61.800480
50.591826
40.479898
28.358698
20.779967
13.952851
10.266900
7.672906
6.562471
5.734563
5.342960
5.543828
5.172491
5.070567
5.198717
4.889965
5.168915
5.420446
5.278587
5.208850
5.407929
5.465746
5.337596
5.350709
5.319715
5.328655
5.156994
5.288720
5.055666
##ZVALUE=350
0.956655
0.936985
0.946522
1.115799
1.087785
1.053810
1.018643
1.079440
0.891685
1.167655
0.924468
1.111627
1.082420
0.969768
1.036525
0.941753
0.805855
1.047850
1.079440
1.160502
1.025796
1.129508
1.074672
1.273751
1.145601
1.152754
1.004934
1.100898
1.029968
0.992417
1.230836
1.202822
1.219511
1.201630
1.236796
1.317859
1.371503
1.486540
1.469851
1.494884
1.487732
1.682639
1.461506
1.633763
1.692772
1.672506
1.770854
1.984835
1.871586
1.972914
2.118945
2.283454
2.572536
2.723932
2.856851
3.421903
5.157590
15.520453
71.312785
168.743730
428.154469
771.588683
1015.669703
1015.669703
1015.669703
1015.669703
1015.669703
1015.669703
1015.669703
946.178436
433.066487
222.212672
80.954432
31.161904
11.426806
9.167790
7.825494
7.160902
6.950498
7.033944
9.371638
12.378693
18.787980
25.551915
36.901832
45.717955
56.840777
62.629580
64.654946
63.315630
55.734515
48.249960
36.864877
29.220581
20.662546
15.475750
10.565519
8.070469
6.561875
5.725622
5.323887
5.433559
5.334616
5.432963
5.380511
5.427599
5.515814
5.672574
5.403757
5.303621
5.494952
5.231500
5.216599
5.358458
5.080700
4.948974
##ZVALUE=355
0.967979
0.971556
0.918508
0.813603
1.030564
0.985861
0.866652
1.038909
1.055598
0.969768
0.840425
1.035929
0.682473
0.968575
0.982881
0.957847
1.137853
1.010895
0.966787
1.012683
1.080632
1.108646
1.249909
1.118779
1.042485
1.104474
1.202822
1.188517
1.098514
1.247525
1.236796
1.374483
1.305938
1.258850
1.328588
1.232624
1.290441
1.336932
1.423955
1.322627
1.531839
1.530647
1.462698
1.540780
1.527667
1.649857
1.871586
1.882911
1.839995
2.006888
2.034903
2.079606
2.224445
2.359748
2.564788
2.569556
3.000498
3.250837
3.671646
7.457733
40.079951
108.741522
299.523473
549.165010
1007.535458
1015.669703
1015.669703
1015.669703
1015.669703
1015.669703
1015.669703
1015.669703
641.107559
316.999555
106.468797
42.135715
12.967587
8.588433
7.581711
7.036924
6.584525
6.463528
6.997585
8.278489
11.096597
15.427470
23.504496
30.852556
41.930676
49.460530
56.587458
59.529543
58.403611
54.955482
45.673847
38.520694
28.020740
22.009611
15.082955
11.190772
7.826686
6.930828
5.997419
5.670786
5.785823
5.577803
5.614758
5.726814
5.557537
5.455613
5.267859
5.362630
5.186796
5.253553
5.047917
4.810691
##ZVALUE=360
0.939965
0.996590
0.981688
0.971556
1.083612
0.904799
0.839829
1.103878
1.009703
0.937581
0.973940
1.052618
1.146793
1.052618
1.021624
1.101494
1.189709
1.261830
1.090765
1.135468
1.164675
1.156926
1.250505
0.949502
1.106858
1.070499
1.189709
1.251698
1.161695
1.217723
1.070499
1.326799
1.351833
1.452565
1.317859
1.245737
1.391768
1.413822
1.373887
1.341701
1.550913
1.428723
1.477599
1.631975
1.598597
1.546741
1.594424
1.620650
1.732707
1.841784
1.985431
1.997948
2.107620
2.238750
2.325773
2.341866
2.561808
2.789497
2.841949
3.245473
3.724694
5.670786
16.461611
71.938634
173.169374
436.455011
742.253661
1015.669703
1015.669703
1015.669703
1015.669703
1015.669703
1015.669703
1015.669703
970.196724
453.131795
201.105475
56.139827
20.716786
8.848906
8.163452
7.299781
6.848574
6.502867
6.233454
6.433725
7.118583
9.428859
12.661815
19.298792
26.023984
36.544800
43.169856
51.261783
54.260492
54.521561
51.881671
45.001507
38.357973
29.862523
23.368001
16.371608
12.088418
8.692741
7.359982
6.312728
5.673766
5.607605
5.605817
5.677938
5.319715
5.079508
5.094409
5.030632
4.692674
4.729629
##ZVALUE=365
0.908971
0.997782
1.126528
0.853539
0.970960
0.930429
0.866652
0.909567
1.075864
0.973940
1.059771
1.143813
1.092553
1.019835
0.854731
1.017451
0.945926
0.955462
1.084805
1.122952
1.061559
0.986457
1.146793
1.116991
1.208782
1.005530
1.288652
1.092553
1.128912
1.117587
1.293421
1.412630
1.300573
1.362562
1.496673
1.475811
1.479983
1.410842
1.326799
1.397729
1.525879
1.515746
1.606941
1.434684
1.508594
1.559854
1.623631
1.726747
1.649857
1.646876
1.858473
2.013445
1.938939
2.005696
2.013445
2.238750
2.351999
2.416968
2.561808
2.699494
3.075600
3.290772
3.807545
4.254580
9.405613
31.620860
119.923949
261.652470
608.424544
965.022445
1015.669703
1015.669703
1015.669703
1015.669703
1015.669703
1015.669703
1015.669703
816.207528
301.888585
116.026998
27.323961
11.545420
8.002520
7.002950
6.378889
5.983710
5.636811
5.691648
5.588531
6.505847
8.320808
11.556745
17.026663
22.968650
31.840801
38.069487
45.487881
49.249530
50.419569
49.559474
43.659806
37.819743
29.050708
23.054481
16.477704
12.895465
9.326935
7.470846
6.499887
5.860925
5.215406
5.173683
4.887581
4.840493
4.797578
4.409552
##ZVALUE=370
0.988841
1.023412
0.962615
1.021624
1.041889
0.976920
0.859499
0.925660
0.871420
0.815988
0.868440
1.123548
0.926852
1.045465
0.910759
1.014471
0.956655
0.916719
1.028776
0.994802
1.009703
1.043677
1.070499
1.126528
1.200438
1.147985
1.166463
1.110435
1.160502
1.178980
1.116991
1.222491
1.180768
1.236796
1.230836
1.230836
1.236796
1.223683
1.423955
1.174808
1.394749
1.399517
1.278520
1.537800
1.414418
1.370907
1.376867
1.552701
1.472831
1.662970
1.751781
1.602769
1.700521
1.603961
1.797676
1.663566
1.963973
1.807809
2.127886
2.137423
2.033710
2.277493
2.710819
2.882481
2.919436
3.411770
5.066991
16.006827
83.061457
194.965601
448.635817
751.792789
1015.669703
1015.669703
1015.669703
1015.669703
1015.669703
1015.669703
1015.669703
1015.669703
497.497916
217.231512
59.171915
19.671917
7.857680
6.657839
6.279945
5.880594
5.504489
5.444884
5.392432
5.588531
6.451607
7.733703
10.549426
14.301538
20.823479
26.128888
33.940673
39.737821
45.841932
47.673583
46.168566
43.522716
36.475658
30.183792
23.318529
17.030835
13.229847
10.110736
7.515550
6.514788
5.252957
5.005598
4.569888
4.322529
##ZVALUE=375
0.977516
0.912547
1.055598
0.779629
0.872612
0.859499
0.978708
0.933409
0.937581
0.923872
0.973940
0.967979
0.840425
0.992417
0.966787
0.895858
1.048446
0.998974
1.011491
0.833869
0.924468
0.983477
1.042485
0.825524
0.955462
0.939965
0.915527
1.022816
1.012683
1.053810
1.102686
1.056790
1.134872
1.068711
0.948906
1.072884
1.172423
1.182556
1.160502
1.141429
1.088977
1.104474
1.269579
1.152754
1.267791
1.295805
1.207590
1.420975
1.282692
1.419783
1.242757
1.425743
1.435876
1.640916
1.508594
1.546741
1.486540
1.607537
1.747608
1.815557
1.753569
2.063513
2.099872
2.223849
2.605915
2.544522
2.754927
3.029704
3.724694
7.919669
40.396452
112.090707
317.652822
571.579933
974.761844
1015.669703
1015.669703
1015.669703
1015.669703
1015.669703
1015.669703
1015.669703
852.146745
456.164479
147.814751
48.758984
10.868907
7.077456
6.134510
6.175637
5.631447
5.601645
5.561709
5.730987
5.741715
5.987883
6.718636
8.694530
12.118816
15.592575
22.649765
28.534532
36.679506
41.792989
44.580698
44.621825
41.808486
36.460757
31.404495
26.072860
19.382834
15.096664
10.331869
8.034706
5.991459
5.180836
##ZVALUE=380
0.802875
0.798702
0.759959
0.768900
0.976920
0.734925
0.978708
0.765920
0.852942
0.781417
0.934601
0.931621
0.830889
0.843406
0.966787
0.709891
0.746846
0.805855
0.729561
0.878572
0.942945
0.880957
0.795722
0.794530
1.005530
0.907779
1.014471
0.961423
1.124740
0.973940
1.088977
1.098514
1.244545
0.994802
1.168847
1.044869
1.156926
1.003742
1.000762
1.062751
0.982881
1.111627
1.044869
1.058578
0.980496
1.272559
1.131892
1.077652
1.225471
1.256466
1.324415
1.391768
1.321435
1.293421
1.380444
1.370907
1.407862
1.532435
1.508594
1.470447
1.447797
1.742840
1.751781
1.705885
2.066493
2.046824
2.072453
2.500415
2.668500
2.950430
3.562570
5.048513
23.127794
71.533918
223.175883
428.646803
849.625468
1015.669703
1015.669703
1015.669703
1015.669703
1015.669703
1015.669703
1015.669703
832.728744
513.668656
212.828517
89.636445
20.333529
7.996559
6.116629
6.022453
5.969405
5.745888
5.664825
5.461574
5.323887
5.085468
5.394816
5.752444
7.665753
10.146499
14.453530
19.509792
27.243495
34.604669
38.924813
41.915774
42.880774
40.826797
37.542582
31.454563
26.329756
18.988848
14.749765
9.941459
##ZVALUE=385
0.700951
0.831485
0.704527
0.724792
0.723600
0.811815
0.813603
0.738502
0.867844
0.636578
0.755787
0.756979
0.734925
0.698566
0.691414
0.845790
0.794530
0.785589
0.640750
0.702739
0.836849
0.863671
1.053810
0.868440
0.767708
0.907779
0.985861
0.912547
0.857711
1.040697
0.863671
0.971556
1.009703
1.068711
0.832677
1.053810
1.043677
1.085997
1.019835
1.048446
1.101494
1.034737
1.178980
1.067519
1.217723
1.211762
1.155734
1.199841
1.070499
1.232624
1.268983
1.120567
1.267791
1.256466
1.242757
1.236796
1.138449
1.270771
1.300573
1.406670
1.375675
1.440644
1.339912
1.512766
1.527667
1.755953
1.704693
1.818538
1.998544
2.391934
2.554655
2.696514
2.934933
3.406405
10.111928
36.541820
145.698786
309.885740
664.919019
978.791714
1015.669703
1015.669703
1015.669703
1015.669703
1015.669703
1015.669703
800.116658
519.858003
243.588686
116.413832
33.681989
11.863708
6.116629
5.738735
5.640984
5.646944
5.202889
5.174875
4.693866
4.523993
4.490614
4.668832
4.978776
5.922914
8.686781
11.954904
17.208457
23.463964
27.961731
33.831596
36.947727
39.122701
38.446784
35.831928
31.296611
25.373697
##ZVALUE=390
0.707507
0.819564
0.709891
0.621676
0.757575
0.674725
0.703931
0.642538
0.734925
0.846982
0.739694
0.840425
0.717640
0.788569
0.763535
0.843406
0.683665
0.776649
0.805855
0.899434
0.784993
0.778437
0.807643
1.028776
0.964999
0.941753
0.883937
0.935793
0.720620
0.834465
1.003742
0.875592
1.061559
0.976920
1.264811
1.068711
1.067519
1.156926
1.052618
1.080632
1.048446
1.022816
1.169443
1.148582
0.990629
1.197457
1.364946
1.104474
1.125932
1.153946
1.200438
1.222491
1.205802
1.136661
1.212955
1.199841
1.254678
1.174808
1.290441
1.170635
1.325607
1.300573
1.372695
1.401901
1.497865
1.472831
1.660585
1.837611
2.066493
2.110600
2.414584
2.353787
2.577901
2.609491
2.831817
2.790689
5.337000
21.397471
97.114444
214.731693
489.982963
786.466599
1015.669703
1015.669703
1015.669703
1015.669703
1015.669703
1015.669703
929.355025
613.624454
290.396810
146.035552
48.134923
18.010736
7.091761
5.606413
5.472898
5.119443
5.006790
4.949570
4.551411
4.619956
4.310608
4.268885
4.487634
4.413724
5.812645
7.938743
10.024905
14.219880
18.203855
24.313927
28.617978
33.970475
35.940409
36.486983
##ZVALUE=395
0.777841
0.674725
0.588894
0.675917
0.671744
0.828505
0.652671
0.712872
0.730753
0.772476
0.870824
0.645518
0.873804
0.848770
0.812411
0.730753
0.823736
0.823736
0.621676
0.754595
0.794530
0.626445
0.793934
0.817776
0.829697
0.901818
0.790954
0.998974
0.898838
0.935793
0.964999
1.007915
0.979900
0.896454
1.137853
1.143813
0.941753
0.998974
1.041889
1.207590
1.111627
1.150966
1.128912
1.072884
1.215935
1.127720
1.230836
1.178980
1.230836
1.174808
1.129508
1.198649
1.084805
1.086593
1.112819
1.228452
1.124740
1.217723
1.212955
1.208782
1.256466
1.308918
1.287460
1.431704
1.361966
1.434684
1.658797
1.763701
1.829863
1.996756
2.068877
2.208948
2.192855
2.133846
2.241731
2.365708
2.542734
2.700686
2.989769
12.701750
47.208667
171.203613
341.302752
689.007640
988.425612
1015.669703
1015.669703
1015.669703
1015.669703
1015.669703
1015.669703
726.000667
454.590917
208.317637
95.677972
28.552413
11.015534
5.830526
5.434752
5.095601
4.982948
4.999638
4.818439
4.617572
4.646778
4.351735
4.409552
4.323721
4.617572
5.264878
6.383657
8.677840
11.395812
16.642809
20.910501
26.822686
##ZVALUE=400
0.914931
0.817776
0.709891
0.705719
0.811815
0.750422
0.905991
0.820756
0.796914
0.672936
0.749826
0.790954
0.814795
0.669956
0.556707
0.811815
0.738502
0.759959
0.630617
0.766516
0.806451
0.829697
0.948906
0.806451
0.907779
0.786781
0.781417
0.794530
0.827909
0.812411
1.071692
0.873804
1.046658
0.993609
1.104474
1.060963
1.119971
1.067519
1.151562
1.126528
1.093745
1.176596
1.289845
1.028776
1.256466
1.245737
1.332760
1.133680
1.124740
0.995994
1.211762
1.000762
1.270771
1.152754
1.013875
1.155734
1.211762
1.341701
1.303554
1.177788
1.097918
1.395941
1.222491
1.179576
1.182556
1.389980
1.439452
1.624823
1.731515
1.779795
2.035499
2.025962
1.896620
1.936555
1.939535
1.877546
2.082586
2.165437
2.195835
2.546906
2.970695
5.487800
27.664900
81.132650
239.541531
444.678664
846.809745
1015.669703
1015.669703
1015.669703
1015.669703
1015.669703
1015.669703
949.433446
534.704924
314.607620
131.665468
57.509542
15.620589
6.978512
5.358458
5.187988
5.190969
5.092621
5.108714
5.188584
5.124807
4.920959
4.677773
4.329681
4.294515
4.239678
4.614592
5.458593
7.097721
10.015965
##END
