##TITLE=13-2
##FORMAT=SPECTACLE-ASCII V-1.2
##DATA TYPE=ULTRAVIOLET SPECTRUM
##SECOND TYPE=ULTRAVIOLET SPECTRUM
##DATE=04/09/18
##TIME=11:12:42
##SPECTROMETER/DATA SYSTEM=SPECTACLE
##XUNITS=NM EM
##YUNITS=ENERGY
##YFACTOR=1
##FIRSTX=220
##LASTX=450
##NPOINTS=116
##3DDATA=Equidistant
##ZUNITS=NM EX
##FIRSTZ=210
##LASTZ=400
##ZPOINTS=39
##XYDATA=(Y..Y)
##ZVALUE=210
25.899410
25.439858
20.711422
12.773871
11.181831
9.571910
10.890961
9.300709
7.601976
6.832480
4.412532
4.656911
4.875660
4.861951
4.840493
4.927516
4.601479
5.169511
4.905462
5.070567
5.654693
7.102489
5.967617
7.517934
7.876754
7.716417
9.348989
9.485483
11.251569
10.247827
11.811852
12.192726
12.305975
12.328625
12.956858
13.570786
13.160706
12.398958
12.936592
13.675690
14.368892
13.552904
13.056993
14.084578
14.303923
15.167594
13.833642
13.395548
14.872551
14.351606
16.273856
13.867617
15.533566
15.509725
15.189648
15.062690
16.807914
15.869737
14.118552
15.337467
15.493631
16.045570
15.735626
15.713573
16.116500
15.685558
18.115640
17.479658
22.334456
23.784637
28.726459
34.560561
40.424466
43.810606
47.797561
51.682591
52.732825
54.894686
54.100752
51.538944
45.471787
39.192438
34.990907
30.745864
23.423433
20.924807
18.585920
16.501546
16.206503
17.746687
24.111867
31.653643
39.695501
48.726797
61.185956
69.987774
84.587932
93.718767
103.549957
108.114481
111.526847
113.138556
107.558966
104.300976
101.765990
90.253949
81.626773
81.202984
74.823499
56.993961
47.347546
39.969683
31.129718
24.062991
20.748973
21.389723
##ZVALUE=215
87.028742
85.223913
67.156553
46.051741
36.210418
25.001764
18.537641
17.015934
16.667843
14.974475
12.985468
11.565685
7.965565
6.374717
5.079508
5.155802
5.107522
5.278587
5.219579
6.646514
7.047653
6.900430
6.826520
7.320642
7.521510
8.696914
8.147955
9.086728
9.660721
9.837747
10.759830
11.573434
12.133718
12.510419
12.375712
13.691783
14.085770
13.674498
13.967752
13.145804
14.921427
13.564825
14.068484
13.525486
14.682412
14.427900
14.536977
13.298988
14.912486
15.065670
14.419556
15.365481
15.558600
15.324950
15.156865
16.864538
17.521977
15.831590
15.630722
15.751719
15.584826
15.513897
16.647577
14.823675
15.332699
16.665459
16.036630
17.226934
21.996498
22.863746
27.368665
28.403997
35.203695
36.517978
40.556788
41.696429
43.079853
41.496754
40.255785
39.014816
34.248829
31.576753
28.182864
23.780465
22.249818
17.135739
14.100671
14.668703
12.716651
12.256503
12.814999
12.296438
12.507439
13.994575
19.580722
26.468635
34.761429
44.152737
61.414838
71.151853
90.126991
104.632974
114.844441
126.685500
136.673450
145.925879
150.380731
144.969821
150.006413
134.783983
133.981705
120.815635
108.916759
90.114474
75.246692
59.939623
##ZVALUE=220
178.446770
171.535611
168.535709
154.221654
128.749609
92.525482
69.184899
41.584969
32.218695
28.000474
24.908781
24.051666
23.337603
20.192862
15.771985
12.039542
9.627938
7.853508
6.698966
5.994439
6.578565
6.354451
7.396936
6.908774
7.501841
8.067489
9.541512
8.615851
9.435415
11.197925
11.735559
12.179613
11.818409
12.529492
12.953877
14.576912
13.832450
14.741421
14.677644
14.263988
15.166998
15.752912
16.089678
15.315413
15.548468
16.549826
16.194582
16.208887
16.137958
17.655492
17.621517
17.101765
17.494559
18.128753
18.073916
17.107725
18.331409
17.474890
17.404556
15.766621
16.528964
16.194582
15.856624
16.997457
15.628934
15.693903
17.013550
16.613603
18.791556
21.059513
24.620891
28.076768
31.297803
34.637451
35.078526
37.134886
36.857724
35.200715
33.381581
32.157898
30.190945
26.523471
25.362968
21.182895
18.554926
17.082691
15.783906
13.315678
11.939406
11.925697
11.709929
11.665821
11.075735
12.266636
11.203885
11.021495
12.484789
12.158751
14.268756
17.962456
27.473569
36.154985
54.528713
66.517591
91.468692
113.018751
136.236548
161.553621
175.432563
192.768574
210.721493
214.555860
215.439796
208.852887
206.386447
196.723938
##ZVALUE=225
202.348828
202.377439
256.719589
278.990865
286.092758
252.673626
214.168429
155.791640
114.289522
74.990988
52.335858
43.710470
41.320920
41.069984
38.338900
35.377741
28.040409
21.319985
17.024875
12.153983
10.068417
6.930828
6.438494
6.794930
8.141994
8.965731
7.496476
8.824468
9.543896
8.726716
10.518432
10.550618
10.204911
11.701584
11.793971
13.920665
14.139414
14.053583
15.353560
14.854670
16.349554
16.807914
15.716553
16.968846
15.280843
15.148520
16.025901
16.596913
16.677976
16.577840
16.809702
18.101931
17.392635
18.323660
17.388463
15.779734
18.080473
17.210841
17.659664
18.386841
17.786622
17.736554
19.428730
16.201735
15.970469
15.679598
18.184781
17.594695
19.448996
20.491481
23.059845
23.916960
27.002692
28.377771
28.461814
28.319955
29.331446
28.854609
26.529431
24.905801
23.415685
22.839904
17.875433
17.261505
14.984608
14.211535
13.608932
12.357831
11.967421
11.681914
11.454821
10.243654
11.490583
10.073781
10.904670
9.810925
11.334419
8.713603
10.791421
10.328889
10.684729
11.098981
12.068748
13.884902
21.445751
28.775930
48.333406
72.664618
91.831684
123.810768
145.056844
189.320445
212.996602
257.096887
281.890631
301.399827
##ZVALUE=230
128.974915
135.983825
232.892632
301.892757
375.046730
447.426438
466.717482
435.670614
379.091501
284.450650
206.182003
131.411552
96.014738
67.738891
57.928562
60.875416
63.392520
57.194829
49.252510
39.900541
32.257438
24.221539
16.174912
11.523962
9.412766
8.276701
8.819699
10.335445
10.507703
9.843707
10.518432
10.393858
12.443662
12.802482
11.145473
12.449622
14.766455
15.221834
16.219616
14.963746
15.340447
15.250444
16.821623
17.705560
17.392635
17.101765
18.118620
17.044544
16.865730
17.747879
18.485785
18.781424
18.415451
18.795729
17.666817
18.672943
18.308759
18.231869
17.971992
17.859936
19.033551
17.668605
18.786788
18.348694
19.173622
17.222762
17.175674
19.154549
20.511746
22.007823
21.784902
25.707483
25.950670
28.060675
30.288696
30.809641
30.472875
27.983785
27.372837
24.845600
21.144748
20.751953
18.593669
17.848611
14.637709
15.283823
12.975931
12.300611
12.377501
12.456775
11.223555
12.214780
11.584759
11.572838
11.634827
12.598634
11.909604
10.795593
10.846853
11.109710
11.983514
10.598898
10.656714
10.263920
11.634827
11.244416
10.792613
12.093782
14.838576
23.981929
36.171675
60.428977
81.328750
128.758550
170.843005
225.157738
##ZVALUE=235
36.046505
39.790869
95.001459
171.607733
274.450779
431.891680
554.586649
691.486597
719.899535
705.256462
640.653968
479.493737
350.533724
218.902826
147.620440
100.584626
88.794827
90.825558
91.180801
90.221763
84.723830
73.590875
58.080554
41.244626
27.870536
17.960668
15.609860
11.492968
9.472966
10.219812
11.442900
10.444522
11.538863
11.728406
13.029575
13.183951
13.452768
13.273954
14.250875
14.502406
16.004443
15.669465
16.567707
14.596581
17.090440
16.157627
16.788840
16.872883
17.212629
16.871691
17.108917
16.840696
17.304420
17.229915
18.858910
18.421412
17.998815
18.384457
18.024445
17.963648
18.356442
17.048717
17.426610
17.335415
17.999411
16.514659
17.983913
17.353892
19.526482
19.824505
23.046732
25.640726
25.478601
27.809739
28.619766
27.287602
26.990771
28.092861
24.190545
24.180412
20.063519
20.629764
18.715858
17.204881
15.653968
14.033914
13.391972
13.481975
12.516975
14.996529
11.622906
13.409853
12.484789
13.265610
12.242794
13.229847
11.845827
11.329651
12.440681
11.568666
11.716485
11.821985
12.178421
11.911988
10.737777
11.325479
12.050867
11.133552
11.624694
11.183619
10.512471
11.295676
13.176799
16.591549
25.493503
45.603514
##ZVALUE=240
3.587604
3.636479
12.571812
38.119555
80.564618
189.898610
322.921872
543.558598
705.209970
893.151760
990.102887
979.643464
887.006521
716.820955
551.258922
345.794559
237.303972
148.132443
114.318728
108.648539
113.070607
116.214752
117.143989
102.991462
83.998442
67.319870
49.649477
34.793615
23.325682
17.701983
12.736917
10.786653
11.895895
12.273788
12.600422
12.136698
14.555454
13.376474
16.192794
14.494658
14.154911
15.921593
16.135573
15.436411
16.260743
15.055537
15.802979
15.517473
16.065836
15.484691
16.195774
17.067790
17.376542
16.504526
15.827417
16.690493
16.881824
15.421510
16.865730
14.923811
16.898513
17.196536
16.081929
16.617775
17.000437
16.760826
17.805696
18.315911
18.027425
19.829869
20.327568
23.062825
23.210645
27.852654
26.392937
27.958751
27.333498
26.568770
25.497675
23.661852
19.884706
20.669699
18.180609
15.862584
14.796853
14.566779
13.932586
14.038682
13.174415
13.368726
13.038516
13.784766
12.666583
12.916923
12.005568
12.682676
13.166666
12.299418
11.028647
12.902617
13.126731
11.666417
12.458563
11.442900
12.266636
11.630654
12.708902
11.407733
12.451410
11.624694
11.657476
11.523962
12.916923
10.778904
11.222959
11.720657
##ZVALUE=245
2.086759
2.361536
2.428889
2.998710
5.899668
25.417805
60.693622
170.479417
299.694538
525.127649
733.425617
993.102789
1015.669703
1015.669703
1015.669703
953.921676
766.795874
523.618460
354.963541
204.348564
142.827630
112.371445
110.795498
124.925971
128.334761
125.348568
112.748742
93.594790
74.411631
56.667924
38.392544
28.748512
17.883778
15.554428
12.452602
11.836886
12.371540
12.070537
11.620522
12.502670
13.554692
12.825727
13.950467
14.420748
15.303493
15.195608
14.922619
14.265776
14.999509
13.865829
14.351606
14.593601
14.209747
14.816523
13.806820
15.362501
13.836622
14.936924
14.936924
14.434457
14.177561
14.257431
14.151931
14.057755
14.317632
14.388561
13.695955
14.658570
14.951825
17.273426
18.969774
19.962788
21.393895
21.872520
24.388433
23.771524
21.414757
23.104548
19.839406
19.919872
16.962886
16.126633
15.695691
13.703704
13.698936
12.680888
11.877418
12.871623
13.250709
12.922883
11.838675
11.298656
10.630488
10.368824
10.702610
11.610985
10.590553
10.684729
10.644794
10.269880
10.988712
10.817647
10.319948
11.190772
10.999441
10.448694
10.113716
11.465549
11.152625
10.632873
10.515451
11.225939
11.168718
10.510683
10.007620
10.589957
##ZVALUE=250
2.393723
1.968741
1.793504
2.351999
2.435446
3.575683
3.549457
16.666651
45.869946
131.910443
256.039500
500.544906
739.401579
1010.542512
1015.669703
1015.669703
1015.669703
1015.669703
1006.077528
707.839727
492.067933
319.418907
168.673992
118.027925
109.171867
121.538639
132.387877
138.808489
129.854679
120.370984
99.741817
81.456900
57.957768
39.841533
25.969744
18.017888
13.564825
12.526512
12.247562
13.527870
13.638735
13.608932
13.940930
13.747811
12.872815
13.858676
12.983680
13.768673
14.729500
14.138818
13.204813
13.788939
14.528632
13.593435
13.721585
13.114810
13.805628
13.843775
13.304949
13.545752
12.487769
13.051629
11.946559
13.068914
12.906790
13.639927
12.972951
13.253689
13.590455
14.925599
16.395450
16.971827
18.282533
18.916726
20.536780
20.003915
19.328594
19.370914
16.207695
16.145706
14.294982
13.888478
12.850761
11.223555
11.823773
10.351539
10.615587
10.027885
9.927750
9.528995
9.658933
9.365678
9.193420
9.907484
9.518862
8.831620
9.450912
9.115934
9.593964
9.544492
9.848475
9.163618
9.396672
9.617805
9.354949
9.198785
9.447932
9.388924
9.282827
9.565949
8.571744
9.388924
8.662939
8.891821
9.092689
8.351803
##ZVALUE=255
2.249479
2.113581
2.389550
2.171993
2.386570
2.589822
2.395511
2.937913
2.683997
7.705688
29.899478
103.357434
210.781693
446.601510
674.570799
998.243690
1015.669703
1015.669703
1015.669703
1015.669703
1015.669703
948.624015
674.865842
372.675657
222.236514
122.102499
100.713968
103.547573
122.680664
134.855509
145.594478
141.406655
127.225518
109.425783
81.033707
61.964989
40.238500
27.970672
19.146800
14.569759
14.207959
13.642907
14.097691
13.457537
14.061928
12.912750
13.731718
13.770461
13.897419
14.366508
13.115406
14.475584
13.702512
13.156533
12.256503
12.952685
12.366772
12.596846
12.658834
12.448430
12.740493
12.033582
11.887550
11.628866
12.238622
12.428761
11.371970
11.560917
13.088584
12.931824
14.945865
15.332699
16.317964
17.201900
16.579628
16.468763
15.496612
15.202761
13.821721
13.524890
12.404919
11.768937
11.270642
10.508895
9.591579
9.675622
8.990765
8.786917
8.619428
7.896423
7.769465
8.560419
8.243918
7.937551
8.286834
8.319616
7.992983
7.773638
7.998943
8.023977
7.544756
8.258820
7.931590
8.464456
7.494688
8.314848
8.128881
8.432865
7.965565
7.355809
8.326769
8.092523
7.276535
7.658601
8.360744
7.441640
##ZVALUE=260
2.054572
1.893640
1.722574
1.809597
2.071857
2.096891
2.174973
2.350807
2.451539
2.713799
2.732873
4.494786
15.242696
65.326691
146.915913
341.785550
569.899678
924.856663
1015.669703
1015.669703
1015.669703
1015.669703
1015.669703
1015.669703
895.952582
542.078018
340.779424
145.922899
106.737614
89.048743
119.808912
131.274462
141.514540
153.179765
148.230791
132.596493
114.907622
85.866451
65.578818
42.938590
32.115579
20.946860
17.775893
15.518665
14.816523
15.365481
15.137792
15.169978
14.844537
15.225410
14.815927
14.786720
14.454722
13.505816
14.170408
13.632774
13.709664
13.265610
12.943745
12.631416
12.772679
11.848807
12.298822
11.524558
11.638999
10.949969
11.804700
11.646748
11.966825
12.602806
13.320446
14.245510
14.371872
14.601946
15.262961
14.548898
13.659596
13.225675
12.545586
11.070967
10.819435
10.031462
9.695888
8.817911
8.523464
7.998943
8.492470
7.855892
8.227825
7.877946
8.211732
7.647872
7.791519
7.445812
7.221699
7.460713
6.982684
7.644892
7.412434
6.495714
7.297993
7.386804
7.343888
7.299781
7.030964
7.273555
7.424951
7.737875
6.758571
6.881952
6.959438
6.904602
7.689595
7.175803
6.604791
6.801486
##ZVALUE=265
1.750588
1.581907
1.798868
1.898408
1.878738
2.060533
2.002716
2.074838
2.287626
2.262592
2.141595
2.368689
2.617836
3.454685
7.772446
41.198730
100.462437
258.460641
453.956723
848.543644
1015.669703
1015.669703
1015.669703
1015.669703
1015.669703
1015.669703
1015.669703
797.031522
439.456701
265.120864
128.542781
85.287690
87.167621
107.803941
136.076808
149.032474
155.243874
151.979923
133.053660
114.961863
86.942911
66.369772
45.824647
32.729506
22.450686
19.080639
17.284751
16.443729
16.397834
17.455816
16.293526
15.974641
15.507936
14.769435
15.247464
14.862418
13.934970
13.477802
13.805628
13.273954
12.995601
12.325644
12.464523
12.585521
11.717677
11.458993
11.427999
11.346936
11.811852
11.896491
12.837648
12.436509
14.344454
12.927651
13.319850
12.462735
12.558699
11.910796
10.752678
10.654926
9.894967
9.379983
9.215474
8.418560
8.404851
8.017421
7.571578
7.194877
7.776618
7.474422
6.507635
7.073879
6.688833
6.838441
7.547736
7.733703
6.659627
6.718636
6.455779
6.825924
6.327629
6.471872
6.228685
6.918907
6.787777
6.775856
6.503463
6.422997
6.426573
6.822944
6.899834
6.207824
6.408691
6.523728
6.428957
5.942583
##ZVALUE=270
1.647472
1.490712
1.774430
1.701713
1.562834
1.598597
1.831651
1.755953
1.804829
2.010465
2.039671
2.549887
2.746582
2.740622
2.757907
3.054738
3.799796
19.233823
57.232976
188.810825
359.779596
717.744827
1010.640860
1015.669703
1015.669703
1015.669703
1015.669703
1015.669703
1015.669703
1015.669703
663.419962
410.764813
197.718740
104.077458
72.593689
84.209442
114.677548
135.315657
157.156587
162.279606
154.674649
144.493580
117.179751
95.310807
68.241954
50.016642
33.914447
27.153492
20.597577
18.815994
17.897487
17.375946
17.353892
17.712712
16.674995
16.069412
15.594959
15.291572
15.218854
15.192628
14.105439
14.099479
12.956858
13.238788
12.279749
12.453794
11.993647
11.798739
11.607409
11.892915
12.384653
13.003945
13.264418
13.598800
13.175607
12.763739
12.726784
11.263490
10.599494
10.211468
9.817481
9.321570
8.636713
8.736849
7.923841
7.509589
7.580519
7.311702
6.920695
6.640553
7.232428
6.854534
6.177425
6.563663
6.580949
6.731749
6.255507
6.941557
6.136894
6.505847
6.036758
5.994439
6.212592
6.434917
6.730556
6.522536
7.114410
6.167889
6.450415
6.165504
6.828904
5.908608
6.006956
6.043911
5.789995
6.095767
##ZVALUE=275
1.477599
1.489520
1.415610
1.414418
1.403689
1.653433
1.634955
1.730919
1.806617
1.792908
1.633763
1.768470
1.731515
2.007484
2.228618
2.371669
2.289414
2.692938
3.056526
8.969903
32.233596
123.326778
271.027684
599.629879
931.241512
1015.669703
1015.669703
1015.669703
1015.669703
1015.669703
1015.669703
1015.669703
900.583863
497.722626
289.081931
129.009485
74.942708
66.608787
84.350705
113.356709
132.419467
153.305531
158.409476
154.767632
141.049623
117.041469
93.290806
67.665577
51.998496
34.979582
27.846694
21.948814
18.965602
18.313527
17.655492
16.911626
16.797781
16.033649
15.312433
15.050769
14.797449
14.235973
13.633966
13.829470
13.283491
12.532473
12.465715
12.998581
12.717843
13.366938
13.567805
12.926459
12.891889
13.867617
12.850761
13.200641
12.445450
11.852980
10.740757
10.095835
9.789467
8.433461
8.265972
8.218884
8.165836
7.434487
7.377863
7.191896
7.119775
6.459951
6.666780
7.007718
6.285906
6.921887
6.372929
6.848574
5.995631
6.600618
6.223917
6.465912
5.891919
6.209612
6.396770
6.078482
6.095767
6.228685
6.176829
5.801916
6.180406
6.041527
5.597472
6.223917
5.903840
5.845428
5.591512
5.807877
##ZVALUE=280
1.404881
1.457930
1.460910
1.403689
1.537800
1.536608
1.775622
1.607537
1.694560
1.623631
1.807809
1.577735
1.595616
1.613498
2.008677
1.883507
2.140999
2.270937
2.782941
2.763867
3.227592
5.583763
19.891858
70.253611
227.228403
419.284701
791.724920
1015.669703
1015.669703
1015.669703
1015.669703
1015.669703
1015.669703
1015.669703
996.738672
697.928667
348.534584
188.246965
79.485774
55.224895
64.888597
83.275437
112.845898
131.587982
152.205825
156.561732
150.988698
138.050914
112.614632
91.982484
65.669417
49.895644
33.541918
25.725961
19.504428
17.135739
16.016960
15.660524
14.903545
14.332533
14.483929
14.563799
14.035702
12.687445
12.904406
12.854934
12.013912
12.802482
12.084842
12.378693
12.655854
12.634993
12.378693
12.830496
12.528896
12.653470
11.569858
11.217594
10.940433
10.334849
9.700656
8.897781
8.151531
8.419752
7.979870
7.651448
6.920695
7.784963
6.808639
7.022619
7.007718
6.735921
6.524920
7.078648
6.211996
6.770492
6.085634
6.162524
5.772710
6.141663
6.169677
5.804896
5.921721
6.279945
6.317496
6.316900
5.840659
5.974770
5.748868
5.958676
5.826950
5.984902
6.002784
5.552769
5.570650
5.350709
##ZVALUE=285
1.337528
1.254678
1.366735
1.486540
1.363754
1.192689
1.438856
1.386404
1.285672
1.492500
1.394749
1.662970
1.589656
1.725554
1.827478
1.879930
2.058744
2.081990
2.172589
2.370477
2.566576
2.703667
2.961755
3.623962
8.800626
47.586560
118.941665
252.311826
556.489825
893.293023
1015.669703
1015.669703
1015.669703
1015.669703
1015.669703
1015.669703
1015.669703
927.038789
494.063497
280.474424
114.516616
57.956576
44.578910
55.865645
81.265569
102.256536
126.758814
141.749978
149.857998
144.955516
132.058859
113.803744
88.001490
68.571568
45.855641
32.987595
22.004843
16.818643
14.036894
12.794733
12.560487
11.986494
11.742711
11.202693
11.794567
11.890531
11.688471
11.693835
11.582971
12.180805
12.342930
12.040734
12.195706
11.183619
11.432767
11.328459
10.750890
10.429621
10.038614
9.133816
8.861423
8.337498
8.137822
8.204579
8.045435
7.446408
7.431507
7.485747
7.166862
6.661415
7.048845
7.165670
6.598830
6.653666
6.517768
6.149411
5.775690
6.182790
6.071925
6.020665
6.425977
6.037951
6.170869
6.048679
5.750656
6.037951
5.964637
5.928874
5.700588
5.924702
5.987883
5.708933
6.175637
5.604625
5.419850
5.490780
##ZVALUE=290
1.344681
1.333952
1.250505
1.419783
1.327991
1.416802
1.265407
1.362562
1.222491
1.594424
1.466870
1.398921
1.567602
1.675487
1.476407
1.487732
1.730919
1.831651
2.011657
2.210736
2.059937
2.293587
2.428889
2.697706
2.863407
3.338456
4.572868
20.122528
64.617991
162.263513
402.534604
686.946511
1015.669703
1015.669703
1015.669703
1015.669703
1015.669703
1015.669703
1015.669703
1015.669703
764.633417
372.070670
187.466741
67.591667
35.397410
37.242770
50.268769
73.573589
92.680454
112.449527
132.861733
141.126513
138.622522
128.436685
105.153918
86.746812
60.533881
44.833422
27.585626
20.599961
14.617443
12.033582
10.877848
10.509491
10.451674
10.229945
10.256767
9.862781
10.737777
10.285974
10.771751
10.532737
11.170506
11.017919
10.608435
10.579824
10.194778
9.823442
8.996725
8.770823
8.521676
8.528829
8.166432
7.631779
7.729530
7.452965
7.707477
7.317662
7.262826
6.853938
6.820560
6.615520
6.444454
6.618500
6.440878
6.681681
6.488562
6.267428
6.159544
6.411672
6.711483
6.002784
6.073713
6.373525
5.820990
5.992651
6.017685
6.115437
5.951524
5.960464
5.833507
5.734563
5.644560
5.377531
5.722642
5.106926
##ZVALUE=295
1.273751
1.235604
1.011491
1.203418
1.315475
1.264811
1.171827
1.293421
1.209974
1.291633
1.524687
1.377463
1.463890
1.379848
1.409650
1.509786
1.633763
1.636744
1.683831
1.900792
1.888871
1.898408
2.103448
2.114773
2.363920
2.767444
2.711415
3.357530
3.387928
5.913973
32.180548
95.151663
277.352929
535.929799
983.075500
1015.669703
1015.669703
1015.669703
1015.669703
1015.669703
1015.669703
1015.669703
938.413739
487.136841
260.832906
91.706514
41.337609
26.048422
31.300783
43.514967
65.999627
85.543990
109.462738
123.725533
134.971738
132.231712
117.753744
102.683902
78.457594
59.987903
40.658712
28.616786
17.898679
13.185740
10.586977
9.700656
9.173751
9.141564
8.723736
9.536743
9.546876
9.966493
9.895563
10.119677
10.271668
9.613633
9.401441
9.102821
8.607507
8.259416
8.361936
7.976890
7.582903
7.671714
7.596612
7.418990
7.241964
6.740689
7.289648
7.062554
6.717443
6.854534
6.621480
6.567836
6.500483
6.263852
6.505847
6.066561
6.245971
6.498694
6.374717
6.168485
6.187558
6.172657
6.321669
6.206632
5.949736
5.795956
6.117821
5.873442
5.898476
6.022453
5.746484
5.788803
5.874634
5.302429
##ZVALUE=300
1.190901
1.172423
1.197457
0.985861
1.177788
1.235604
1.163483
1.164675
1.189709
1.307726
1.385808
1.208782
1.277924
1.445413
1.329780
1.401901
1.509786
1.436472
1.597404
1.621842
1.664758
1.512766
1.838803
1.892447
1.994967
2.282858
2.326965
2.673864
2.642870
2.942681
3.102422
4.349947
12.421608
66.976547
166.436434
419.235826
727.192760
1015.669703
1015.669703
1015.669703
1015.669703
1015.669703
1015.669703
1015.669703
1015.669703
649.020672
374.713540
154.616833
68.590641
24.759769
20.715594
29.484630
40.186644
60.888529
79.745650
103.395581
117.252469
124.954581
126.747489
114.570856
99.508762
76.538920
59.752464
40.305853
27.807951
17.257929
12.812614
9.402633
8.549690
8.431673
8.766651
8.797646
9.017587
8.971691
9.290576
8.846521
8.572936
8.200407
7.787943
7.888675
7.881522
7.593632
7.476807
7.056594
7.139444
6.995797
7.264614
6.757975
6.739497
6.690621
6.691813
6.327629
6.437898
6.435513
6.485581
6.281734
6.262660
6.210804
6.237626
5.989671
6.272793
5.978942
5.657673
5.978942
5.759597
5.783439
5.999804
6.193519
5.849600
5.890727
5.935431
6.014705
5.683899
5.606413
5.373955
4.962683
##ZVALUE=305
0.906587
1.141429
1.044869
1.018643
1.081824
1.196861
1.288652
1.049638
1.350641
1.464486
1.293421
1.224875
1.125932
1.273751
1.270771
1.495481
1.385808
1.353621
1.397729
1.590848
1.538992
1.791716
1.813769
1.753569
1.883507
1.968741
1.885891
2.129674
2.305508
2.486706
2.675653
2.511740
3.113747
3.359914
7.955432
29.665828
122.904778
278.092027
625.959635
974.844694
1015.669703
1015.669703
1015.669703
1015.669703
1015.669703
1015.669703
1015.669703
896.328688
548.575521
297.048688
105.489492
42.612553
16.743541
18.047690
27.361512
37.489533
58.302879
74.396729
98.206997
110.556483
118.489861
119.535923
109.366775
96.068978
72.801709
56.986809
38.321614
26.799440
16.314983
12.177825
9.599924
8.897781
8.687973
8.455515
8.146763
8.442998
8.010864
8.129478
7.679462
7.251501
7.124543
7.146597
6.868839
6.883740
7.032752
6.822944
6.814599
6.967783
6.543994
6.620884
6.497502
6.359816
6.180406
6.278753
6.091595
6.091595
6.101727
5.980730
6.241798
5.824566
5.661845
5.874634
5.731583
6.056428
5.903840
5.862713
6.081462
5.819798
5.878806
5.880594
5.969405
5.720854
5.635619
5.879998
5.451441
5.401969
##ZVALUE=310
0.908971
0.937581
1.102686
1.091957
1.191497
1.224875
1.199841
1.186728
1.082420
1.231432
1.216531
1.292825
1.294613
0.952482
1.216531
1.324415
1.334548
1.261830
1.348853
1.408458
1.235604
1.450777
1.437664
1.344681
1.570582
1.440644
1.688600
1.907945
1.948476
2.036691
2.221465
2.103448
2.403855
2.630949
2.990961
3.321767
4.030466
12.349486
64.455867
162.662864
412.989855
723.640919
1015.669703
1015.669703
1015.669703
1015.669703
1015.669703
1015.669703
1015.669703
1015.669703
704.001784
411.951542
166.756511
72.506666
21.963716
14.030933
16.940832
22.615790
35.148859
47.616959
68.245530
84.068775
102.966428
110.580921
113.173723
106.541514
89.962482
74.453950
52.127838
37.862659
24.953485
18.025637
12.491941
10.580420
8.722544
7.938743
7.597804
7.158518
6.459951
6.629825
6.296635
6.679893
6.378889
6.309748
6.406903
6.202459
6.443858
6.397963
6.217957
6.022453
5.835891
5.705953
5.642772
5.563498
5.915761
5.738735
5.693436
5.694628
5.616546
5.548596
5.426407
5.827546
5.484819
5.575418
5.768538
5.653501
5.715489
5.575418
5.264878
5.532503
5.413890
5.220771
5.351901
5.192757
5.219579
5.290508
##ZVALUE=315
1.060963
0.997782
1.164675
1.004934
1.136661
1.120567
1.210570
1.110435
1.034737
1.089573
1.251698
1.005530
1.129508
1.060963
0.879765
1.138449
1.301765
1.194477
1.258850
1.362562
1.386404
1.229644
1.411438
1.456738
1.565814
1.492500
1.522899
1.756549
1.652837
1.815557
2.029538
1.978874
2.072453
2.272725
2.181530
2.425909
2.632737
3.046989
3.725886
6.093979
33.178926
98.817945
293.953419
543.817878
993.881822
1015.669703
1015.669703
1015.669703
1015.669703
1015.669703
1015.669703
1015.669703
913.213491
574.511886
264.959931
121.391416
31.848550
14.411807
12.265444
14.789701
21.279454
30.587912
46.944618
61.332583
81.000924
94.385743
104.580522
106.679797
97.888708
85.644722
66.514611
52.265525
35.750866
25.727749
15.971661
11.427999
8.612871
7.335544
7.068515
6.237626
6.146431
6.334782
6.150603
6.054640
5.937815
5.768538
5.647540
5.875826
5.681515
5.487800
5.663633
5.861521
5.739927
5.747676
5.717874
5.463958
5.348921
5.450845
5.695820
5.632639
5.086660
5.315542
5.298853
5.394816
5.551577
5.488992
5.805492
5.411506
5.461574
5.335808
5.274415
5.397797
5.166531
4.823804
4.844666
4.894733
##ZVALUE=320
1.053810
0.948906
0.966787
1.034737
0.941753
1.015663
0.948906
0.981688
0.898838
1.034737
1.068711
0.928640
1.039505
1.047850
1.157522
1.124740
1.009703
1.041889
1.148582
1.172423
1.209974
1.264811
1.454949
1.189709
1.348853
1.458526
1.462698
1.500845
1.560450
1.616478
1.509786
1.874566
1.852512
1.902580
1.902580
2.022982
2.353787
2.476573
2.644658
3.073812
3.137589
3.876686
15.674829
53.123832
191.650391
390.780568
795.894861
1015.669703
1015.669703
1015.669703
1015.669703
1015.669703
1015.669703
1015.669703
1015.669703
734.916925
335.434675
172.312856
58.307648
22.584796
11.092424
11.060834
13.875961
18.599629
28.896928
39.676428
58.309436
72.767735
90.070963
98.126531
99.455714
94.373822
81.477761
68.296790
48.734546
35.689473
22.783875
15.114546
9.793639
7.844567
6.309748
5.667806
5.446672
5.593896
5.364418
5.379915
5.276799
5.472898
5.378723
5.278587
5.461574
5.071759
5.142689
5.154610
5.526543
5.408525
5.105734
5.185604
5.087852
5.271435
5.057454
5.220771
5.057454
5.650520
5.275607
5.175471
5.180836
5.093813
5.187988
5.208850
5.093813
4.991889
4.907846
5.026460
4.876852
4.635453
##ZVALUE=325
0.966787
0.917912
0.940561
0.853539
1.048446
1.115799
1.020432
1.002550
1.005530
0.974536
0.818968
0.981688
1.082420
1.058578
1.014471
1.124740
0.960827
1.119971
1.242757
1.193881
1.351833
1.410842
1.281500
1.293421
1.394749
1.199841
1.348853
1.472831
1.384616
1.282692
1.405478
1.315475
1.464486
1.777411
1.664758
1.866817
1.919866
2.195835
2.162457
2.289414
2.536774
2.819896
3.132820
3.378987
7.864833
30.418634
121.243596
269.151926
611.321926
965.725780
1015.669703
1015.669703
1015.669703
1015.669703
1015.669703
1015.669703
1015.669703
873.746872
452.171564
243.818760
85.338950
31.645894
11.126995
9.512901
9.791851
12.114644
17.841458
25.592446
41.095614
55.715442
73.850751
84.616542
93.678832
94.794631
87.599754
76.860785
59.335828
44.475794
29.161572
20.743608
13.166666
9.629726
6.816983
5.857944
5.395412
5.459785
5.055666
5.207658
4.932880
4.823804
5.057454
5.090833
5.020499
5.119443
5.015731
5.047917
4.874468
4.999638
5.085468
4.863739
5.055666
5.089641
4.914999
5.094409
5.159974
4.915595
5.148649
5.134940
5.192757
4.851818
5.217791
5.121827
5.207658
4.736781
4.683733
4.776716
##ZVALUE=330
0.923872
0.902414
0.989437
1.071692
0.893474
0.965595
0.887513
1.034737
1.078844
1.051426
0.993609
0.735521
0.913739
1.207590
1.131892
1.013875
1.052618
0.898838
1.020432
1.019835
1.156926
1.011491
1.108646
1.315475
1.145601
1.063943
1.154542
1.344681
1.298785
1.347661
1.438856
1.422763
1.612902
1.455545
1.519918
1.632571
1.671910
1.989603
1.853704
2.079606
2.199411
2.172589
2.436638
2.591610
2.960563
3.161430
4.114509
13.742447
71.095824
174.369812
437.431931
741.364956
1015.669703
1015.669703
1015.669703
1015.669703
1015.669703
1015.669703
1015.669703
1015.669703
608.040690
334.250927
123.334527
52.242875
15.126467
9.092689
8.715987
9.183884
11.975765
17.387867
26.697516
37.025809
52.840710
64.733624
78.406930
85.062981
86.416602
80.838799
67.847967
55.637956
40.418506
29.785633
19.529462
13.710856
9.026527
7.092953
5.655885
5.227923
5.065799
4.864931
4.699826
4.769564
4.715919
4.837513
4.806519
5.057454
4.644990
4.846454
4.845858
5.128980
4.756451
4.950762
5.078912
4.870892
4.912615
4.717708
5.097985
5.123615
4.837513
4.942417
4.929900
4.619956
4.782677
4.648566
4.680753
4.714727
##ZVALUE=335
0.861883
0.780821
0.846982
0.879765
0.880957
0.904799
0.872612
0.780821
0.739694
0.882745
0.878572
0.976920
0.863671
0.936985
0.963807
1.077652
0.949502
1.018643
1.124740
1.087785
0.998974
0.996590
0.980496
1.108646
1.054406
1.124740
1.116991
1.242757
1.209974
1.331568
1.344681
1.237988
1.334548
1.305938
1.462698
1.396537
1.494884
1.505613
1.474619
1.654625
1.778603
2.056956
1.854897
2.014637
2.383590
2.436638
2.725720
3.231764
3.363490
7.944703
29.941797
162.836909
304.851532
550.033450
994.936824
1015.669703
1015.669703
1015.669703
1015.669703
1015.669703
1015.669703
1015.669703
762.918591
458.405614
190.179944
83.306432
23.137927
10.438561
8.237958
8.248687
9.192824
11.015534
16.756654
23.558736
35.195947
46.225786
61.544776
71.749687
79.915524
80.730915
74.148774
66.005588
52.326918
42.070746
28.430820
20.610690
13.088584
9.816885
6.540418
5.536675
4.995465
4.860759
4.504919
4.776716
4.867911
4.545450
4.545450
4.597902
4.682541
4.681945
4.482865
4.726648
4.644990
4.820824
4.933476
4.655719
5.057454
4.900694
4.975796
4.903674
4.917979
4.509687
4.628897
4.399419
4.500747
4.371405
##ZVALUE=340
0.910759
0.782609
0.932813
0.919700
0.769496
0.952482
0.911951
0.876784
0.846982
0.772476
0.803471
0.906587
0.888705
0.793934
0.888705
0.833869
0.844598
0.903606
0.949502
1.069903
1.041889
0.935793
1.091957
1.049638
1.069903
1.034737
1.189709
1.015663
1.115799
1.093745
1.118779
1.215935
1.257658
1.160502
1.370907
1.339912
1.392961
1.552701
1.522899
1.616478
1.489520
1.741648
1.708865
1.996756
1.981854
1.938939
2.216697
2.230406
2.544522
2.803802
2.978444
4.001856
18.533468
60.209632
202.370882
412.853956
868.929625
1015.669703
1015.669703
1015.669703
1015.669703
1015.669703
1015.669703
1015.669703
932.630897
577.514768
254.817009
116.126537
29.687881
11.425614
8.524656
8.401871
8.016825
8.489490
10.916591
14.131665
22.356510
31.881928
46.118498
57.206750
68.942904
74.313879
75.412989
70.722699
61.981678
51.916838
37.805438
29.279590
19.289851
13.868809
8.959770
6.820560
5.430579
5.117655
4.995465
4.897714
4.623532
4.751682
4.674792
4.528761
4.462600
4.473925
4.680753
4.799962
4.875660
4.968643
4.835725
4.808903
4.885793
4.792809
4.758835
4.723668
4.765987
4.811883
4.701614
4.270673
##ZVALUE=345
0.900626
0.917912
0.886917
0.807643
0.785589
0.837445
0.854731
0.790954
0.879765
0.900626
0.985861
0.915527
0.816584
0.941753
0.980496
0.894666
0.941753
1.015663
0.893474
1.155734
1.100898
0.962615
1.078844
1.023412
1.027584
1.032948
1.076460
0.908971
1.085997
0.835657
1.168847
1.213551
1.116991
1.094937
1.215935
1.148582
1.183748
1.267791
1.328588
1.444817
1.464486
1.520514
1.489520
1.627803
1.600981
1.799464
1.798868
1.910925
2.069473
2.341866
2.420545
2.621412
2.882481
3.222823
8.077621
31.482577
134.816766
282.877684
613.642931
959.678888
1015.669703
1015.669703
1015.669703
1015.669703
1015.669703
1015.669703
1015.669703
741.339922
335.406661
156.995654
47.120452
18.097758
9.225607
8.411407
7.652640
7.450581
7.837415
9.482503
13.657808
19.399524
29.338598
39.216876
51.793456
60.254931
67.763925
69.487691
66.173673
59.552789
48.146844
39.605498
28.111935
20.456910
13.196468
9.624958
6.805658
5.939603
5.173683
4.925728
4.780889
4.629493
4.363656
4.532933
4.697442
4.476905
4.614592
4.704595
4.849434
4.653931
4.797578
4.705787
4.757643
4.770756
4.627705
4.441738
4.374981
4.258752
##ZVALUE=350
0.887513
0.946522
0.836849
0.729561
0.815988
0.912547
0.901818
0.773668
0.950694
0.938773
0.933409
0.868440
0.854731
0.930429
0.957847
0.729561
0.904799
0.918508
1.082420
0.981688
0.917912
1.094937
1.009703
1.044869
0.977516
1.165867
1.182556
1.087785
1.103878
1.080632
1.321435
1.101494
1.199841
1.121759
1.256466
1.220703
1.395941
1.334548
1.359582
1.533628
1.379848
1.515746
1.353621
1.441836
1.585484
1.593828
1.669526
1.635551
1.756549
1.819730
2.105832
2.110600
2.247691
2.368689
2.532601
2.896786
4.840493
16.011000
76.413751
181.539655
447.104573
769.291520
1015.669703
1015.669703
1015.669703
1015.669703
1015.669703
1015.669703
1015.669703
854.401588
424.419641
228.947401
80.548525
28.463602
9.881854
7.963777
6.728768
6.468892
6.224513
6.660819
8.606911
11.321902
18.042922
25.382638
35.739541
44.547915
55.643916
60.884953
63.704848
62.533617
54.621696
47.697425
36.117435
28.456450
19.423962
14.605522
9.753704
7.561445
5.959868
5.390644
4.866719
4.891753
4.716516
4.738569
4.738569
4.351735
5.081892
4.679561
4.738569
4.668832
4.827976
4.663467
4.199743
4.478693
4.278421
4.247427
##ZVALUE=355
0.810623
0.749826
0.778437
0.901818
0.863671
0.810623
0.945926
0.832677
0.782609
0.792742
0.878572
1.037717
1.010895
0.793934
0.906587
0.991821
1.026988
0.947714
1.091957
0.981688
0.991821
0.960827
1.064539
1.023412
0.952482
0.972748
0.997782
1.226664
1.007915
1.104474
0.917912
1.190901
1.163483
1.078844
1.171827
1.177788
1.199841
1.350641
1.367927
1.377463
1.362562
1.270771
1.466870
1.395941
1.406670
1.430511
1.414418
1.570582
1.591444
1.718998
1.918674
1.806617
2.056956
2.055764
2.278686
2.362728
2.613664
2.811551
3.320575
7.108450
42.529702
122.494698
335.609913
585.931540
1005.292535
1015.669703
1015.669703
1015.669703
1015.669703
1015.669703
1015.669703
988.912582
563.107729
305.885673
115.999579
43.958426
11.443496
7.629991
6.760955
6.380677
6.079674
5.842447
6.097555
7.394552
10.610819
15.062690
22.636652
29.967427
40.041804
48.288703
55.833459
58.265924
56.670904
52.406788
44.258833
37.210584
27.082562
20.441413
14.113784
10.337830
7.256866
6.029606
5.205870
5.080700
4.800558
4.958510
5.017519
4.852414
4.776716
4.911423
4.458427
4.708767
4.479885
4.497766
4.307628
4.014969
##ZVALUE=360
0.919700
0.875592
0.863671
0.924468
0.886917
0.857711
1.015663
0.720620
0.905991
0.968575
0.875592
0.931621
0.864863
0.978708
1.052618
0.896454
0.976920
1.066923
0.983477
0.951886
0.935793
1.071692
0.968575
1.163483
1.017451
0.888705
1.065731
0.999570
1.172423
1.076460
1.128912
1.103878
1.217723
1.144409
1.333952
1.217723
1.118779
1.226664
1.188517
1.316667
1.345873
1.481771
1.440644
1.395941
1.690984
1.633763
1.591444
1.670718
1.745820
1.771450
1.740456
1.968741
2.014637
2.058744
2.220869
2.208948
2.576709
2.583861
2.834797
3.114939
3.628731
4.900694
28.419495
101.003647
322.749615
611.248612
1015.669703
1015.669703
1015.669703
1015.669703
1015.669703
1015.669703
1015.669703
1015.669703
719.084740
422.506928
164.333582
67.041516
16.873479
8.429885
7.046461
6.604791
6.089807
5.684495
5.605817
5.893707
6.925464
8.813739
13.453960
18.231869
26.587844
34.114718
43.770671
49.744844
53.041577
53.521991
50.237775
44.748783
36.052465
29.087663
20.572543
15.580654
10.875463
8.450747
6.400943
5.674958
5.315542
5.257726
5.047917
5.044937
4.965663
4.418492
4.375577
4.305840
4.212856
4.188418
##ZVALUE=365
0.708699
0.968575
0.768900
0.868440
0.951886
0.886917
0.842810
1.022816
0.989437
0.893474
0.781417
0.708699
0.867844
0.777841
0.979900
0.994802
0.958443
0.918508
1.060963
1.055598
1.051426
1.087785
0.960827
1.052618
1.075864
0.943542
1.055598
1.058578
1.050830
1.134872
1.124740
1.138449
1.105666
1.231432
1.174808
1.189709
1.191497
1.082420
1.268983
1.337528
1.181960
1.327991
1.436472
1.443624
1.280904
1.194477
1.513958
1.409650
1.532435
1.555681
1.536608
1.701713
1.681447
1.812577
1.831651
2.018809
1.984835
2.195835
2.385974
2.551675
2.729893
2.996922
3.369451
3.638864
9.086728
32.298565
133.605003
294.209719
682.384968
1008.469462
1015.669703
1015.669703
1015.669703
1015.669703
1015.669703
1015.669703
851.061940
510.286689
219.759941
102.739930
29.601455
11.222959
6.779432
6.068945
5.818605
5.448461
4.928708
4.873872
5.323887
5.855560
8.276701
11.134744
16.617775
22.086501
29.578805
36.685467
44.088960
47.494769
48.817992
47.561526
42.330623
36.504865
28.592944
22.168756
15.569925
12.015700
8.392930
6.657839
5.701780
5.052686
4.832745
4.640818
4.205704
4.161596
3.941655
3.893971
##ZVALUE=370
0.826716
0.850558
0.904799
0.893474
0.952482
0.902414
0.893474
0.885725
0.936985
0.780821
0.799894
0.929832
0.914931
0.926852
0.922680
1.046658
0.906587
0.806451
0.910759
0.926852
0.894666
1.021624
0.899434
0.975728
0.955462
0.958443
0.831485
0.948906
0.911951
1.190901
0.992417
1.115799
1.020432
0.974536
1.125932
1.107454
1.130700
1.120567
1.126528
1.221895
1.248717
1.125932
1.181960
1.161695
1.254678
1.268983
1.367927
1.430511
1.359582
1.365542
1.588464
1.370907
1.528859
1.681447
1.525879
1.541972
1.706481
1.771450
1.836419
1.984835
2.122521
2.262592
2.320409
2.688766
2.935529
3.178716
4.875660
16.888976
89.676380
221.178532
523.600578
843.638778
1015.669703
1015.669703
1015.669703
1015.669703
1015.669703
1015.669703
964.334607
634.976625
305.076838
150.897503
48.885942
18.343925
7.051826
5.930662
5.560517
5.268455
4.910827
4.875660
4.787445
4.996657
5.867481
7.135868
10.217428
13.094544
19.589663
25.300980
33.643842
39.126873
44.071674
45.987964
44.773817
42.251945
35.373569
30.054450
22.571683
16.080737
12.631416
8.902550
7.151961
5.390644
4.748702
4.159808
3.942847
3.761649
##ZVALUE=375
0.833869
0.782609
0.863671
0.744462
0.776649
0.759959
0.767708
0.801682
0.690818
0.823736
0.876784
0.718832
0.849962
0.829697
0.853539
0.751615
0.851750
0.861883
0.888705
0.876784
0.816584
0.848770
0.987649
1.035929
1.146793
0.939965
0.850558
0.799894
1.022816
1.086593
1.020432
0.966787
1.137853
1.076460
1.015663
0.948906
0.994802
1.088977
1.000762
1.183748
1.168847
1.194477
1.125932
1.250505
1.178980
1.139641
1.225471
1.311898
1.377463
1.403689
1.235604
1.390576
1.229644
1.339912
1.317859
1.405478
1.391768
1.439452
1.575947
1.639724
1.648664
1.765490
1.787543
2.004504
2.064705
2.221465
2.638698
2.774596
3.710985
9.221435
51.364899
132.759809
355.215073
634.930730
1015.669703
1015.669703
1015.669703
1015.669703
1015.669703
1015.669703
1015.669703
852.607489
450.255871
248.459578
92.334747
36.567450
9.723902
6.207824
5.579591
5.376935
5.227923
5.347729
5.097985
5.274415
5.292892
5.662441
6.550550
8.159876
11.762977
15.691519
22.440553
28.243661
35.174489
40.047765
43.737888
43.728948
41.402578
35.514832
31.064749
23.764968
19.333959
13.893843
10.490417
7.139444
5.601645
4.475713
##ZVALUE=380
0.856519
0.752807
0.864863
0.740886
0.840425
0.781417
0.718832
0.649691
0.737906
0.631809
0.740886
0.698566
0.699759
0.862479
0.804663
0.650883
0.780821
0.689626
0.807643
0.873804
0.778437
0.950694
0.897646
1.059771
0.989437
0.895858
0.957847
0.811815
1.027584
0.985861
1.024604
0.852942
0.970960
0.898838
0.760555
0.834465
0.984669
1.135468
1.090765
1.124740
1.075864
1.055598
1.180768
1.261830
1.224875
1.122952
1.019835
1.267791
1.260638
1.247525
1.121759
1.213551
1.247525
1.258850
1.237988
1.263618
1.287460
1.347661
1.316667
1.643896
1.499653
1.517534
1.736879
1.713634
1.847744
1.840591
1.980662
2.453923
2.739429
2.854466
3.657937
5.341768
27.382970
86.614490
265.064836
496.827960
943.048000
1015.669703
1015.669703
1015.669703
1015.669703
1015.669703
1015.669703
1009.525061
609.025955
349.824429
138.583779
59.917569
15.641451
7.363558
5.902648
5.731583
5.824566
5.656481
5.493760
5.526543
5.105734
5.013943
5.103946
5.818605
7.463694
9.577870
14.573932
19.345880
26.610494
32.068491
38.349628
41.842461
42.010546
40.025711
37.144423
30.746460
25.327802
18.555522
14.332533
10.035634
##ZVALUE=385
0.792742
0.839829
0.643730
0.688434
0.805855
0.789762
0.721812
0.762939
0.769496
0.813603
0.886917
0.833869
0.630617
0.790954
0.746846
0.832677
0.839829
0.796914
0.820756
0.735521
0.775456
0.963807
0.875592
0.845790
0.894666
0.897646
0.930429
0.884533
0.898838
0.860691
0.805855
0.917912
1.001954
0.976920
0.823736
0.855923
0.914931
1.058578
1.246929
1.223683
1.153946
1.161695
1.003742
1.100898
1.043677
1.247525
1.048446
1.337528
1.058578
1.014471
1.197457
1.304746
1.325607
1.233816
1.153946
1.241565
1.352429
1.252890
1.455545
1.414418
1.451969
1.359582
1.504421
1.534820
1.473427
1.762509
1.839995
1.886487
2.219677
2.474785
2.739429
2.956986
3.247857
3.630519
11.791587
43.077469
164.881945
355.962515
765.109658
1015.669703
1015.669703
1015.669703
1015.669703
1015.669703
1015.669703
1015.669703
847.018957
534.019470
238.186717
113.919973
34.186840
11.772513
6.358624
5.872846
5.595684
5.777478
5.308986
5.210638
4.965663
4.579425
4.484653
4.519820
5.049706
6.290674
8.736849
12.061596
17.421842
23.372769
28.553605
32.231808
37.404895
38.522482
37.870407
35.371780
30.431747
24.054646
##ZVALUE=390
0.648499
0.619888
0.687838
0.820756
0.717640
0.638962
0.669956
0.673532
0.937581
0.727773
0.829697
0.899434
0.774860
0.792742
0.639558
0.626445
0.716448
0.750422
0.786781
0.732541
0.730753
0.733733
0.900626
0.817776
0.728965
0.746846
0.995994
0.962615
1.003742
0.995994
0.922680
0.952482
1.027584
1.054406
0.950694
1.089573
1.061559
1.150966
0.910759
1.091957
1.187921
1.195669
1.143813
1.124740
1.281500
1.205802
1.001954
1.098514
0.885725
1.222491
1.179576
1.083612
1.336932
1.111627
1.239777
1.350641
1.305938
1.267791
1.307726
1.341701
1.359582
1.422763
1.328588
1.428723
1.590848
1.655817
1.693964
1.994967
2.016425
2.253652
2.404451
2.493858
2.739429
2.836585
2.864599
3.188848
6.213784
24.884939
116.393566
260.903835
589.187741
948.226452
1015.669703
1015.669703
1015.669703
1015.669703
1015.669703
1015.669703
1015.669703
742.805004
349.534750
174.668431
56.821704
20.802617
7.304549
6.135702
5.674958
5.579591
5.269647
5.024672
4.878640
4.747510
4.539490
4.352927
4.499555
4.702806
5.667806
7.856488
10.055900
14.083982
18.201470
23.896694
28.460622
33.436418
35.245419
36.015511
##ZVALUE=395
0.830889
0.683665
0.650883
0.647902
0.591874
0.800490
0.633597
0.760555
0.721812
0.676513
0.640750
0.640750
0.738502
0.557899
0.727773
0.741482
0.722408
0.715852
0.776649
0.726581
0.991821
0.900626
0.917912
0.951886
0.691414
1.021624
0.916719
0.905991
0.914931
1.047850
0.986457
0.970960
1.044869
1.096725
0.990629
1.063943
1.041889
1.107454
1.081824
1.084805
1.154542
1.106858
1.146793
1.237988
1.181960
1.173615
1.300573
1.194477
1.195669
1.280904
1.166463
1.260638
1.185536
1.251698
1.271963
1.273751
1.333952
1.292825
1.236796
1.390576
1.429915
1.372695
1.456738
1.508594
1.702905
1.511574
1.769662
1.726747
1.969934
2.216697
2.404451
2.315640
2.368689
2.411604
2.559423
2.447963
2.790689
2.738833
4.079938
12.247562
70.568919
176.595449
430.201888
735.065937
1015.669703
1015.669703
1015.669703
1015.669703
1015.669703
1015.669703
1015.669703
963.769555
512.695909
269.032717
94.494820
37.881732
10.547638
6.396770
5.787611
5.438924
5.343556
5.283952
5.300641
5.235672
4.735589
4.844666
4.697442
4.643798
4.543662
5.353689
6.381869
8.457899
11.476874
16.465783
20.520687
26.235580
##ZVALUE=400
0.834465
0.848770
0.616908
0.703931
0.709891
0.613928
0.755787
0.839829
0.723600
0.792742
0.643730
0.708699
0.878572
0.717640
0.733733
0.731945
0.720620
0.670552
0.840425
0.719428
0.721812
0.864863
0.878572
0.765920
0.702739
0.947714
0.711679
0.892878
0.812411
1.031756
0.902414
0.908971
0.986457
1.097918
0.981688
1.045465
1.119971
0.915527
1.051426
0.933409
1.081824
1.085997
1.186728
1.197457
1.162887
1.064539
1.256466
1.183748
1.178980
1.212955
1.213551
1.223683
1.335740
1.245737
1.236796
1.224875
1.160502
1.220703
1.304746
1.181960
1.267791
1.364946
1.220703
1.385808
1.420975
1.524687
1.651645
1.825690
2.042651
2.026558
2.371669
2.188683
2.288818
2.275705
2.170801
2.137423
2.369881
2.416968
2.678633
2.755523
3.332496
6.521940
36.983490
106.052756
303.116441
555.382967
992.205739
1015.669703
1015.669703
1015.669703
1015.669703
1015.669703
1015.669703
1015.669703
660.404563
387.732983
161.812901
69.792867
18.722415
7.789731
5.571842
5.584955
5.676746
5.594492
5.422831
5.414486
5.265474
5.231500
4.939437
4.665852
4.455447
4.341602
4.567504
5.513430
7.064939
10.278821
##END
