##TITLE=14-1
##FORMAT=SPECTACLE-ASCII V-1.2
##DATA TYPE=ULTRAVIOLET SPECTRUM
##SECOND TYPE=ULTRAVIOLET SPECTRUM
##DATE=04/09/18
##TIME=10:58:44
##SPECTROMETER/DATA SYSTEM=SPECTACLE
##XUNITS=NM EM
##YUNITS=ENERGY
##YFACTOR=1
##FIRSTX=220
##LASTX=450
##NPOINTS=116
##3DDATA=Equidistant
##ZUNITS=NM EX
##FIRSTZ=210
##LASTZ=400
##ZPOINTS=39
##XYDATA=(Y..Y)
##ZVALUE=210
23.389459
22.729635
18.332601
14.066696
12.126565
11.275411
9.820461
8.908510
7.460713
5.783439
4.908442
4.345775
3.814697
4.164577
3.424883
4.035830
4.537702
4.264712
4.455447
5.055666
4.963875
5.650520
5.580783
6.074905
6.772876
7.276535
8.472800
8.522868
9.337664
8.476973
9.908676
11.974573
10.759830
11.680722
10.850430
11.412501
11.981726
12.640953
12.273788
11.929870
12.321472
11.578798
11.241436
13.093948
12.841821
12.722611
12.876987
14.579892
13.902783
14.151931
13.640523
13.752580
14.082789
14.079809
13.132691
14.721751
13.910532
13.300776
14.347434
13.615489
14.371872
14.780760
14.094710
15.766621
15.155673
15.954971
18.279552
18.014908
19.483566
22.198558
23.381710
28.487444
32.519698
38.794875
39.424896
39.266944
42.635798
39.566755
37.109852
36.028624
33.995509
30.620694
26.976466
24.032593
20.968914
18.344522
15.860796
14.182925
15.091896
15.968680
17.740726
23.172498
27.141571
35.154819
41.154623
50.455928
59.875846
64.650774
67.447424
75.304508
77.030659
77.855587
77.538490
72.109699
75.776577
68.072677
66.561699
61.121583
54.934621
47.892928
41.030645
31.881928
29.644966
21.406412
20.389557
18.763542
##ZVALUE=215
58.069825
55.346489
44.707656
35.666823
27.770996
21.417737
19.057989
16.518831
16.754866
14.057755
12.131929
10.216832
7.045865
5.969405
4.720688
4.191995
4.595518
3.933907
4.297495
4.110932
5.376935
5.184412
6.109476
4.858971
5.493760
6.642938
7.508993
8.597970
9.146929
8.542538
10.159612
10.226965
9.350777
9.785891
9.609461
10.541677
10.424852
12.099743
10.536909
10.723472
11.065602
10.802746
10.615587
12.137890
12.134910
11.601448
12.736917
12.356639
11.117458
11.759996
12.193918
12.044907
12.175441
11.920929
12.233853
11.605620
13.472438
12.676716
11.759996
13.683438
12.259483
11.469722
12.024641
12.014508
12.708902
12.370944
12.369752
13.242960
14.192462
16.102791
17.952919
19.992590
23.001432
23.483634
25.963783
26.671886
26.208758
24.684668
25.124550
25.560856
21.080971
18.664598
18.183589
15.879869
14.121532
12.021661
10.744929
10.700822
8.981824
9.133816
8.691549
9.089708
10.093451
10.118484
13.750792
17.215610
25.082827
31.834841
42.383671
51.985979
64.365864
74.805617
85.455775
92.011690
101.670623
102.912784
104.689002
102.655888
105.201602
98.827481
93.519688
91.191530
82.593560
69.000721
58.873892
51.931739
##ZVALUE=220
114.841461
118.261576
115.147829
101.834536
84.570646
64.857602
49.844980
36.594868
32.081604
27.458668
25.595427
24.329424
23.583770
17.869473
15.916824
10.142922
7.950664
5.882978
5.362630
4.322529
4.882812
5.274415
5.484819
5.856752
6.073713
5.686879
5.702972
6.776452
7.990599
7.787943
7.580519
8.464456
9.927750
8.815527
10.491610
9.049773
10.823607
12.154579
10.262728
10.934472
11.668801
10.465980
11.867881
11.462569
11.697412
11.402965
11.992455
12.620687
12.330413
12.093782
13.233423
12.133718
13.695955
13.255477
11.714697
14.011860
13.955832
13.273954
12.371540
12.061000
12.322664
11.945963
11.675954
13.065934
11.298656
11.046529
11.978745
12.230873
13.102889
14.459491
16.554594
17.326474
18.521547
19.956827
20.635724
22.033453
20.856857
21.626949
19.999743
18.973947
18.119812
16.774535
13.838410
13.104677
11.540651
10.128617
8.727908
8.803606
8.737445
7.427931
8.155704
7.552505
7.117987
7.820725
8.473992
7.353425
7.299781
8.442998
9.543896
11.927485
18.580556
26.671886
36.633611
48.565865
64.833760
80.166459
99.544525
116.367936
128.398538
140.216947
152.713656
159.652829
161.585808
153.991580
148.944855
134.299994
##ZVALUE=225
145.782828
152.219534
182.743669
197.768807
199.071765
186.119676
157.502890
116.172433
91.180801
61.968565
50.885677
41.263700
41.914582
41.031837
39.756894
32.425523
29.136539
20.788908
15.398860
10.520816
7.595420
5.595684
4.921556
5.538464
5.808473
5.545616
6.901622
6.165504
6.773472
7.332563
7.273555
7.147789
8.714795
9.478927
8.122921
9.199977
10.855794
10.630488
10.355711
10.695457
11.936426
11.063814
11.313558
11.981726
12.200475
12.344718
12.011528
12.701750
12.892485
13.830662
12.811422
13.164878
13.709664
14.238954
13.638735
14.663935
14.296770
14.446974
15.123487
14.114976
13.495684
12.324452
11.805892
13.612509
13.185740
11.892915
14.044642
14.580488
13.865829
14.462471
16.179681
17.051697
17.558932
20.746589
20.592809
20.691752
19.315481
20.350814
16.069412
18.053651
15.912652
15.802979
12.692809
11.601448
10.471940
9.263754
9.938478
9.014606
8.679628
8.046627
7.410645
8.007884
7.211566
7.995963
8.363724
8.827448
7.477999
7.524490
7.905960
7.814765
8.153915
8.688569
10.151863
9.952784
16.039610
20.440817
37.513971
53.924918
65.762997
92.458725
114.348531
143.925548
167.355537
191.968679
209.291577
231.008530
##ZVALUE=230
98.988414
104.700923
171.964765
222.654939
277.457833
321.140885
338.994861
323.805809
276.875496
210.476518
149.877667
95.629692
72.119832
59.920549
59.611797
61.745644
62.612891
58.261752
53.346753
38.906932
30.215979
19.091964
13.905764
8.771420
7.829666
6.419420
7.235408
7.019639
7.931590
7.433891
7.117987
7.948875
7.626414
7.790923
9.695888
9.896755
10.293722
10.026693
10.654926
12.810826
12.421608
12.065768
13.211966
13.754964
11.923909
12.570620
13.662577
14.022589
13.603568
14.184713
13.590455
15.828609
14.344454
14.422536
13.931990
15.107989
13.466477
14.370680
15.165806
13.555884
14.019608
14.470816
15.331507
13.903975
13.572574
13.639927
14.010668
14.617443
14.016628
17.257929
18.045902
18.944740
19.373894
19.543767
20.704865
21.434426
20.375848
19.724965
16.973615
17.986894
16.624928
14.982820
14.188886
12.384653
11.408925
11.171699
10.074973
8.646846
8.998513
8.601546
10.467768
9.045601
8.243918
9.372830
8.482933
9.274483
8.474588
8.814931
8.164644
8.576512
8.514524
8.577704
8.991957
8.390546
7.587671
7.831454
8.531809
9.293556
11.974573
17.965436
25.148988
42.913556
61.017871
103.448629
124.921799
170.011520
##ZVALUE=235
29.102564
31.723976
74.150562
133.587718
215.146542
319.885612
414.634943
508.126616
537.475944
507.750511
455.185771
340.499878
256.573558
163.471699
119.807720
93.330741
83.816648
87.713599
94.989538
91.407895
88.160634
71.879625
54.200888
40.782690
27.270913
16.637444
12.535453
8.995533
7.937551
8.925796
7.957816
8.545518
9.327531
9.102821
9.252429
10.432601
10.091662
9.913445
10.507703
11.320710
11.468530
11.467934
12.017488
12.049675
13.614893
12.794733
13.584495
14.195442
13.881922
14.839768
14.424920
14.237761
14.903545
14.035702
13.905764
14.725924
13.247728
13.629794
15.099645
15.544891
16.082525
13.362765
13.954639
13.906956
14.425516
13.101697
14.406443
14.835000
15.660524
17.222762
18.637776
18.527508
19.627810
22.360682
21.652579
19.738674
20.667911
20.330548
18.668771
17.815828
15.873909
14.408827
13.485551
12.518764
11.230707
11.928678
10.693669
12.474656
9.835958
9.615421
10.280609
10.135770
10.581613
10.719895
10.959506
10.087490
9.791851
10.240674
10.309815
10.360479
8.786917
9.752512
9.037852
9.014606
9.550452
8.568764
9.644628
8.571744
8.720756
7.963777
8.822680
9.747744
10.283589
13.271570
19.738674
33.893585
##ZVALUE=240
2.809763
3.251433
9.852648
25.545955
58.830976
138.203502
232.705474
388.549566
506.364703
625.173450
690.164566
687.747002
624.838471
493.264794
381.051898
243.912935
170.620680
117.786527
96.905828
102.029443
109.074712
112.715960
111.237764
98.293424
82.627535
59.316754
46.052933
34.876466
19.852519
15.095472
10.283589
8.874536
8.699894
8.955598
9.333491
9.693503
8.808970
10.386705
10.830760
10.287762
11.261702
10.993481
11.499524
11.994839
11.384487
12.758970
13.603568
12.490749
12.658834
13.204813
13.316870
12.869835
13.400912
12.189746
12.188554
14.574528
12.066960
12.406707
12.693405
13.657808
12.739897
12.576580
12.782812
11.850595
13.011694
12.883544
12.103915
12.616515
12.115836
14.365911
16.023517
18.059611
17.687678
18.786788
19.182563
18.586516
17.977953
17.106533
16.847849
16.399622
14.184713
14.100671
12.665987
11.200905
12.304783
10.413527
10.797977
9.626746
9.529591
9.734631
9.807944
9.447932
9.386539
8.914471
8.924603
9.190440
9.537935
9.405613
8.583665
9.541512
8.435845
9.925961
8.835793
8.521676
8.886456
9.523630
9.200573
9.669662
8.514524
9.381771
9.138584
8.302927
8.437634
8.652806
7.922649
9.185672
##ZVALUE=245
2.325773
2.126694
1.971722
2.077818
3.964901
18.246770
44.215918
119.545460
213.263631
371.974707
522.396564
692.106485
792.569518
827.075839
781.417489
668.104887
540.245771
357.837677
248.183608
146.545768
111.758709
100.400448
106.816888
122.288465
126.150846
116.271973
106.830597
92.335939
68.592429
52.100420
33.092499
23.560524
15.780926
11.390448
9.955764
8.266568
9.391904
8.976460
9.859800
10.068417
10.351539
11.273623
10.459423
10.632873
10.490417
11.749864
10.883808
11.344552
10.803938
11.352897
10.705590
11.823773
11.455417
9.856820
11.019707
10.653734
11.274815
10.632873
11.094809
9.342432
9.787679
10.366440
9.986758
10.543466
10.185838
10.593534
10.234714
10.344982
11.066794
11.841655
12.262464
13.934970
14.884472
15.653968
15.882850
16.158819
13.810992
14.429688
14.303923
14.123917
13.667941
12.404919
10.651946
8.670688
9.681582
8.860826
8.578897
8.361936
7.942915
8.386970
8.858442
8.041859
7.650852
8.519888
8.111596
7.241964
7.754564
8.311868
9.195805
8.080602
8.564591
7.781982
8.200407
8.425713
8.164644
8.387566
7.905960
8.157492
8.029938
9.034872
8.316636
8.483529
8.306503
7.702708
7.562637
7.809997
##ZVALUE=250
1.523495
1.785755
1.727939
1.922846
2.221465
2.070665
3.048778
11.811852
33.158660
95.223784
182.791948
356.904864
514.723659
721.619725
846.991539
938.698649
925.655961
818.751454
697.242618
486.196876
336.319804
259.615779
127.632618
97.295642
99.531412
115.828514
126.905441
131.618977
127.072930
115.142465
93.829632
73.872805
54.150820
36.814809
22.908449
16.180873
11.270642
10.393858
10.355711
10.698438
10.383725
10.869503
10.400414
10.624528
10.777712
10.438561
10.952950
10.719895
11.204481
10.050535
10.799766
10.702610
10.281801
10.329485
9.770989
10.674596
9.701848
9.775758
9.910464
9.122491
9.395480
8.920431
9.863973
9.166598
9.125471
8.758903
9.091496
9.189844
9.733438
10.132790
10.251999
11.342764
12.528896
13.085604
13.879538
14.049411
13.276935
12.639761
11.596680
10.534525
10.405779
9.684563
9.036660
8.534789
7.770658
7.552505
7.922649
7.266998
6.617904
6.673932
7.574558
7.194877
7.740855
7.361770
7.391572
6.680489
7.158518
6.580949
7.487535
7.313490
7.232428
7.819533
7.308722
7.443428
7.286668
7.474422
7.194877
7.727742
7.471442
7.537603
6.417632
7.015467
7.374883
6.605983
7.039905
7.423759
##ZVALUE=255
1.605749
1.446605
1.447797
1.933575
2.221465
1.813769
2.153516
2.175570
2.466440
6.186962
22.309422
72.394609
142.986774
302.610993
458.593965
693.119764
856.064558
1009.874940
1015.669703
988.583565
869.026780
648.289919
458.009839
262.030959
165.863633
100.563765
88.851452
99.359751
117.947459
132.417679
137.476921
134.393573
121.297836
101.829767
75.270534
56.305528
36.995411
24.893880
15.928745
12.295842
10.866523
11.431575
11.661649
10.525584
11.225939
11.465549
12.229681
11.363626
11.631846
11.529922
10.850430
10.688901
10.564923
9.389520
10.464787
10.044575
10.162592
8.955598
10.468960
9.635687
9.648800
9.087920
9.091496
8.688569
8.221865
9.000897
8.946657
8.959770
9.294748
10.246634
10.001659
10.493994
11.156797
12.185574
11.802912
11.696815
11.025667
11.685491
10.143518
10.236502
8.478761
8.268952
7.239580
7.505417
6.985664
6.487966
6.750822
6.598830
6.214976
6.766915
7.037520
6.685853
6.553531
6.584525
6.063581
5.563498
5.727410
5.923510
6.194711
6.187558
6.455779
6.279945
6.030798
5.841851
6.280541
6.757975
6.403923
5.914569
6.303787
7.018447
5.992651
6.412864
6.055832
5.951524
6.087422
6.580949
##ZVALUE=260
1.569986
1.516938
1.644492
1.456738
1.409650
1.839995
1.830459
1.725554
1.900792
2.095699
2.139807
3.753901
11.013746
44.798851
97.547770
232.867002
381.748676
636.077523
831.347704
1015.669703
1015.669703
1015.669703
1015.669703
826.863647
619.547963
374.119878
238.863826
127.923489
87.385774
81.964731
101.087689
118.412971
137.035847
143.345594
140.157938
128.062963
105.225444
82.273483
59.076548
41.471720
29.973984
18.662810
14.616847
12.646914
12.954473
11.960864
12.622476
12.598634
12.826920
12.310743
12.315512
12.038946
12.284517
12.532473
11.278987
11.748672
11.232495
10.498762
10.750890
9.541512
9.879470
10.113716
9.792447
9.593964
9.170771
8.701682
8.426905
8.836985
9.243488
9.024739
9.261966
9.953976
10.334849
11.340976
10.835528
10.770559
10.131598
9.208918
9.172559
8.784533
7.926822
7.861853
6.985664
6.933808
6.500483
5.745888
5.957484
6.048679
5.881786
5.946755
5.756617
5.524755
5.693436
5.698800
5.964637
5.365610
5.861521
5.710721
5.524755
5.780458
5.306602
5.825758
5.813837
5.352497
6.021857
5.960464
5.573630
5.510449
5.849600
5.663633
5.814433
6.008744
6.057620
5.368590
5.402565
5.849600
##ZVALUE=265
1.475811
1.470447
1.333952
1.747608
1.195669
1.468658
1.660585
1.685619
1.573563
1.811981
1.905560
2.058744
2.125502
2.767444
6.012917
29.673576
68.947673
176.459551
318.372846
600.253940
819.388032
1015.669703
1015.669703
1015.669703
1015.669703
1015.669703
776.966810
547.833443
303.059816
183.026791
97.081661
72.343946
83.281994
101.724863
130.562782
140.976906
149.671435
142.648816
127.620697
109.503865
81.279874
61.202645
41.691661
31.183958
20.544529
16.914606
14.545918
14.124513
13.714433
14.114976
13.121963
13.542771
13.601780
12.794733
12.532473
12.491941
12.569427
11.898875
11.193752
11.382699
10.916591
10.001659
9.843707
9.430647
9.879470
9.249449
9.726882
9.428859
9.190440
9.521842
10.094643
9.790659
10.242462
10.252595
10.126829
10.389686
10.270476
9.369850
8.351803
8.195639
7.633567
7.193685
7.368922
6.373525
5.792975
5.952716
5.803704
5.664825
5.897880
5.561709
5.665421
5.873442
5.730987
5.840659
5.976558
5.005598
5.009770
5.868673
5.752444
5.417466
6.052852
5.309582
5.645752
5.682707
5.545616
5.833507
5.564690
5.327463
5.797744
5.375743
5.849600
5.567670
5.832911
5.832911
5.508661
5.713701
##ZVALUE=270
1.507998
1.351833
1.302958
1.394749
1.734495
1.639724
1.536608
1.653433
1.422763
1.612902
1.600981
1.548529
1.853704
1.962781
2.072453
2.385974
3.207922
13.689995
41.832924
131.087899
250.423551
498.335958
752.816796
994.668007
1015.669703
1015.669703
1015.669703
1015.669703
975.537896
738.264918
446.479917
268.501639
126.361847
75.003505
63.563585
78.482628
107.346773
128.038526
147.516727
153.643489
147.800446
135.459900
109.588504
89.094639
62.581897
46.103001
29.786825
24.019480
18.036962
17.043948
15.854836
14.680624
14.846921
14.690757
14.295578
13.598800
13.057590
13.124943
12.102723
12.484789
11.995435
10.894537
10.295510
10.369420
10.254979
9.975433
9.390712
9.963512
10.033846
9.872913
9.897947
10.506511
10.493994
10.867715
9.991527
10.464787
9.041429
8.868575
8.557439
7.608533
7.859468
7.066727
6.851554
6.133914
5.873442
5.750656
5.350709
5.221963
5.638599
5.224943
5.571842
5.395412
5.156994
5.092621
5.029440
4.741549
5.176663
5.272627
5.432963
4.951954
5.222559
4.731417
5.601645
4.934669
5.263686
5.407929
5.479455
5.542636
5.453825
5.338788
5.520582
5.572438
5.491972
5.410910
5.240440
4.878640
##ZVALUE=275
1.197457
1.268983
1.230836
1.245737
1.303554
1.235604
1.465678
1.346469
1.406670
1.517534
1.616478
1.375675
1.769662
1.725554
1.700521
1.938939
1.960993
2.307892
2.667904
6.600618
23.574829
86.771846
188.046694
416.245461
647.413731
978.928804
1015.669703
1015.669703
1015.669703
1015.669703
1015.669703
940.671563
605.479479
374.780893
172.297955
93.994737
56.609511
59.725642
83.747506
104.948878
131.400824
145.325661
153.078437
149.551630
131.585598
113.096833
86.047649
67.213774
45.178533
32.879710
23.969412
19.447803
16.308427
15.535951
14.162660
13.856888
13.577938
13.253689
13.253689
12.721419
12.588501
12.216568
11.336803
10.725856
10.530949
10.351539
9.547472
9.564757
9.336472
10.052919
10.118484
10.396838
10.524988
10.396838
10.191798
10.252595
10.089874
9.050965
8.377433
8.842945
8.078814
7.112622
6.753802
6.393790
6.101727
5.766749
5.199909
5.370975
5.153418
5.700588
5.081892
5.378723
5.100965
5.204678
4.767776
5.145669
4.824996
5.022883
4.837513
5.004406
5.207658
5.220771
4.851818
5.019903
4.892945
4.979968
5.069971
5.210638
5.222559
5.289912
5.102754
5.333424
5.164742
5.185604
4.940629
4.815459
##ZVALUE=280
1.050830
1.176000
1.260638
1.127720
1.170635
1.092553
1.331568
1.382828
1.399517
1.282692
1.520514
1.252890
1.402497
1.356602
1.433492
1.680851
1.826882
1.720786
2.051592
2.289414
2.190471
3.902912
14.305711
64.608455
143.079758
329.420567
527.309775
773.742795
1015.669703
1015.669703
1015.669703
1015.669703
1015.669703
1015.669703
721.697807
474.217534
235.921741
124.511719
56.786537
45.434833
60.848594
79.809427
106.239915
125.513673
143.847466
150.057673
144.642591
130.523443
107.493997
86.274743
62.187910
46.289563
31.037927
22.496581
16.378760
14.390945
13.547540
12.752414
12.905598
12.045503
11.355877
11.805892
10.387897
11.090636
10.710955
10.386705
10.021925
9.776950
9.460449
9.193420
9.722710
9.947419
10.390878
10.198951
9.901524
9.841919
9.417534
9.085536
8.497834
8.206964
7.056594
7.087588
6.908774
6.047487
5.801916
5.952716
5.787611
5.361438
5.182624
5.303621
5.268455
5.195737
4.956722
4.853606
5.210638
4.984736
4.836917
4.814863
4.966855
4.795790
4.670620
4.792809
4.959702
4.675984
4.888773
4.716516
4.536510
4.640818
4.801750
4.683733
4.993677
4.490614
4.629493
4.393458
4.595518
4.203916
##ZVALUE=285
1.071692
1.127720
1.043677
1.117587
1.084805
1.158714
1.146793
1.063943
1.350641
1.312494
1.287460
1.371503
1.285672
1.535416
1.426935
1.429915
1.443624
1.552701
1.733899
1.913905
1.907945
2.211928
2.397895
2.675653
6.537437
33.513904
83.015561
174.427629
391.306877
620.403886
975.232720
1015.669703
1015.669703
1015.669703
1015.669703
1015.669703
934.950709
645.862818
338.149667
190.885663
79.210997
45.036674
39.191842
51.777959
76.373816
96.646547
120.577812
133.522749
142.813921
139.528513
126.037598
108.205676
83.305836
62.520504
42.690635
29.493570
19.468665
14.809966
11.959672
11.428595
10.618567
10.441542
9.945631
9.660721
8.945465
9.088516
9.114742
9.064674
9.193420
9.410977
9.195805
9.620786
9.635687
9.463429
9.100437
8.563995
8.576512
7.704496
7.106662
7.316470
7.175803
6.624460
6.092787
6.282926
5.905628
5.686879
5.521774
5.437732
5.257726
5.405545
5.286932
5.124807
5.206466
4.814863
5.045533
4.822612
5.104542
4.974604
4.377961
4.497766
4.779696
4.678965
4.945993
4.778504
4.548430
4.718900
4.492998
4.644990
4.759431
4.666448
4.514456
4.644990
4.396439
4.668832
4.624724
4.273653
##ZVALUE=290
1.150966
0.998974
0.929832
1.329780
1.221895
1.001954
1.022816
1.222491
1.177788
1.121759
1.329780
1.056790
1.184940
1.268983
1.260638
1.292825
1.509786
1.498461
1.699924
1.478791
1.859665
1.661777
1.973510
2.053976
2.364516
2.520680
3.153682
14.387965
44.837594
110.244751
274.061561
465.403795
811.346769
1015.669703
1015.669703
1015.669703
1015.669703
1015.669703
1015.669703
829.920769
540.072918
257.312655
130.756497
49.263835
30.289888
34.963489
47.147870
68.614483
88.683963
108.365417
128.587484
133.422613
132.737756
121.414661
101.020932
81.645846
57.936907
41.630864
26.029944
18.618703
12.337565
10.595918
8.508563
8.479953
7.896423
8.292794
7.685423
8.153915
8.156896
7.846951
8.199811
8.807778
8.960962
8.787513
9.088516
7.996559
7.544756
7.574558
6.811619
6.995797
6.312728
6.197691
5.958676
5.691648
5.916953
5.206466
5.340576
5.784631
5.288720
5.446672
4.944801
5.126595
4.939437
5.031824
5.033612
4.810691
4.640818
4.655719
4.919767
4.816651
4.719496
4.337430
4.737973
4.750490
4.636645
4.714727
4.665852
4.818439
4.443526
4.620552
4.421473
4.381537
4.316568
4.222989
4.392862
4.443526
##ZVALUE=295
1.124740
0.927448
1.018643
1.056790
0.863671
0.934601
1.002550
1.000762
1.145601
1.091957
1.353621
1.146793
1.343489
1.223683
1.136661
1.211762
1.332760
1.348853
1.127720
1.459718
1.611710
1.536608
1.632571
1.997948
2.059937
1.904964
2.430677
2.445579
2.849698
7.968545
48.847795
75.174570
164.636970
383.051038
912.458897
1013.495922
1015.669703
1015.669703
1015.669703
1015.669703
1015.669703
998.701453
644.809008
390.920639
106.151700
75.594783
30.237436
22.318959
31.104684
43.002963
63.970685
99.838972
102.614760
126.920938
128.711462
121.606588
115.031600
97.241998
78.753829
55.505633
39.920807
23.707747
16.547441
10.833740
8.974671
7.529855
7.050633
6.901622
7.070899
7.336736
7.422566
7.518530
7.757545
7.668734
7.778406
7.553697
7.673502
6.962419
6.481409
6.028414
5.954504
5.679727
5.689859
5.390644
5.541444
5.409718
5.277991
5.501509
5.156994
5.306602
5.163550
4.811883
4.978776
4.836917
5.165935
4.855990
4.930496
4.891753
4.741549
4.843473
4.701614
4.652739
4.812479
4.613996
4.773736
4.574656
4.812479
4.455447
4.764795
4.414916
4.352927
4.521608
4.185438
4.496574
4.174709
4.121661
##ZVALUE=300
0.835657
0.941753
1.072884
0.977516
0.928640
1.000762
1.035929
1.156926
0.966787
1.162887
1.140833
1.228452
0.996590
1.047850
1.068711
1.140833
1.060963
1.212955
1.377463
1.312494
1.408458
1.456738
1.369715
1.391768
1.518726
1.710653
1.901984
1.872778
2.048612
2.269745
2.477765
2.852678
10.559559
37.023425
124.137998
248.952508
523.743629
808.188915
1015.669703
1015.669703
1015.669703
1015.669703
1015.669703
1015.669703
822.880864
531.148911
260.757804
133.630633
45.202971
21.578670
18.505454
25.412440
39.353967
54.229498
77.947974
94.301701
113.362670
120.067596
117.676854
111.618638
92.816949
76.603889
54.699779
39.297938
24.740696
16.446710
10.210872
8.061528
6.612539
6.641746
6.714463
7.180572
6.942749
6.890893
6.681681
6.681681
6.482601
6.453991
5.859733
6.121993
5.633831
5.643964
5.320907
5.171895
5.294681
4.989505
5.163550
5.024672
4.909635
4.740953
4.623532
4.741549
5.035996
4.716516
4.725456
4.695654
4.760623
4.694462
4.592538
4.585981
4.592538
4.485846
4.598498
4.646778
4.697442
4.309416
4.515648
4.554987
4.660487
4.809499
4.430413
4.390478
4.512668
4.510880
4.114509
4.473925
##ZVALUE=305
0.949502
0.881553
0.813603
0.980496
0.908971
0.917912
0.945926
1.037717
0.951886
0.981688
0.949502
0.975728
1.098514
0.992417
1.024604
1.063943
1.198649
1.133680
1.202822
1.091957
1.125932
1.186728
1.240969
1.343489
1.467466
1.544952
1.543760
1.664758
1.534820
1.778603
1.893640
2.059937
2.309680
2.772808
5.354881
19.020438
81.052780
180.580020
410.173535
648.334622
998.598933
1015.669703
1015.669703
1015.669703
1015.669703
1015.669703
973.739028
683.200955
349.243879
188.140869
69.905519
29.488802
14.941692
16.336441
24.839640
34.868717
54.804683
70.477724
90.502501
103.049874
112.473965
113.395452
102.154613
91.120005
69.319606
53.751469
35.073757
23.311973
13.813972
9.976625
7.674694
7.235408
6.665587
6.489754
6.336570
6.599426
6.013513
5.704761
5.703568
5.254745
5.212426
5.380511
5.029440
5.196929
4.898906
4.856586
4.758835
4.769564
4.628897
4.594922
4.470944
4.796982
4.702806
4.850626
4.484653
4.626513
4.679561
4.448891
4.317760
4.844666
4.263520
4.515648
4.462600
4.449487
4.658699
4.302859
4.579425
4.660487
4.472733
4.295707
4.331470
4.299879
4.187822
4.324913
4.242659
4.113913
##ZVALUE=310
0.806451
0.908971
1.041889
0.836849
0.886917
0.944734
0.825524
1.072884
0.833869
0.824928
0.882745
1.029968
1.146793
1.097918
0.927448
1.085997
1.121759
1.177788
1.046658
1.071692
1.276731
1.101494
1.172423
1.272559
1.423955
1.301765
1.503825
1.464486
1.514554
1.538992
1.619458
1.745820
1.999736
2.010465
2.109408
2.584457
3.236532
8.347631
42.375922
103.073716
264.393687
460.990667
814.045668
1015.669703
1015.669703
1015.669703
1015.669703
1015.669703
1015.669703
912.322998
525.572896
305.603743
120.547414
52.637458
16.674995
11.795759
15.345812
20.060539
32.889843
45.211911
65.367818
81.449747
98.169446
106.777549
108.001828
100.678802
85.882545
71.568489
49.677491
34.874678
21.886826
15.254617
10.440946
8.123517
6.892681
6.183982
5.774498
5.409718
5.243421
4.962683
5.083680
4.795790
4.770756
4.583597
4.812479
4.631877
4.690886
4.740953
4.731417
4.765987
4.714727
4.686713
4.688501
4.541874
4.359484
4.313588
4.311800
4.556775
4.568696
4.250407
4.368424
4.603863
4.446507
4.409552
4.386902
4.476905
4.212856
4.369617
4.379749
4.277825
4.157424
4.360676
4.418492
4.363656
4.028678
4.010797
##ZVALUE=315
0.831485
0.912547
0.845790
0.990629
0.525713
0.761747
0.710487
0.743866
0.831485
0.897646
0.919700
0.962615
0.996590
1.032948
1.028776
1.075864
0.978708
0.946522
0.759959
1.096725
0.990629
0.983477
0.971556
1.106858
1.165867
1.288652
1.353621
1.283884
1.288652
1.467466
1.311898
1.455545
1.537800
1.697540
1.864433
1.803637
2.259612
2.519488
2.605915
4.219413
15.125871
68.312883
158.202648
372.251868
617.966652
993.511677
1015.669703
1015.669703
1015.669703
1015.669703
1015.669703
1015.669703
693.894625
428.636670
183.182955
83.888769
25.241971
11.684895
10.424852
12.660623
19.585490
28.019547
43.649673
57.821870
77.000856
89.315772
100.309849
100.584626
93.182921
81.118941
64.007640
49.732924
32.530427
23.157597
14.498830
10.310411
7.032752
5.966425
4.857779
4.773736
4.634857
4.529953
4.654527
4.297495
4.504919
4.326701
4.230738
4.441738
4.477501
4.481673
4.295707
4.503727
4.312992
4.260540
4.297495
4.448891
4.246831
4.226565
4.026890
4.106760
4.077554
4.099607
4.266500
4.334450
4.242659
4.335642
4.180670
4.179478
4.291534
4.283786
4.115701
4.371405
4.187822
4.145503
4.159808
3.989935
##ZVALUE=320
0.759959
0.888705
0.728965
0.770688
0.883937
0.774860
0.826716
0.769496
0.864863
0.843406
0.761747
0.919700
0.884533
0.786781
0.861883
0.843406
0.979900
0.846982
0.859499
0.966787
1.007915
1.125932
1.063943
1.189709
1.096725
1.140833
1.047850
1.203418
0.981688
1.206994
1.020432
1.274943
1.302958
1.339912
1.522899
1.590848
1.842976
1.883507
1.948476
2.248883
2.401471
2.800822
10.157824
33.792853
120.414495
245.435834
503.807664
764.356852
1015.669703
1015.669703
1015.669703
1015.669703
1015.669703
1015.669703
850.588679
555.193424
257.566571
130.597949
42.095780
16.704798
9.065866
9.491444
12.061596
16.343594
26.322603
37.306547
54.686666
69.064498
85.268617
92.716813
94.042420
90.280771
76.431632
63.853860
46.045780
33.812523
20.206571
13.783574
8.233786
5.982518
5.026460
4.762411
4.252791
4.325509
4.054904
4.160404
4.165769
4.058480
4.055500
4.111528
4.154444
4.075766
4.288554
4.404783
4.143715
4.233718
4.094839
4.291534
4.119873
4.202724
4.073977
4.024506
4.235506
4.179478
4.149675
4.154444
4.231930
4.148483
4.176497
4.311800
4.381537
4.204512
4.195571
3.826618
3.976822
3.712773
##ZVALUE=325
0.866652
0.738502
0.715852
0.613928
0.686646
0.674725
0.780821
0.766516
0.695586
0.870824
0.778437
0.838637
0.825524
0.802875
0.821948
0.756979
0.786781
0.902414
0.919700
1.023412
0.975728
0.820756
1.016855
1.130700
1.014471
0.947714
0.966787
0.955462
1.190901
1.079440
1.190901
1.309514
1.134872
1.206994
1.334548
1.519918
1.512766
1.509786
1.667738
1.774430
1.639724
2.083778
2.322793
2.463460
5.293489
20.234585
79.044700
173.465014
395.931005
634.921789
985.831022
1015.669703
1015.669703
1015.669703
1015.669703
1015.669703
913.493037
641.127825
349.137783
191.280842
67.687631
24.946928
9.122491
8.094907
8.495450
10.346770
15.990734
23.611784
38.289428
51.915646
69.251657
79.847574
87.008476
88.555813
82.850456
72.639585
56.759715
42.488575
27.557611
19.223690
11.333823
8.087754
6.034970
4.969835
4.107952
4.014969
3.953576
3.854632
3.945827
3.784895
4.026890
3.886819
3.891587
4.054904
4.137754
3.992915
3.960729
4.005432
4.016757
4.250407
4.054904
4.187822
4.266500
4.312992
4.032850
3.945827
4.417896
4.115701
4.217625
4.041791
4.006624
4.063845
4.109740
3.743768
3.725886
3.884435
##ZVALUE=330
0.791550
0.818968
0.861883
0.715852
0.747442
0.859499
0.734925
0.818968
0.778437
0.770688
0.892878
0.869632
0.894666
0.927448
0.831485
0.827909
0.870824
0.999570
1.053810
0.880957
1.020432
0.952482
0.919700
0.846982
0.933409
1.001954
0.947714
0.853539
0.916719
1.118779
1.278520
1.089573
1.225471
1.114607
1.322627
1.238585
1.399517
1.244545
1.494884
1.489520
1.595616
1.560450
1.705885
1.904964
2.092719
2.291799
3.253818
8.809566
44.877529
113.431811
285.462737
482.515693
826.669931
1015.669703
1015.669703
1015.669703
1015.669703
1015.669703
1003.184915
768.987536
432.956815
242.005587
91.396570
39.223433
11.926889
7.704496
7.246733
7.782578
10.602474
15.194416
24.371743
34.470558
49.287677
61.470866
75.055957
81.218481
81.654787
76.726675
64.257979
52.994490
37.591457
28.155446
18.060803
12.691617
7.821918
5.667806
4.244447
4.162788
3.893971
3.798604
4.158616
3.739595
3.998876
3.694892
3.983974
3.918409
3.959537
3.943443
3.974438
4.097819
3.950000
4.206896
4.065633
4.101992
3.948808
4.123449
4.075766
4.273653
4.102588
4.010797
3.993511
4.098415
4.011989
4.004836
3.984571
3.806949
##ZVALUE=335
0.802875
0.692606
0.722408
0.695586
0.691414
0.822544
0.715852
0.655651
0.700951
0.730753
0.720620
0.595450
0.718832
0.868440
0.853539
0.867844
0.686646
0.775456
0.833869
0.684857
0.740886
0.845790
0.753999
0.908971
0.855923
0.918508
0.874996
1.038909
0.990629
0.922680
1.116991
0.943542
0.972748
1.168847
1.283884
1.236796
1.215935
1.212955
1.451969
1.271963
1.180768
1.415610
1.523495
1.475811
1.560450
1.812577
1.915693
2.211928
2.323985
5.987883
21.080971
84.540844
179.885626
403.977633
649.857521
995.851755
1015.669703
1015.669703
1015.669703
1015.669703
1015.669703
814.941525
556.683540
293.217897
155.471563
53.335428
19.468665
7.761717
7.007718
6.753802
7.437468
9.935498
14.069676
22.774935
31.967759
46.647787
57.456493
69.957972
74.841976
76.462626
72.139502
61.171651
49.948692
36.723614
27.562976
17.443895
12.603998
8.095503
5.960464
4.536510
4.150867
3.667474
3.726482
3.859997
3.802776
3.820658
3.748536
3.684759
3.751516
3.882647
3.922582
3.823638
4.056692
3.975630
4.215837
4.121661
3.868937
4.189610
4.079938
4.109740
4.077554
3.950000
4.075766
3.921986
3.833771
3.708601
##ZVALUE=340
0.721812
0.785589
0.752807
0.656843
0.787973
0.650883
0.703931
0.713468
0.556707
0.792742
0.614524
0.807643
0.742674
0.833869
0.710487
0.693798
0.842810
0.873804
0.844598
0.785589
0.728965
0.890493
0.840425
0.749826
0.871420
0.834465
0.863671
0.740886
0.786781
0.862479
1.008511
0.878572
1.101494
0.975728
1.086593
1.149774
1.072884
1.159906
1.231432
1.306534
1.148582
1.338720
1.473427
1.369715
1.581907
1.384616
1.538992
1.648664
1.843572
1.951456
2.278686
2.814531
13.293624
42.249560
139.628649
279.439688
578.944683
836.798549
1015.669703
1015.669703
1015.669703
1015.669703
1015.669703
975.225568
614.241958
383.887887
173.640847
81.822872
22.570491
9.283423
6.804466
6.522536
6.515980
6.943941
9.226799
12.708902
20.323992
29.199719
43.181777
53.825974
65.561533
70.389509
71.232915
67.359805
58.909655
49.932599
35.977960
27.735829
17.878413
12.635589
8.124709
5.854964
4.911423
4.353523
4.067421
4.035830
3.820658
4.002452
3.875494
3.822446
3.750920
3.973842
3.897548
4.124641
3.864765
4.236698
4.233718
4.145503
4.220605
4.148483
3.940463
3.912449
3.862977
3.748536
3.705621
3.832579
##ZVALUE=345
0.656843
0.654459
0.689626
0.768900
0.759959
0.690818
0.717640
0.766516
0.853539
0.640750
0.673532
0.746846
0.737906
0.653863
0.645518
0.799894
0.820756
0.883937
0.704527
0.660419
0.893474
0.662804
0.790954
0.711679
0.847578
0.933409
0.731945
1.054406
0.952482
0.977516
0.883937
0.841618
0.882745
0.768900
1.014471
0.831485
1.009703
0.966787
1.225471
1.263618
1.157522
1.220703
1.177788
1.325607
1.207590
1.333952
1.399517
1.533628
1.547933
1.643896
1.685619
1.979470
2.141595
2.416968
5.546808
22.576451
95.693469
196.017623
425.489545
661.999583
993.831754
1015.669703
1015.669703
1015.669703
1015.669703
1015.669703
759.755969
497.493744
228.385925
109.285712
34.539700
13.917685
7.398725
6.631613
5.789995
6.114841
6.553531
8.067489
12.630820
17.717481
27.644634
36.957860
49.245954
57.722926
63.688755
66.267848
62.151551
57.313442
46.655536
38.149953
26.805997
19.547939
12.663603
9.064674
6.300807
5.264878
4.529953
4.245639
3.945827
3.856421
3.877878
3.867745
3.881454
4.241467
3.904700
4.139543
4.241467
4.343987
4.357696
4.182458
4.000664
4.151464
4.037619
4.013777
3.989935
3.856421
##ZVALUE=350
0.747442
0.620484
0.690818
0.713468
0.667572
0.767708
0.739694
0.543594
0.897646
0.585914
0.802875
0.697970
0.708699
0.664592
0.550747
0.625849
0.777841
0.766516
0.700951
0.741482
0.975728
0.799894
0.938773
0.923872
0.890493
0.765920
1.056790
0.819564
0.703931
0.798702
0.870824
0.878572
0.869632
1.050830
0.967979
1.171827
0.931621
0.967979
0.964999
0.976920
1.222491
1.079440
1.060963
1.236796
1.251698
1.201630
1.130700
1.408458
1.347661
1.407862
1.601577
1.584888
1.874566
1.736879
2.037883
2.105832
3.449917
11.294484
52.961707
125.831962
310.748816
530.975461
885.787010
1015.669703
1015.669703
1015.669703
1015.669703
1015.669703
836.980939
563.573837
281.675458
152.364969
56.216717
21.205544
7.789731
6.166697
5.710721
5.440712
5.308986
5.786419
7.495880
10.247827
16.801953
23.279786
33.729672
42.645931
51.944852
57.918429
61.336756
59.096813
52.181482
44.503808
34.121871
26.460886
18.513799
13.454556
9.092689
7.094741
5.233884
4.465580
4.187822
4.046559
4.024506
4.046559
4.028678
3.868937
4.116893
4.195571
4.420877
4.345775
4.172921
4.033446
4.070997
4.051924
3.835559
3.630519
##ZVALUE=355
0.740886
0.759959
0.660419
0.775456
0.708699
0.783801
0.724792
0.892878
0.752807
0.751615
0.618696
0.669956
0.811815
0.768900
0.604987
0.783801
0.655651
0.599623
0.856519
0.777841
0.806451
0.696778
0.656843
0.900626
0.835657
0.912547
0.844598
0.960827
0.888705
0.730753
0.910759
0.883937
0.818968
0.791550
0.982881
0.782609
0.957847
1.023412
0.905991
1.049638
1.038909
0.959635
0.965595
1.088977
1.070499
1.119971
1.048446
1.285672
1.347661
1.248717
1.299977
1.420975
1.427531
1.538992
1.611710
1.714826
1.906753
2.077818
2.552867
5.029440
28.551817
81.873536
227.291584
399.093628
722.097754
982.557535
1015.669703
1015.669703
1015.669703
1015.669703
922.566652
667.666793
365.864635
196.626782
75.054765
30.049682
8.659959
6.186962
5.373955
5.213618
4.837513
4.862547
5.352497
6.499887
9.492636
13.481975
21.344423
28.579831
38.480759
46.148896
53.857565
56.108832
54.782629
49.943924
42.086840
35.164952
25.871992
19.544959
13.060570
9.468794
6.616712
5.380511
4.776716
4.575849
4.500747
4.567504
4.520416
4.557967
4.565716
4.421473
4.491806
4.318953
4.223585
3.908873
3.759861
3.632903
##ZVALUE=360
0.726581
0.761747
0.713468
0.626445
0.611544
0.744462
0.598431
0.550747
0.740886
0.809431
0.696778
0.489950
0.648499
0.689626
0.493526
0.712872
0.813603
0.770688
0.702739
0.781417
0.718832
0.941753
0.613928
0.735521
0.712872
0.689626
0.787973
1.005530
0.835657
0.812411
0.693798
0.855923
0.926852
0.791550
0.860691
1.012683
0.886917
0.750422
0.925660
0.940561
0.926852
0.885725
0.972748
0.963807
1.049638
1.019835
1.111627
1.153946
1.183748
1.210570
1.209974
1.244545
1.331568
1.519918
1.442432
1.694560
1.645684
1.805425
2.006888
2.026558
2.456903
3.110766
14.056563
43.339729
141.792893
277.066827
558.940768
825.752616
1015.669703
1015.669703
1015.669703
1015.669703
1015.669703
819.516778
476.507545
277.469754
114.996433
46.442747
12.886524
6.784797
5.459785
5.171895
4.746914
4.635453
4.564524
4.816651
5.785823
7.555485
12.159944
16.707778
24.968982
32.427907
41.329861
47.338605
51.244497
51.083565
47.960877
43.049455
34.471750
27.924776
19.840598
14.535785
10.200739
7.760525
6.086826
5.253553
4.927516
4.846454
4.611611
4.356503
4.433990
4.193783
4.021525
3.890991
3.791451
3.666878
##ZVALUE=365
0.732541
0.596642
0.710487
0.782609
0.845790
0.789762
0.855923
0.717640
0.793934
0.663996
0.679493
0.777841
0.767708
0.682473
0.821948
0.801682
0.746846
0.815988
0.843406
0.805855
0.793934
1.008511
0.795722
0.837445
0.776649
0.872612
0.730753
0.802875
0.753999
0.728965
0.822544
0.808835
0.808835
0.904799
0.926852
0.863671
1.001954
0.917912
0.923872
1.072884
1.118779
1.131892
0.791550
0.949502
1.169443
0.979900
1.194477
1.068711
1.060963
1.197457
1.317859
1.166463
1.313686
1.505613
1.365542
1.493692
1.493692
1.580715
1.722574
1.678467
1.998544
2.132654
2.350807
2.621412
5.992651
21.152496
86.473823
192.237496
447.782874
710.219741
1015.669703
1015.669703
1015.669703
1015.669703
1015.669703
976.744890
626.236796
377.874970
160.575509
72.394609
20.024776
8.565784
5.696416
5.155802
4.697442
4.648566
4.260540
4.061460
4.392862
5.023479
6.976724
9.692907
15.386939
20.653605
28.838515
35.010576
42.216778
45.429468
47.075748
45.444965
40.793419
35.026670
27.538538
21.440983
15.021563
11.524558
7.938743
6.265640
5.488992
4.799962
4.554987
4.324913
4.046559
3.845692
3.714561
3.575683
##ZVALUE=370
0.660419
0.560880
0.754595
0.721812
0.692606
0.501871
0.682473
0.684857
0.626445
0.694990
0.808835
0.676513
0.726581
0.639558
0.673532
0.659823
0.715852
0.610948
0.799894
0.779629
0.686646
0.751615
0.781417
0.666976
0.787973
0.717640
0.810623
0.789762
0.774860
0.759959
0.800490
0.861883
0.807643
0.897646
0.819564
0.893474
0.881553
0.928640
0.852942
0.934601
0.958443
0.960827
1.091957
0.981688
0.806451
0.980496
0.934601
0.837445
1.040697
1.080632
1.086593
1.048446
1.316667
1.272559
1.182556
1.205802
1.299977
1.226664
1.302958
1.430511
1.432896
1.722574
1.612902
1.967549
2.127886
2.172589
3.548861
11.083484
58.766007
145.678520
355.255008
572.217703
923.705697
1015.669703
1015.669703
1015.669703
1015.669703
1015.669703
722.918510
463.169813
212.400556
105.960965
36.258698
13.739467
5.599856
5.082488
4.685521
4.560947
4.272461
4.287958
4.511476
4.500747
5.409718
6.731749
9.627938
13.239980
18.996000
24.261475
32.196641
37.666559
43.054819
45.004487
43.326616
40.331483
34.007430
28.512478
21.538734
15.859604
12.180805
8.877516
7.070899
5.571842
4.582405
4.210472
3.917813
3.659725
##ZVALUE=375
0.641942
0.685453
0.677705
0.677705
0.603795
0.541806
0.769496
0.662804
0.596642
0.724792
0.715852
0.785589
0.721812
0.650883
0.738502
0.673532
0.655651
0.714660
0.685453
0.777841
0.792742
0.671744
0.693798
0.753999
0.757575
0.882745
0.715852
0.929832
0.735521
0.783801
0.817776
0.754595
0.844598
0.932813
0.922680
0.833869
0.926852
0.952482
0.796914
0.817776
0.926852
0.802875
0.888705
0.974536
0.939965
0.991821
0.907779
0.955462
0.970960
1.043677
0.881553
0.895858
1.147985
0.949502
1.118779
1.076460
1.164675
1.147985
1.260638
1.279712
1.267791
1.351833
1.453757
1.573563
1.835823
1.846552
1.961589
2.135634
2.527833
6.145835
32.935739
85.923672
230.827928
422.395468
761.556029
1006.443501
1015.669703
1015.669703
1015.669703
1015.669703
861.847997
597.974658
324.083567
176.309943
65.876842
26.713610
7.714629
5.118847
4.816651
4.685521
4.641414
4.616976
4.914999
4.981756
5.229712
5.387664
6.385446
7.776618
11.375546
15.305877
21.380782
27.278662
34.068823
38.731694
42.504668
42.847991
40.164590
34.646988
30.148625
23.637414
18.911958
13.614893
10.036826
7.269979
5.537868
4.667640
##ZVALUE=380
0.655651
0.657439
0.762939
0.647902
0.666976
0.539422
0.824928
0.727773
0.589490
0.588894
0.511408
0.624657
0.680685
0.753999
0.533462
0.688434
0.495911
0.540614
0.685453
0.663996
0.718832
0.641942
0.640750
0.664592
0.640750
0.832677
0.689626
0.664592
0.789762
0.915527
0.843406
0.884533
0.961423
0.784993
0.737906
0.983477
0.706911
0.821948
0.900626
0.855923
0.728965
0.759959
0.819564
1.020432
0.815988
0.873804
0.721812
0.907779
0.866652
0.871420
0.876784
0.851750
0.934601
0.970960
1.095533
0.996590
1.234412
1.110435
0.882745
1.220703
1.064539
1.301765
1.237988
1.212955
1.410842
1.502633
1.593828
1.691580
1.989603
2.179742
2.360940
3.703833
17.957687
54.860711
161.888599
312.415957
620.309711
913.227797
1015.669703
1015.669703
1015.669703
1015.669703
1014.207006
780.111551
445.537567
253.884792
100.906491
43.254495
12.118816
6.269813
5.052686
5.290508
5.191565
5.299449
5.380511
5.139709
4.954934
4.894733
5.233884
5.449653
7.036924
9.389520
14.366508
19.316673
26.082993
31.503439
37.094951
40.480494
40.770769
39.590001
35.091639
30.603409
23.969412
18.978715
13.587475
9.518862
##ZVALUE=385
0.544786
0.499487
0.621676
0.562668
0.608563
0.661612
0.610948
0.740886
0.633597
0.556707
0.593662
0.611544
0.683665
0.490546
0.660419
0.558496
0.700951
0.700951
0.674725
0.544786
0.687838
0.546575
0.701547
0.715852
0.697970
0.658631
0.670552
0.716448
0.761747
0.858903
0.904799
0.906587
0.859499
0.845790
0.915527
0.838637
0.911951
0.878572
0.864863
0.824928
0.864863
0.834465
1.098514
0.938773
0.956655
0.838637
0.817776
1.075864
0.847578
0.810623
0.813603
0.890493
0.946522
0.802875
1.006722
0.943542
0.954866
0.982881
1.107454
0.955462
0.967979
0.959635
1.071692
0.952482
1.237988
1.301765
1.311898
1.450777
1.658797
1.706481
1.945496
2.242923
2.332926
2.550483
7.295609
25.661588
99.317431
219.679475
486.331582
754.113793
1015.669703
1015.669703
1015.669703
1015.669703
1015.669703
962.532759
603.338480
378.718972
166.913867
77.744722
23.904443
9.085536
5.529523
5.535483
5.316734
5.207658
4.970431
4.801750
4.578829
4.259944
4.155636
3.994703
4.858971
5.846620
8.490682
11.290908
16.932487
21.089911
27.372837
31.429529
36.075711
37.316680
36.756992
34.187436
29.521585
23.727417
##ZVALUE=390
0.612736
0.612736
0.723600
0.680685
0.577569
0.553727
0.652671
0.531673
0.586510
0.543594
0.536442
0.731945
0.714660
0.600815
0.743866
0.670552
0.672936
0.619888
0.715852
0.623465
0.657439
0.669956
0.631809
0.581741
0.558496
0.808835
0.687838
0.869632
0.700951
0.821948
0.763535
0.792742
0.728965
0.890493
1.028776
0.793934
0.859499
0.786781
0.828505
0.996590
0.917912
0.988841
0.935793
1.016855
1.066923
0.966787
0.926852
0.905991
1.061559
1.015663
0.972748
0.962615
0.893474
0.991821
0.933409
0.909567
1.030564
0.896454
0.953674
1.007915
1.029968
1.138449
1.223683
1.150966
1.237988
1.244545
1.442432
1.230836
1.775622
1.616478
1.876950
1.998544
2.011657
1.991987
2.041459
2.248883
4.244447
16.470551
72.778463
163.921714
375.474691
607.038736
955.770016
1015.669703
1015.669703
1015.669703
1015.669703
1015.669703
786.724091
529.310703
265.617967
132.345557
42.928457
15.937686
6.325841
5.556941
5.109906
5.000830
4.667640
4.664660
4.599690
4.326701
4.353523
4.068613
4.138947
4.586577
5.717874
7.762909
10.120869
13.480783
17.848611
23.330450
27.155876
32.182932
34.001470
34.835935
##ZVALUE=395
0.557899
0.729561
0.704527
0.682473
0.582933
0.508428
0.642538
0.683665
0.524521
0.802875
0.583529
0.608563
0.717640
0.660419
0.513792
0.653863
0.533462
0.472665
0.631809
0.708699
0.701547
0.741482
0.694990
0.768900
0.601411
0.738502
0.709891
0.753999
0.834465
0.834465
0.876784
0.745654
0.817776
0.917912
0.938773
0.849962
0.826716
0.824928
0.853539
0.905991
1.019835
0.955462
0.873804
0.999570
0.967979
0.928640
0.930429
0.931621
0.881553
0.941753
0.980496
1.004934
1.032948
0.986457
0.952482
0.864863
0.893474
1.034737
0.961423
0.982881
1.086593
1.132488
0.934601
1.026988
1.044869
1.122952
1.229644
1.358986
1.551509
1.650453
1.640916
1.696944
1.832843
1.760721
1.653433
1.550913
1.887679
2.163649
2.840757
8.236766
43.837428
109.368563
269.096494
461.788774
800.637603
1015.669703
1015.669703
1015.669703
1015.669703
1015.669703
944.162011
663.326979
346.488953
183.955431
65.565705
26.960969
8.621812
5.711913
5.209446
4.980564
4.714727
4.894733
4.645586
4.591942
4.502535
4.410744
4.548430
4.412532
4.540682
5.090833
6.124973
7.820725
11.387467
14.942884
19.887686
26.107430
##ZVALUE=400
0.752807
0.761747
0.698566
0.546575
0.378489
0.544786
0.579953
0.539422
0.788569
0.722408
0.607967
0.571609
0.587702
0.706911
0.603795
0.592470
0.647902
0.605583
0.592470
0.517964
0.590682
0.478625
0.623465
0.777841
0.755787
0.690818
0.779629
0.766516
0.730753
0.815988
0.793934
0.716448
0.811815
0.946522
0.912547
0.937581
0.895858
0.771880
0.889897
0.893474
0.840425
0.830889
0.954866
0.903606
1.027584
1.055598
1.025796
0.926852
1.002550
0.872612
1.054406
0.998974
0.882745
0.872612
0.891685
0.989437
0.792742
0.841618
1.003742
0.982881
1.095533
1.015663
1.095533
1.008511
1.142621
1.158714
1.105666
1.192689
1.323819
1.371503
1.629591
1.738667
1.639724
1.484752
1.648664
1.554489
1.596808
1.725554
1.830459
1.904964
2.399683
4.142523
21.171570
61.544776
180.595517
340.881944
648.628473
910.884738
1015.669703
1015.669703
1015.669703
1015.669703
995.652676
759.837627
449.323654
266.917944
111.521482
49.492717
13.889670
6.491542
4.978776
4.913807
4.690886
5.059838
4.957914
5.143881
5.115867
5.012751
4.962683
4.429817
4.331470
4.130602
4.521608
5.309582
6.733537
9.663701
##END
