##TITLE=14-3
##FORMAT=SPECTACLE-ASCII V-1.2
##DATA TYPE=ULTRAVIOLET SPECTRUM
##SECOND TYPE=ULTRAVIOLET SPECTRUM
##DATE=04/09/18
##TIME=11:05:32
##SPECTROMETER/DATA SYSTEM=SPECTACLE
##XUNITS=NM EM
##YUNITS=ENERGY
##YFACTOR=1
##FIRSTX=220
##LASTX=450
##NPOINTS=116
##3DDATA=Equidistant
##ZUNITS=NM EX
##FIRSTZ=210
##LASTZ=400
##ZPOINTS=39
##XYDATA=(Y..Y)
##ZVALUE=210
23.180842
23.576617
19.588470
12.820959
11.795759
10.631680
9.564757
9.284616
7.172823
6.355643
5.765557
4.637837
3.985763
4.438758
4.659891
4.264712
4.449487
3.813505
4.855990
5.173683
4.662871
6.746650
6.676912
7.806420
7.232428
7.604957
9.002686
9.631515
10.607839
11.017919
12.274981
11.239648
11.749864
12.685657
14.681816
13.791919
13.634562
14.375448
14.320612
13.073683
14.460683
14.992952
14.509559
15.460849
14.126897
13.866425
14.577508
14.856458
15.439987
14.769435
15.154481
14.951825
15.991926
16.028881
15.664697
15.524626
14.405847
16.538501
16.028881
15.779734
15.305877
16.136765
14.491677
17.265677
16.394854
16.111732
17.469525
18.836856
21.728873
22.732615
30.234456
34.069419
40.284991
44.880509
48.391819
52.198768
51.163435
51.262975
49.582720
48.837662
42.800903
41.548610
33.130646
30.875802
24.626851
21.278858
17.127991
16.013980
16.429424
17.884970
21.890998
26.577711
33.235550
41.775703
49.009919
58.226585
69.708824
80.585480
84.582567
90.881586
99.729896
94.466805
94.013810
89.361668
87.849498
84.381700
74.725747
68.103671
60.748458
54.332614
41.805506
36.047697
28.831959
21.886826
19.093752
21.567941
##ZVALUE=215
72.654486
72.191954
55.987835
41.078925
31.234622
25.244951
18.711686
18.505454
17.197728
15.160441
12.237430
9.523630
9.221435
6.662607
5.697608
4.773736
5.308986
4.382730
5.093813
5.902648
5.900860
5.826950
6.479621
6.331801
7.328987
8.554459
8.967519
10.399818
11.151433
10.490417
11.438727
12.210608
11.909604
12.902617
12.202859
13.960600
13.152957
13.418794
14.889836
14.829636
14.500618
14.617443
15.097857
14.863610
14.788508
15.883446
15.558600
15.163422
16.404986
14.346838
15.705824
14.691949
15.206933
15.443563
14.861822
16.957521
15.344620
17.205477
15.975833
16.896725
15.798807
17.241836
16.795993
14.957786
14.922619
16.854405
18.514991
17.350912
20.390749
25.210977
26.725531
31.999946
33.673644
36.943555
40.496588
41.652918
42.932630
41.862726
38.077831
36.415458
34.688711
29.155612
25.753975
23.213625
20.006895
17.964840
14.343858
13.207793
12.308955
11.463761
12.534857
12.163520
12.215972
14.464855
16.235709
23.301840
27.866960
40.736794
47.181845
63.928962
71.700811
83.680749
99.161863
107.042789
113.425851
125.856996
124.148726
126.644969
122.638941
117.520690
115.332603
107.367635
95.014572
80.472827
66.701770
51.088929
##ZVALUE=220
150.780678
147.976875
143.169761
125.221610
101.050735
75.872540
56.149960
35.963655
29.734969
25.907755
26.519895
25.702715
23.543835
18.713474
15.092492
11.601448
8.006692
6.085634
5.721450
5.246997
4.527569
6.145835
5.941987
6.657839
6.373525
7.648468
7.665753
7.889867
8.720756
8.897781
10.805726
10.151863
11.518598
11.026859
12.958646
13.026595
12.758970
13.532639
13.932586
13.671517
14.604926
14.565587
14.505982
14.380813
14.835000
15.920997
14.824867
14.365911
15.050769
15.387535
16.512871
16.580820
15.674829
16.032457
14.977455
15.639663
15.579462
16.586781
16.030669
18.169880
15.917420
15.256405
16.290545
14.523864
15.827417
15.964508
16.679764
15.978813
17.131567
19.575953
21.369457
25.687814
27.206540
29.630661
29.927492
30.285716
32.584667
30.395985
29.102564
26.480556
25.611520
22.395849
20.012856
19.967556
16.852617
14.245510
13.328791
10.572672
10.189414
10.372996
10.645986
10.518432
10.269880
11.233687
10.371804
10.600686
9.586811
10.981560
11.581779
15.176535
23.512840
30.668974
46.112537
57.095885
80.254674
96.947551
124.511719
144.290924
159.104466
187.854767
192.205906
195.773840
202.745795
189.458728
184.592605
169.924498
##ZVALUE=225
189.429522
194.015503
243.879557
258.765817
260.857940
239.527822
210.484862
146.924853
112.278461
70.429444
53.894520
42.624474
41.762590
41.326880
39.328933
33.654571
29.814839
20.685792
17.570853
11.560917
9.396672
7.251501
6.767511
7.272959
6.857514
7.890463
8.250475
8.367896
9.222627
9.917617
9.922981
10.269880
12.743473
9.579659
11.796951
13.894439
13.778806
13.400912
15.645623
14.873743
15.836954
17.346740
16.771555
18.552542
18.482804
17.453432
16.523600
17.178655
18.368959
19.892454
19.002557
17.909408
20.255446
19.885898
18.415451
19.575953
18.852949
18.443465
19.842982
19.453764
19.037724
18.197894
19.217730
20.053983
19.295812
17.873645
18.210411
19.825697
20.495653
21.301508
22.919774
25.584698
29.030442
31.064749
32.157898
32.422543
31.007528
31.953454
26.763678
26.112795
24.105906
22.224784
21.586418
18.372536
16.656518
16.915798
14.618635
14.374852
12.647510
12.196898
12.071729
12.992620
11.034608
11.902452
12.007952
11.797547
11.741519
11.009574
11.320710
12.742877
11.492968
10.589957
13.170838
15.221834
22.451878
30.025840
49.025416
68.437457
90.654492
119.419694
140.401721
185.812712
211.117864
252.572894
275.280476
295.663476
##ZVALUE=230
125.705600
137.674809
224.050879
293.664932
363.138914
426.720977
449.760556
410.637856
366.774797
272.024870
198.266506
117.667913
80.849528
66.505671
60.167909
66.056848
63.131452
59.014559
51.564574
40.796995
30.274987
23.759604
15.724897
11.012554
9.258986
9.021759
8.213520
8.862615
9.700656
9.212494
10.212660
10.007620
11.125803
11.537671
12.533665
12.668967
13.329983
15.656948
15.255809
16.897917
17.458797
18.450618
17.374754
17.942786
19.305944
18.218756
19.559860
19.937754
20.144582
19.268990
19.937754
19.044876
21.019578
20.545721
20.771623
22.324920
20.151734
19.379854
19.984841
21.411777
20.495653
20.269752
20.745993
19.239783
20.291805
20.817518
20.678639
21.232963
21.107793
24.077892
24.441481
28.529763
28.821826
29.043555
32.857656
33.890605
35.278797
31.367540
29.746890
26.762486
24.051666
21.557808
20.942688
18.871427
17.177463
16.351938
15.386939
14.249682
15.483499
14.780760
13.268590
14.288425
11.968613
12.810826
12.706518
12.588501
12.263656
12.575984
12.265444
12.941957
11.754632
12.602806
12.439489
12.066960
12.737513
13.560653
12.000799
13.680458
15.875697
25.203824
35.537481
55.421591
78.763962
125.509501
156.289935
210.318565
##ZVALUE=235
32.466650
37.824512
90.723634
163.770914
268.809795
421.596766
530.301929
664.379597
702.884793
690.693855
624.307990
481.436849
365.194678
223.034620
156.497955
108.677745
91.668963
91.002584
91.130733
92.862844
86.312890
74.156523
56.718588
42.201877
26.962757
22.332668
14.007688
12.354851
11.135936
10.285974
12.460947
12.817979
11.606812
12.310743
13.207793
13.713837
14.012456
17.479658
16.089678
16.417503
15.576482
17.155409
18.018484
19.413829
19.601583
19.163489
18.629432
19.733906
19.256473
19.244552
19.070506
19.818544
19.274950
22.677779
21.241903
20.770431
20.819902
20.476580
20.594597
18.970966
21.600723
21.819472
20.358562
20.168424
20.630956
20.447969
19.639730
21.283627
24.069548
26.314855
25.835633
29.266477
31.218529
33.446550
34.175515
35.521984
34.669638
32.275915
33.202767
26.963949
26.723742
25.236607
23.104548
19.350648
18.028617
17.356873
16.815662
15.362501
16.128421
14.836788
15.281439
14.382601
14.716983
13.709664
13.576746
13.032556
12.651682
14.978647
14.134645
14.046431
14.999509
13.510585
13.905764
13.973713
13.219714
14.312863
13.554692
14.864802
14.403462
12.723804
13.140440
13.655424
14.742613
17.896891
26.878715
43.690801
##ZVALUE=240
2.717972
3.602505
12.736917
32.500625
76.288581
176.437497
286.943913
512.281656
673.468709
859.321952
941.515565
934.161544
868.022442
705.287457
557.313561
376.644731
265.453458
171.166658
127.895474
110.211968
113.485456
119.031668
115.716457
106.789470
86.193681
66.736937
48.123598
35.267472
22.647977
17.042756
13.914704
12.701750
12.715459
13.349652
14.177561
12.108684
15.735626
14.430881
15.826821
15.903711
16.200542
15.894771
15.585423
16.751885
16.315579
16.654730
18.513799
18.553734
19.544959
16.113520
16.227961
18.062592
18.966794
18.465519
18.289685
17.313957
17.605424
16.851425
17.569661
17.930865
18.069744
18.171668
19.383430
17.988682
17.365813
16.206503
17.119646
19.123554
19.942522
21.631718
22.549629
24.639964
30.807853
30.347705
30.936599
31.771660
28.614998
31.285882
27.860999
25.939941
22.341609
22.450686
21.240711
19.487739
16.417503
16.266704
15.912652
14.752746
15.391707
14.495850
14.479756
14.725924
13.274550
13.472438
13.033748
13.674498
14.968514
11.924505
12.599826
12.666583
12.460947
13.071895
12.866855
13.534427
12.842417
12.074709
12.339950
11.825562
11.973977
12.616515
11.934638
12.937784
12.351871
12.637973
12.480617
13.225675
##ZVALUE=245
2.119541
2.100468
2.522469
3.001690
5.064607
23.650527
60.725808
159.683824
279.085636
501.716733
692.929626
939.984918
1015.669703
1015.669703
1015.669703
946.078897
765.005946
537.766814
382.294655
217.494965
153.425932
113.463998
113.772750
127.812624
130.303502
123.140812
113.019943
96.330643
73.301792
57.901740
36.825538
26.532412
16.852617
13.528466
13.089776
12.988448
11.475682
11.667609
13.852715
13.758540
14.638901
13.386607
14.986992
14.660954
15.062690
15.042424
15.504956
15.538931
15.114546
15.776753
15.321970
14.218688
15.121698
14.706850
14.816523
14.371872
14.420748
14.326572
14.475584
14.549494
14.998913
14.372468
14.837980
14.335513
14.751554
15.361905
16.019940
14.956594
16.598701
17.214417
18.944740
19.495487
22.179484
22.708774
25.122762
22.732615
22.999644
23.043752
21.918416
19.538999
17.400980
17.054677
15.158653
13.623834
13.003945
13.440847
12.237430
12.192726
11.649728
11.275411
12.012720
11.695623
10.927916
11.874437
10.643601
11.441708
10.459423
10.100603
11.260509
10.939837
11.088848
11.289716
10.459423
11.314750
11.366606
11.246800
11.388659
11.239648
10.519624
11.277795
12.067556
11.132956
10.398626
11.593699
11.347532
10.386705
##ZVALUE=250
2.109408
2.066493
2.024770
2.041459
2.195835
2.720952
3.142953
14.381409
42.500496
125.221610
237.751603
474.396944
680.332780
972.111821
1015.669703
1015.669703
1015.669703
1015.669703
1009.872556
716.508031
502.270460
289.198756
177.160501
120.836496
106.037855
117.609501
131.589770
136.925578
129.163861
120.065808
98.806620
80.368519
57.106614
40.970445
24.850965
17.351508
14.840961
12.411475
12.123585
12.891889
12.587905
13.907552
13.213754
13.352633
13.259649
14.820695
14.734864
15.066862
14.181733
13.929605
14.575720
14.010668
14.288425
14.001727
13.168454
14.073849
12.565851
13.377666
12.702942
13.781786
12.938976
13.098717
13.145804
13.319850
13.499856
14.038682
14.388561
13.859868
15.148520
15.060902
16.280413
17.090440
18.303990
19.683838
20.584464
20.066500
19.644499
19.444823
17.615557
17.064810
14.233589
13.798475
13.259649
12.782812
11.346936
12.283921
10.893941
10.679960
9.608865
9.096861
10.352731
9.689927
10.268688
9.715557
9.122491
10.664463
9.925961
10.127425
9.555817
9.396672
10.796785
10.169744
9.741783
8.776784
9.638667
9.798408
9.744763
9.581447
9.510517
9.119511
9.671450
9.872913
9.735823
9.941459
9.038448
9.172559
##ZVALUE=255
1.819730
1.632571
1.667738
2.002716
2.110600
2.171993
2.409816
2.564788
2.992749
7.625818
25.787950
92.810988
195.151567
407.559872
621.970892
946.238637
1015.669703
1015.669703
1015.669703
1015.669703
1015.669703
896.652937
638.988018
353.544950
216.299891
119.059682
96.482635
101.763606
123.180747
137.900710
143.915415
142.015815
125.479698
108.290911
79.426765
61.374903
39.559603
28.372407
18.754601
16.368628
13.690591
14.535785
14.517903
15.096664
15.364885
15.950799
15.044808
15.469790
15.513897
14.391541
14.916658
14.931560
15.479922
14.084578
14.067888
14.701486
14.578700
14.397502
14.101863
13.842583
13.047457
13.255477
12.977719
13.298988
13.507605
13.635755
12.526512
12.903810
14.391541
13.355613
15.082955
14.801621
16.380548
17.359853
16.952753
17.392635
15.090704
14.649630
14.944673
14.252663
12.842417
11.652708
11.182427
11.330843
9.738803
9.047985
9.419918
9.882450
8.833408
8.958578
9.345412
8.783937
8.572936
8.421540
8.371472
9.060502
8.981824
8.287430
8.392930
8.379817
8.002520
8.417964
8.284450
8.193851
7.933974
8.951426
7.508993
8.524656
9.002686
8.226633
8.466840
8.498430
7.418990
8.247495
7.928610
8.201599
##ZVALUE=260
1.883507
1.588464
2.057552
1.993775
1.964569
1.782775
2.182722
2.242923
2.434850
2.891421
2.759695
4.182458
14.600754
60.218573
128.977895
313.409567
521.394014
869.757533
1015.669703
1015.669703
1015.669703
1015.669703
1015.669703
1015.669703
847.790837
489.653945
299.585462
147.714615
97.166896
87.807775
105.308890
122.775435
143.341422
148.511529
145.733953
133.122802
111.322999
91.024637
63.056946
46.064854
34.718513
23.999810
19.563437
18.008947
17.701983
17.651916
16.854405
17.150640
16.878843
16.387701
16.399622
16.405582
16.226768
16.002655
15.969872
15.443563
15.225410
14.558434
15.247464
14.546514
14.503598
14.286637
14.212728
13.962984
13.762712
13.626814
13.811588
13.219714
13.694763
14.281869
14.926791
15.308857
16.251802
16.746521
16.900897
16.538501
15.067458
14.978647
13.445616
11.975765
12.389421
11.132956
10.400414
10.081530
9.696484
9.028912
8.303523
8.542538
8.498430
8.883476
8.140802
7.844567
7.541776
7.964969
7.660985
7.937551
7.737875
8.147955
7.344484
8.107424
7.803440
7.669926
7.345676
7.299781
7.751584
7.664561
7.411838
7.299781
7.748604
7.543564
8.009672
7.516742
7.273555
8.087754
7.680655
7.454753
##ZVALUE=265
1.736879
1.661777
1.582503
1.927614
1.782775
1.677871
1.726747
1.839995
1.721978
2.181530
2.431870
2.753735
2.560616
3.494620
7.666945
38.746595
98.621845
249.719620
438.397527
818.321705
1015.669703
1015.669703
1015.669703
1015.669703
1015.669703
1015.669703
1015.669703
787.630677
421.611667
243.096948
116.994977
81.450939
88.674426
108.786821
134.948492
148.624778
154.979825
151.840448
135.131478
116.358995
89.509487
69.484711
46.993494
35.530925
25.676489
22.534728
20.578504
18.862486
18.811822
20.191669
19.762516
19.167662
18.395782
18.415451
18.300414
17.496943
17.010570
17.713904
16.527772
17.313957
16.240478
15.764832
15.718937
14.245510
14.889836
14.780760
14.804602
13.553500
13.895631
14.251471
15.761852
15.453696
16.032457
16.517639
16.578436
15.048981
14.794469
14.073849
12.582541
12.254715
11.066794
11.085868
10.649562
9.686947
9.532571
8.586645
8.050799
8.572936
7.826686
7.834435
7.478595
7.200837
7.467866
7.417798
7.532835
7.190704
7.561445
6.752610
6.724596
7.083416
7.026792
7.578731
6.931424
7.246733
7.005930
7.587671
7.394552
6.883740
6.981492
6.965995
7.194877
6.957650
7.224679
6.305575
7.004738
6.571412
##ZVALUE=270
1.303554
1.483560
1.529455
1.533628
1.394749
1.783967
1.738667
1.854897
1.695752
1.997948
1.890659
1.917481
2.367496
2.212524
2.662539
3.146529
3.952980
18.084645
53.059459
173.471570
339.944363
677.477717
991.064906
1015.669703
1015.669703
1015.669703
1015.669703
1015.669703
1015.669703
994.753838
621.597767
378.546715
175.502896
96.361637
72.432756
84.581971
114.076734
135.977864
154.283643
160.815716
157.167912
143.842697
118.675828
97.496510
68.881512
53.329468
37.437677
29.855967
24.886727
22.595525
21.080971
20.956993
20.133853
20.441413
20.421743
18.947721
18.885732
19.001961
17.853975
17.511845
17.639995
17.649531
15.610456
15.524626
15.287995
15.416741
15.058517
14.456511
14.531612
15.261769
14.913678
15.946627
15.930533
15.749931
15.323758
14.964938
15.114546
13.495684
12.635589
11.768937
11.065602
10.104775
9.966493
9.455681
8.825660
8.535981
8.325577
8.210540
7.867813
7.530451
7.618666
8.225441
7.402897
7.201433
7.035732
7.287860
7.022619
6.870627
6.985664
6.785989
7.306933
7.100701
7.323623
7.232428
6.683469
7.142425
7.328987
6.874800
6.919503
6.675720
6.915927
6.495714
6.650686
6.628633
6.252527
6.684661
##ZVALUE=275
1.335740
1.560450
1.501441
1.395941
1.655817
1.479983
1.592636
1.805425
1.749992
1.640916
1.665950
1.822710
1.726747
2.086759
2.012849
2.213717
2.309680
2.540946
3.088713
8.180737
30.665398
84.262490
256.244540
490.350723
910.052657
1015.669703
1015.669703
1015.669703
1015.669703
1015.669703
1015.669703
1015.669703
860.432982
543.141961
254.477859
134.068727
68.205595
66.505671
89.843869
110.261440
138.028860
153.843760
163.971782
157.099962
140.942931
123.264790
96.478462
74.681640
52.866936
39.580464
29.215813
24.752617
21.935701
20.779967
19.047856
20.139813
19.204617
18.323660
18.132925
18.039942
17.516613
16.410947
16.585588
15.704632
15.520453
15.771985
14.458895
15.176535
15.315413
15.071630
15.090704
15.019774
15.525818
15.480518
14.722943
14.701486
14.029741
13.276935
12.445450
11.673570
10.536909
10.406971
9.773970
9.329915
8.615851
8.476973
8.239746
7.857680
7.616878
7.657409
7.386804
7.269979
6.999969
6.793737
6.635785
6.700754
6.562471
6.259680
7.072687
6.977916
6.887913
6.856918
6.563663
6.923676
6.583929
6.647706
6.303787
6.174445
6.433725
6.361604
6.118417
6.400943
6.107688
5.855560
6.315708
6.045699
##ZVALUE=280
1.099706
1.263618
1.390576
1.231432
1.258850
1.313686
1.405478
1.626611
1.635551
1.716614
1.583695
1.595616
1.778603
1.772642
1.665950
1.814961
1.780987
2.352595
2.372861
2.560616
3.041625
4.781485
16.951561
82.557797
188.787580
432.107449
694.520473
988.816023
1015.669703
1015.669703
1015.669703
1015.669703
1015.669703
1015.669703
960.071683
642.145872
320.058465
169.333816
72.179437
54.137707
65.297484
84.120631
111.651421
131.892562
150.827765
156.890750
153.042674
139.103532
112.794638
94.276667
68.295002
51.241517
35.585761
27.172565
21.112561
19.180775
17.522573
18.159747
17.268658
17.506480
15.984774
15.942454
15.688539
14.848709
15.088916
14.341474
14.743805
13.880730
14.046431
14.138818
14.410615
14.011860
13.786554
14.326572
13.317466
13.684630
12.840629
11.976957
11.538863
11.252761
10.055900
9.491444
9.098649
8.974671
8.834600
8.004904
7.687807
7.395744
7.247925
7.521510
7.322431
6.995797
6.827712
6.386638
6.773472
6.550550
6.490946
6.297827
6.795526
6.359816
6.180406
6.162524
6.462932
6.547570
6.110668
6.654859
6.122589
6.160736
6.143451
5.936623
6.028414
5.598664
5.946755
5.606413
5.685687
5.828738
##ZVALUE=285
1.297593
1.357794
1.295805
1.337528
1.509786
1.327991
1.438856
1.395941
1.219511
1.396537
1.518726
1.462698
1.469851
1.613498
1.630783
1.797676
1.763701
1.811981
1.851916
2.091527
2.327561
2.369881
2.754927
3.119707
9.128451
32.212734
114.848614
246.461630
530.429482
833.135843
1015.669703
1015.669703
1015.669703
1015.669703
1015.669703
1015.669703
1015.669703
862.571597
453.856587
256.493688
105.858445
54.958463
44.220686
56.522489
81.236959
100.598931
125.964880
139.514804
149.614811
145.769715
131.798983
114.728808
87.463856
68.792701
47.368407
35.026670
23.890734
19.874573
16.606450
15.016794
14.558434
14.634728
13.725758
13.998747
13.866425
13.011694
13.441443
12.858510
12.846589
13.232827
12.535453
13.093948
13.694763
12.969971
13.031960
12.160540
11.453629
11.615753
10.777712
10.234714
9.933710
9.216666
8.222461
8.673668
7.806420
7.939935
7.522702
7.350445
7.338524
7.146597
7.296801
6.561875
6.804466
6.541610
6.430745
6.624460
6.451607
6.127954
6.169677
6.049871
6.282926
5.936623
6.043911
6.058812
6.304979
6.486773
6.110668
6.111860
6.052852
5.848408
5.906820
5.554557
6.053448
6.081462
5.640984
5.291700
##ZVALUE=290
1.223683
1.193881
1.211762
1.291633
1.208782
1.286864
1.247525
1.300573
1.296997
1.399517
1.179576
1.358986
1.507998
1.484752
1.416802
1.380444
1.752973
1.715422
1.860857
1.861453
1.960993
2.114773
2.192855
2.410412
2.583861
3.111959
4.105568
20.240545
64.008832
154.756904
380.021930
641.175508
1015.669703
1015.669703
1015.669703
1015.669703
1015.669703
1015.669703
1015.669703
1015.462875
712.791681
348.318815
174.195766
64.184666
35.083890
37.526488
51.022768
71.471930
92.718601
111.882687
133.170485
140.562654
137.843490
128.777623
105.441809
86.012483
60.811639
44.765472
29.753447
22.106767
16.177893
13.368726
11.999607
11.919737
11.614561
11.136532
11.028647
11.305809
10.925531
11.577606
11.981726
11.394620
11.693835
11.819601
11.371970
10.918975
10.689497
10.363460
10.140538
9.085536
8.662939
8.608699
7.931590
7.931590
7.477999
7.483959
7.098913
6.765723
7.072687
7.018447
6.724596
6.463528
6.544590
6.805658
6.333590
6.427765
5.999804
6.058812
6.054640
5.789995
6.136894
5.905628
5.902648
6.171465
5.699992
6.162524
6.207824
6.013513
6.094575
5.589724
5.359650
5.734563
5.544424
5.277991
5.680919
5.691648
##ZVALUE=295
1.093745
1.195669
1.069903
1.046658
1.177788
1.085997
1.176596
1.367927
1.186728
1.187921
1.496673
1.413822
1.250505
1.379848
1.350641
1.315475
1.705885
1.519918
1.534820
1.485944
1.655817
1.965761
1.921654
2.261996
2.470613
2.487898
2.603531
3.003478
3.337860
5.829930
34.637451
98.585486
275.141597
514.386892
956.856012
1015.669703
1015.669703
1015.669703
1015.669703
1015.669703
1015.669703
1015.669703
903.636813
475.608706
261.097550
94.198585
43.619871
25.966763
31.468868
43.165684
65.716505
84.242821
108.527541
123.405457
134.575963
131.464005
118.179917
102.364421
77.997446
60.614944
40.263534
29.268861
18.757582
13.989806
11.095405
10.217428
10.017753
9.615421
9.304881
10.021925
10.033846
10.059476
10.598898
10.484457
10.191798
10.446906
9.763837
8.903742
8.615851
8.242726
7.875562
7.666945
7.557869
7.180572
7.269979
7.003546
6.826520
7.107854
6.733537
6.528497
6.410480
6.113648
6.062984
6.184578
6.411672
6.408691
6.440878
6.175637
6.066561
6.066561
5.904436
5.996823
6.076694
6.223917
6.089807
6.082654
6.025434
6.159544
5.809665
5.893707
5.890727
5.585551
5.946755
5.455613
5.509853
5.519986
##ZVALUE=300
1.181960
1.146793
1.232624
1.203418
1.096725
1.259446
1.137853
1.154542
1.199841
1.149774
1.323819
1.260638
1.083612
1.220703
1.480579
1.442432
1.405478
1.553893
1.568794
1.599789
1.660585
1.698732
1.886487
1.995564
1.932979
1.826882
2.271533
2.385974
2.844930
2.783537
3.403425
4.332662
18.934608
70.016980
232.053995
440.186858
884.831548
1015.669703
1015.669703
1015.669703
1015.669703
1015.669703
1015.669703
1015.669703
999.932885
677.295923
334.568620
173.735619
58.633685
26.875734
20.926595
27.565956
42.560697
58.222413
80.854893
98.844767
117.556453
124.410987
123.598576
114.992857
96.674562
80.372691
56.237578
42.007565
26.805997
19.072890
12.438893
10.054708
9.044409
8.412600
9.179711
9.379983
9.490848
9.611845
9.400845
9.210706
8.897781
8.913875
7.783771
7.862449
7.436872
7.421970
6.779432
6.834865
6.856918
6.845593
6.853938
6.474853
6.297827
6.638765
6.080866
6.376505
6.241798
6.344914
6.091595
6.151795
6.219745
6.258488
6.115437
6.089807
5.757809
5.695820
6.265640
6.169677
5.891919
5.999804
6.056428
5.781651
5.961657
5.748868
5.968809
5.842447
5.991459
5.941987
5.577803
5.557537
##ZVALUE=305
0.982881
1.060963
1.025796
1.153946
1.048446
1.237988
1.099706
1.044869
1.263618
1.221895
1.169443
1.190901
1.236796
1.357794
1.313686
1.407862
1.334548
1.400709
1.436472
1.322627
1.518726
1.492500
1.803637
1.764894
1.636744
1.999736
1.921654
2.178550
2.441406
2.602935
2.759695
2.893806
3.606677
4.033446
9.567738
40.965676
173.300505
373.104811
806.501508
1015.669703
1015.669703
1015.669703
1015.669703
1015.669703
1015.669703
1015.669703
1015.669703
845.220685
513.146520
277.408957
101.128817
41.147470
17.492771
18.769503
26.797652
37.675500
58.216453
73.336959
96.753836
109.230876
119.784474
118.848681
107.503533
94.620585
72.319508
56.400895
38.204789
26.012659
16.821623
12.882948
11.001825
10.284781
9.643435
9.661913
9.016991
8.919835
8.488894
8.083582
7.922649
7.264614
7.152557
7.566810
6.909966
7.399917
6.880760
6.633997
6.478429
6.503463
6.464720
6.376505
6.404519
6.151795
6.365776
6.167889
5.976558
6.364584
6.265640
6.192923
5.982518
6.047487
6.289482
6.122589
6.289482
6.412864
5.865693
5.971789
6.070733
6.150603
6.142855
6.248951
6.007552
5.966425
5.645752
5.781651
5.830526
5.625486
##ZVALUE=310
1.116991
1.122952
1.168847
1.229644
1.167655
1.061559
1.231432
1.071692
1.068711
0.987649
1.151562
1.144409
1.199841
1.192689
1.143813
1.242757
1.171827
1.345873
1.314878
1.400709
1.473427
1.530647
1.584888
1.668930
1.726747
1.835823
1.763701
1.972914
2.068877
2.082586
2.447963
2.526641
2.910495
2.861619
3.690720
3.819466
5.240440
15.414953
94.663501
247.560740
518.248677
1015.669703
1015.669703
1015.669703
1015.669703
1015.669703
1015.669703
1015.669703
1015.669703
1015.669703
719.146729
411.285758
167.876482
72.951913
22.114515
15.110970
18.156767
23.063421
36.258698
48.088431
69.282651
85.027814
101.923943
111.011863
110.485554
105.728507
90.737939
74.395537
52.975416
40.158629
26.453733
19.767880
13.559461
11.573434
9.985566
8.927584
8.875728
8.051991
7.449985
7.217526
7.219911
6.999969
6.761551
6.833673
6.695986
6.922483
6.719828
6.497502
6.655455
6.597638
6.303787
6.637573
6.686449
6.516576
6.315708
6.370544
5.999804
5.889535
6.212592
6.073713
5.883574
6.554723
6.163716
5.809665
6.342530
6.099939
6.355643
6.148815
6.162524
6.162524
6.231666
6.464720
6.033778
5.947948
5.480647
5.671978
##ZVALUE=315
1.037717
1.040697
1.048446
1.040697
1.035929
1.030564
0.952482
0.990629
1.120567
1.162887
1.193881
1.183748
1.204610
1.213551
1.307726
1.261830
1.370907
1.176000
1.406670
1.390576
1.393557
1.564622
1.493692
1.630783
1.626611
1.819730
1.834631
1.851916
1.922846
2.053976
2.059937
2.200603
2.342463
2.500415
2.675653
2.908707
3.135800
3.710985
4.381537
6.819963
37.238598
118.717551
385.300517
736.252666
1015.669703
1015.669703
1015.669703
1015.669703
1015.669703
1015.669703
1015.669703
1015.669703
953.577757
559.871793
240.427852
108.639598
30.766726
15.959740
13.790727
16.173720
22.936463
31.552911
47.841668
61.210990
81.474781
94.077587
105.162859
106.608868
97.452998
86.178780
67.086816
54.072738
37.946701
26.903749
17.618537
13.348460
9.625554
8.555651
7.967949
7.458925
7.010698
6.839633
6.900430
6.777644
6.772876
6.778836
6.597638
6.679893
6.654859
6.767511
6.469488
6.501675
6.571412
6.593466
6.369948
6.337762
6.735921
6.553531
6.308556
6.484985
6.319880
6.217957
6.424785
6.007552
6.395578
6.400943
6.478429
6.327629
6.155968
6.687641
6.068945
6.222725
5.910993
6.039739
5.842447
5.652905
##ZVALUE=320
1.125932
1.096725
1.071692
0.989437
1.171827
0.989437
1.025796
1.115799
1.076460
1.167655
1.039505
1.246929
1.274943
1.146793
1.093745
1.182556
1.064539
1.180768
1.237988
1.207590
1.323819
1.428723
1.523495
1.348853
1.494884
1.461506
1.669526
1.649857
1.893640
1.883507
1.927614
1.893640
2.204776
2.211928
2.278686
2.376437
2.543926
2.783537
3.089905
3.286600
3.823638
4.427433
15.721917
50.883889
199.020505
432.578921
940.907001
1015.669703
1015.669703
1015.669703
1015.669703
1015.669703
1015.669703
1015.669703
1015.669703
928.586721
367.519855
174.499750
58.832765
23.714900
12.762547
12.229681
14.903545
19.284487
29.321909
40.959716
57.135820
71.860552
89.953542
99.125504
100.854635
95.333457
82.910657
68.498850
50.909519
37.693977
24.456978
17.147660
11.156797
8.964539
7.471442
6.917715
6.607771
6.578565
6.249547
6.188750
6.264448
6.390810
6.408691
6.081462
6.471872
6.302595
6.152987
6.571412
6.193519
6.304979
6.213784
6.164908
6.254911
6.389618
6.555915
6.317496
6.504655
6.376505
6.429553
6.588697
6.534457
6.382465
6.455779
6.596446
6.217957
5.964637
6.151795
6.022453
6.078482
6.114841
##ZVALUE=325
0.960827
0.853539
0.945926
0.983477
1.077652
1.021624
1.099706
1.079440
1.002550
1.140833
1.166463
1.110435
0.980496
1.123548
1.164675
1.141429
1.215935
1.168847
1.351833
1.182556
1.351833
1.302958
1.421571
1.389980
1.468658
1.541972
1.413822
1.601577
1.802444
1.706481
1.716614
1.692772
1.837611
1.841784
2.032518
2.163649
2.143979
2.412796
2.704859
2.893806
3.019571
3.249645
3.729463
4.330873
7.033944
39.540529
106.308460
296.740532
575.397611
968.571901
1015.669703
1015.669703
1015.669703
1015.669703
1015.669703
1015.669703
1015.669703
1015.669703
656.601787
303.188562
93.476772
35.164952
13.574958
11.500716
11.856556
13.554692
19.397736
26.698709
42.378902
55.418611
72.745681
84.406734
94.002485
95.244646
87.581873
77.354908
60.852766
47.071576
31.433702
22.019744
14.082789
10.257959
7.785559
7.003546
6.513000
6.063581
6.132722
5.948544
6.232858
5.997419
6.396770
6.323457
6.159544
6.427765
6.292462
6.157756
6.262660
6.422997
6.331801
6.563663
6.168485
6.349683
6.132722
6.171465
6.550550
6.602407
6.642938
6.491542
6.520748
6.475449
6.529689
6.139874
6.233454
6.152987
6.172657
5.653501
##ZVALUE=330
1.043677
0.957847
0.852942
1.099706
1.021624
0.991821
1.019835
1.146793
1.082420
1.066923
1.120567
1.038909
1.050830
1.108646
1.115799
1.120567
1.159906
1.051426
1.200438
1.122952
1.256466
1.169443
1.384616
1.394749
1.446605
1.503825
1.553893
1.471639
1.729727
1.491904
1.569986
1.648664
1.787543
1.743436
1.794696
1.799464
2.253652
2.244711
2.161860
2.407432
2.534986
2.538562
2.869964
3.323555
3.508925
3.973842
5.477667
14.860630
70.523620
170.860887
434.349775
754.966736
1015.669703
1015.669703
1015.669703
1015.669703
1015.669703
1015.669703
1015.669703
1015.669703
1015.669703
714.180470
201.910734
70.217848
19.721985
12.916923
11.576414
12.127757
14.895797
19.356608
29.110909
38.748980
55.548549
67.486763
81.462860
87.097883
87.514520
82.353950
69.586635
57.546496
42.112470
31.442642
21.174550
15.098453
10.670424
8.331537
6.984472
6.360412
6.241798
6.149411
6.271601
6.264448
6.369948
6.585717
6.489754
6.527901
6.409883
6.434917
6.314516
6.421804
6.308556
6.681681
6.458759
6.946921
6.735921
6.893873
6.742477
6.865859
6.774664
6.636977
6.718636
6.708503
6.532669
6.263852
6.372929
5.985498
##ZVALUE=335
1.046658
1.131892
1.018643
1.167655
1.074672
1.159906
1.116991
1.210570
1.177788
1.295805
1.106858
1.189709
1.322627
1.224875
1.493692
1.351833
1.303554
1.292825
1.303554
1.320839
1.443624
1.419783
1.359582
1.618862
1.514554
1.607537
1.642704
1.716614
1.686811
1.658797
1.843572
1.799464
1.796484
1.921654
2.031922
2.143979
2.223849
2.332926
2.489686
2.422929
2.364516
2.532601
2.959967
2.974868
3.401637
3.526807
3.870726
4.387498
4.907846
8.446574
40.157437
104.535818
289.551616
530.155897
983.580947
1015.669703
1015.669703
1015.669703
1015.669703
1015.669703
1015.669703
1015.669703
1015.669703
1015.669703
617.042780
214.797854
39.091706
15.910864
11.986494
11.978745
12.388825
14.277697
20.019412
26.321411
38.475990
48.827529
64.844489
75.028539
81.043839
81.538558
75.181723
67.028999
52.889585
42.627454
30.045509
22.211671
14.818907
10.889769
8.265972
6.948709
6.502867
6.307960
6.192923
6.221533
6.439686
6.405711
6.401539
6.340742
5.957484
6.359816
6.185770
6.005764
6.363988
6.513596
6.508827
6.525517
6.651878
6.448627
6.601810
6.816983
6.712675
6.247759
6.153584
6.593466
6.311536
5.995631
##ZVALUE=340
1.006722
0.992417
1.030564
0.872612
0.960827
1.044869
0.951886
1.092553
1.057982
1.086593
0.929832
1.082420
1.030564
1.056790
1.014471
1.079440
0.897646
0.865459
1.083612
0.941753
1.010895
1.081824
1.103878
1.159906
1.200438
1.076460
1.057982
1.258850
1.393557
1.251698
1.515746
1.392961
1.388788
1.440644
1.519918
1.395941
1.561642
1.703501
1.756549
1.757741
1.985431
1.992583
2.121925
2.178550
2.263784
2.312660
2.617836
2.814531
3.334880
3.221631
4.081726
4.797578
22.123456
69.138408
211.593509
412.977934
839.049816
1015.669703
1015.669703
1015.669703
1015.669703
1015.669703
1015.669703
1015.669703
1015.669703
1015.669703
824.526548
362.334847
66.415668
16.950965
10.803938
10.412931
10.430813
10.767579
12.885928
16.367435
23.333430
32.351613
46.334863
57.499409
68.691969
74.383616
75.170994
70.879459
61.996579
53.246617
39.359927
29.719472
19.861460
14.664531
9.723902
8.009672
6.926656
6.206632
5.976558
6.350875
5.888939
5.734563
5.836487
5.844831
5.711913
5.965829
5.937815
5.754828
6.076694
6.199479
6.265640
6.560683
6.387830
6.266832
6.295443
6.084442
5.973577
5.994439
5.883574
5.635619
##ZVALUE=345
0.823736
0.930429
0.908971
0.903606
0.865459
1.056790
0.981688
1.005530
0.987649
1.026988
0.922680
0.897646
0.859499
1.052618
0.964999
0.992417
1.048446
0.990629
1.062751
0.952482
1.005530
0.905991
0.892878
1.059771
1.133680
1.215935
1.103878
1.159906
0.988841
1.262426
1.167655
1.201630
1.066923
1.148582
1.235604
1.142621
1.397729
1.268983
1.269579
1.298785
1.684427
1.637936
1.803637
1.761913
1.755953
1.721978
1.948476
2.043843
2.110600
2.162457
2.527833
2.750754
3.064871
3.561974
8.033514
31.624436
136.488676
282.350779
596.736670
924.746990
1015.669703
1015.669703
1015.669703
1015.669703
1015.669703
1015.669703
1015.669703
1015.669703
933.944583
511.632562
156.180859
44.352412
11.450648
9.795427
9.248853
8.559823
8.816719
10.123849
14.394522
20.262599
29.787421
39.718747
52.272677
60.531497
67.519546
69.086552
65.981746
59.746504
48.518777
40.042996
28.457642
21.143556
14.588833
10.888577
7.886887
6.860495
6.139874
5.686879
5.702972
5.606413
5.448461
5.379915
5.700588
5.870461
5.903840
5.741715
5.816817
6.252527
6.035566
6.018877
5.816817
5.700588
6.003976
6.066561
5.518794
5.454421
##ZVALUE=350
0.824928
0.880957
0.759959
0.881553
0.980496
0.829697
0.830889
0.788569
0.824928
0.958443
0.870824
0.785589
0.864863
0.984669
0.836849
0.934601
0.930429
0.791550
0.837445
0.802875
0.934601
0.961423
1.033545
0.948906
1.010895
1.157522
1.200438
1.021624
1.172423
1.199841
1.055598
1.107454
1.120567
1.109838
1.225471
1.270771
1.195669
1.247525
1.335740
1.466870
1.376867
1.362562
1.440644
1.396537
1.506805
1.470447
1.647472
1.753569
1.785755
1.837611
1.933575
2.114773
2.251863
2.488494
2.818704
3.014803
5.057454
18.217564
82.594752
187.371969
447.544456
749.064684
1015.669703
1015.669703
1015.669703
1015.669703
1015.669703
1015.669703
1015.669703
1015.669703
799.366832
496.693850
200.805664
68.876743
12.682676
8.667707
7.412434
6.906986
6.631613
6.842613
8.902550
11.565685
18.152595
24.849772
36.056638
44.802427
55.398941
61.011910
63.313842
61.748624
55.068731
46.787858
36.216974
28.441548
20.041466
15.187860
10.604858
8.247495
6.686449
5.897880
5.544424
5.687475
5.584955
5.663633
5.707741
5.481839
5.826950
5.822778
5.930662
6.091595
5.747676
5.452633
5.303621
5.242825
5.244613
5.027652
##ZVALUE=355
0.691414
0.830889
0.950694
0.825524
0.773668
0.948906
0.799894
0.851750
0.928640
0.917912
0.800490
0.875592
0.843406
0.855923
0.801682
0.889897
0.856519
0.865459
1.131892
0.949502
0.937581
1.075864
1.104474
1.080632
0.982881
1.145601
1.080632
0.963807
1.174808
1.208782
1.226664
1.135468
1.302958
1.035929
1.116991
1.266599
1.337528
1.401901
1.350641
1.303554
1.231432
1.425743
1.358986
1.346469
1.403689
1.316667
1.658797
1.653433
1.696944
1.828671
1.809597
1.885891
2.077818
2.055764
2.317429
2.598763
3.024936
2.910495
3.300905
7.230639
41.118860
121.613741
337.559581
583.333969
989.333987
1015.669703
1015.669703
1015.669703
1015.669703
1015.669703
1015.669703
1015.669703
982.368588
662.804842
304.210782
120.328665
19.434690
8.575916
7.578731
6.840825
6.579757
6.267428
6.617904
7.624626
10.934472
14.502406
22.863746
29.992461
40.567517
47.659874
55.492520
58.344603
56.539774
52.454472
44.646859
37.976503
27.749538
21.661520
14.612675
11.178851
8.010864
6.708503
5.946755
5.899668
5.724430
5.847812
5.872846
5.898476
5.918741
5.604625
5.683899
5.637407
5.370975
5.117655
4.972816
4.896522
##ZVALUE=360
0.725985
0.786781
0.802875
0.660419
0.804663
0.825524
0.961423
0.912547
0.855923
0.872612
0.963807
0.931621
0.759959
0.795722
0.903606
0.866652
0.908971
0.879765
0.936985
0.910759
0.904799
0.980496
0.971556
0.866652
0.975728
1.025796
1.010895
0.955462
1.105666
1.043677
1.167655
1.022816
1.032948
1.197457
1.153946
1.163483
1.209974
1.329780
1.313686
1.261830
1.370907
1.260638
1.316667
1.395941
1.325607
1.454949
1.531839
1.480579
1.407862
1.463890
1.611710
1.626611
1.753569
1.884699
2.035499
2.130866
2.208948
2.443790
2.571940
2.719760
3.249645
4.231930
18.643737
59.892535
195.367336
390.078425
785.755515
1015.669703
1015.669703
1015.669703
1015.669703
1015.669703
1015.669703
1015.669703
810.824037
525.012016
254.231691
115.416646
27.694702
9.222627
6.742477
6.147623
5.894899
5.669594
5.398989
5.732775
6.791949
8.413792
12.738705
17.854571
26.076436
33.932924
43.457747
48.434734
52.763820
53.250790
49.829483
44.635534
36.017895
29.380918
20.738840
16.152859
11.276603
8.647442
7.034540
6.498694
5.845428
5.838871
5.866885
5.379915
5.340576
5.136728
5.114675
5.054474
4.878640
4.657507
##ZVALUE=365
0.840425
0.874996
0.877976
0.891685
0.748634
0.795722
0.954866
0.867844
0.865459
0.802875
0.902414
0.811815
0.875592
0.755787
0.868440
0.812411
0.941753
0.888705
0.955462
0.771880
0.934601
0.913739
0.895858
1.068711
0.979900
1.077652
0.854731
1.028776
1.065731
0.997782
1.025796
1.060963
1.027584
0.991821
1.147985
1.141429
1.160502
1.047850
1.128912
1.224875
1.362562
1.108646
1.205802
1.056790
1.272559
1.308918
1.304746
1.346469
1.341701
1.494884
1.608729
1.510978
1.589656
1.674891
1.944900
1.936555
1.962781
1.915693
2.141595
2.162457
2.257824
2.612472
3.125668
3.356934
8.006692
28.635859
116.583705
261.884928
619.012713
965.165496
1015.669703
1015.669703
1015.669703
1015.669703
1015.669703
1015.669703
845.899582
517.600775
223.292708
102.054477
27.736425
11.306405
6.477833
5.973577
5.767941
5.227923
4.965663
5.127788
5.157590
5.945563
7.944703
10.548830
16.152859
21.947622
30.923486
36.681890
44.350624
47.547817
48.780441
47.353506
42.172670
36.679506
28.651953
22.217631
16.270876
12.761950
9.035468
7.307529
6.443858
5.854964
5.376935
5.014539
4.802942
4.822612
4.338622
4.237890
##ZVALUE=370
0.754595
0.809431
0.855923
0.838637
0.810623
0.850558
0.826716
0.839829
0.853539
0.855923
0.889897
0.797510
0.789762
0.864863
0.809431
0.882745
0.836849
0.817776
0.948906
1.171827
0.706911
0.799894
0.794530
0.846982
0.926852
1.031756
0.882745
0.961423
0.970960
0.989437
0.931621
0.934601
0.908971
0.986457
1.062751
1.025796
1.045465
1.076460
1.170635
0.978708
1.080632
1.158714
1.171827
1.161695
1.377463
1.146793
1.260638
1.208782
1.414418
1.317859
1.261830
1.298785
1.405478
1.363754
1.417994
1.652837
1.582503
1.603961
1.834631
1.916885
1.888871
2.126694
2.438426
2.544522
2.690554
2.926588
4.363656
15.307665
80.642700
200.530887
484.392643
786.694884
1015.669703
1015.669703
1015.669703
1015.669703
1015.669703
1015.669703
969.125628
641.454458
309.216976
152.416825
49.082637
17.903447
6.957650
5.884767
5.256534
5.051494
4.868507
4.956722
4.996657
5.315542
6.321669
7.683635
10.755658
13.933778
19.978881
25.469661
33.046603
38.689971
44.505596
45.782924
44.881701
42.222738
36.075711
30.304790
22.976995
16.910434
13.085604
9.657741
7.888675
6.314516
5.349517
4.681945
4.573464
4.312992
##ZVALUE=375
0.808835
0.732541
0.816584
0.782609
0.715852
0.661612
0.783801
0.733733
0.766516
0.712872
0.749826
0.819564
0.730753
0.794530
0.965595
0.754595
0.732541
0.853539
0.702739
0.815988
0.880957
0.814795
0.748634
0.698566
0.749826
0.937581
0.848770
0.801682
0.937581
1.031756
1.022816
0.999570
1.035929
0.887513
1.031756
0.943542
1.042485
1.057982
1.009703
0.944734
1.068711
1.005530
1.331568
1.030564
1.205802
0.911951
1.176000
1.185536
1.227856
1.135468
1.402497
1.369715
1.246929
1.181960
1.433492
1.464486
1.413822
1.384616
1.614690
1.472831
1.576543
1.758933
1.696944
1.803637
2.021790
2.185702
2.471805
2.913475
3.740788
8.713603
49.366951
126.957893
333.991647
602.560639
1012.645960
1015.669703
1015.669703
1015.669703
1015.669703
1015.669703
1015.669703
862.818956
467.684865
253.402591
92.275739
36.087632
9.750724
6.258488
5.646944
5.542636
5.485415
5.595684
5.764961
5.756617
6.015897
6.259680
7.328987
8.921623
12.256503
15.764832
22.808909
28.370619
35.712719
40.231943
44.097900
44.032931
41.652918
36.237836
30.994415
25.093555
19.803643
14.792681
11.431575
7.929802
6.652474
5.110502
##ZVALUE=380
0.754595
0.736713
0.826716
0.793934
0.725985
0.694990
0.593662
0.629425
0.668764
0.761747
0.642538
0.931621
0.781417
0.831485
0.857711
0.900626
0.757575
0.753999
0.864863
0.637770
0.694990
0.786781
0.626445
0.911951
0.685453
0.863671
0.935793
0.950694
0.928640
1.000762
1.037717
0.752807
0.878572
0.968575
0.813603
0.924468
0.920892
0.979900
0.889897
1.035929
1.038909
0.968575
1.042485
0.872612
0.983477
1.109838
1.074672
1.128912
1.009703
1.104474
1.150966
1.147985
1.146793
1.291633
1.229644
1.245737
1.393557
1.320839
1.199841
1.519918
1.465678
1.521707
1.567602
1.843572
1.812577
2.008677
2.151728
2.257824
2.588630
2.968907
3.380775
4.831553
25.195479
79.956651
246.758461
476.076603
935.071707
1015.669703
1015.669703
1015.669703
1015.669703
1015.669703
1015.669703
1015.669703
639.379025
369.454622
143.783689
60.167909
15.289783
7.398725
6.010532
6.093979
6.206632
6.462932
6.303787
6.113648
5.983710
5.612969
5.740523
6.262660
7.974505
10.410547
14.936924
19.518733
26.912689
32.499433
38.648844
42.213798
42.634606
40.606856
37.295818
31.209588
26.407838
19.395947
14.920831
10.437965
##ZVALUE=385
0.674725
0.586510
0.749826
0.746846
0.757575
0.787973
0.682473
0.734925
0.667572
0.575781
0.509620
0.720620
0.665784
0.760555
0.621676
0.796914
0.792742
0.679493
0.726581
0.663996
0.750422
0.726581
0.955462
0.738502
0.752807
0.691414
0.787973
0.942945
0.810623
0.980496
1.066923
0.974536
1.042485
1.027584
0.940561
1.028776
0.970960
0.933409
1.099706
1.076460
1.130700
0.892878
0.956655
1.180768
1.116991
1.136661
1.151562
1.125932
1.273751
1.036525
1.141429
1.267791
1.198649
1.113415
1.122952
1.092553
1.195669
1.276731
1.263618
1.253486
1.372695
1.374483
1.512766
1.388788
1.515746
1.705885
1.835823
1.969934
2.110600
2.476573
2.682805
3.018975
3.172755
3.724694
9.005666
53.005815
145.384669
385.583639
690.878630
1015.669703
1015.669703
1015.669703
1015.669703
1015.669703
1015.669703
1015.669703
945.973992
514.573455
287.550688
111.942887
41.625500
10.066628
6.821752
6.553531
6.388426
6.356835
6.207824
5.607605
5.332828
4.947782
4.849434
4.850626
5.559921
6.929636
9.063482
13.241768
17.150640
23.200512
28.031468
33.571720
37.189722
39.319992
38.120747
35.070777
31.582713
25.499463
##ZVALUE=390
0.682473
0.593662
0.704527
0.735521
0.763535
0.726581
0.750422
0.737906
0.565648
0.740886
0.625849
0.736713
0.542998
0.684857
0.699759
0.568628
0.635982
0.833869
0.778437
0.854731
0.849962
0.813603
0.944734
0.709891
0.784993
0.787973
0.793934
0.894666
0.799894
0.766516
0.779629
0.854731
0.822544
0.982881
0.868440
0.948906
1.045465
1.073480
1.107454
1.130700
1.130700
1.072884
0.898838
0.988841
1.235604
1.025796
1.096725
1.050830
1.073480
1.192689
1.120567
1.217723
1.066923
1.124740
1.258850
1.228452
1.361966
1.166463
1.270771
1.299977
1.260638
1.273751
1.337528
1.257658
1.502633
1.785755
1.602769
1.922846
2.097487
2.185702
2.483726
2.591610
2.532601
2.676845
2.743602
2.855659
5.312562
20.622611
101.071596
243.850946
591.187477
940.971971
1015.669703
1015.669703
1015.669703
1015.669703
1015.669703
1015.669703
1015.669703
728.498697
368.119478
185.768008
61.233640
21.657944
7.704496
6.495714
6.149411
5.946755
5.661845
5.464554
5.032420
5.018711
4.905462
4.575849
5.085468
5.346537
6.481409
8.139610
10.757446
13.921857
19.224882
23.794770
29.534698
33.186674
35.547614
35.750866
##ZVALUE=395
0.688434
0.730753
0.780821
0.718832
0.676513
0.569820
0.528693
0.586510
0.689626
0.820756
0.672936
0.611544
0.651479
0.745654
0.639558
0.754595
0.765920
0.635982
0.802875
0.642538
0.621676
0.693798
0.864863
0.849962
0.787973
0.736713
0.946522
0.870824
0.957847
0.877976
1.014471
1.014471
1.123548
0.998974
0.861883
0.942945
1.157522
1.099706
1.074672
1.127720
1.001954
1.146793
1.149774
1.195669
1.282692
1.107454
1.240969
1.122952
1.180768
1.257658
1.214743
1.158714
1.198649
1.143813
1.160502
1.256466
1.069903
1.228452
1.166463
1.196861
1.284480
1.197457
1.291633
1.349449
1.396537
1.519918
1.551509
1.679659
1.862645
1.958609
2.191663
2.117753
2.147555
2.428889
2.286434
2.395511
2.652407
2.942681
3.734827
11.450648
63.949823
157.788992
394.295454
685.425997
1015.669703
1015.669703
1015.669703
1015.669703
1015.669703
1015.669703
1015.669703
918.731093
475.535989
250.543952
89.775920
37.193894
10.723472
6.644726
6.146431
5.551577
5.741715
5.561709
5.542636
5.339980
5.363822
5.455613
5.373955
4.929900
5.324483
6.101727
7.101893
8.806586
12.085438
16.039610
21.096468
26.773810
##ZVALUE=400
0.927448
0.764728
0.899434
0.687838
0.782609
0.646710
0.707507
0.525713
0.664592
0.542998
0.606775
0.613928
0.653863
0.722408
0.734925
0.800490
0.689626
0.854731
0.677705
0.669956
0.690818
0.698566
0.701547
0.675917
0.610948
0.706911
0.895858
0.876784
0.960827
0.880957
0.980496
0.972748
0.887513
1.130700
1.112819
1.065731
1.143813
1.079440
1.147985
1.129508
1.099706
1.087785
1.115799
1.100898
1.105666
1.197457
1.237988
1.026988
1.071692
1.232624
1.190901
1.164675
1.289845
1.205802
1.187921
1.219511
1.254678
1.100898
1.185536
1.209974
1.221895
1.422763
1.291633
1.273751
1.324415
1.421571
1.588464
1.599789
1.811981
1.741648
1.906753
2.003908
2.196431
1.983643
1.962781
1.984835
2.094507
2.217889
2.442598
2.710819
3.203750
5.815625
32.542944
93.809962
267.594457
491.982698
946.272612
1015.669703
1015.669703
1015.669703
1015.669703
1015.669703
1015.669703
1015.669703
614.575744
355.605483
145.992637
64.295530
17.868876
8.029938
6.233454
5.959868
5.685687
5.933642
6.094575
6.121993
5.964637
5.750656
5.497932
5.433559
5.107522
4.867911
5.134940
5.978942
7.618666
10.444522
##END
