##TITLE=15-3
##FORMAT=SPECTACLE-ASCII V-1.2
##DATA TYPE=ULTRAVIOLET SPECTRUM
##SECOND TYPE=ULTRAVIOLET SPECTRUM
##DATE=04/09/18
##TIME=10:53:25
##SPECTROMETER/DATA SYSTEM=SPECTACLE
##XUNITS=NM EM
##YUNITS=ENERGY
##YFACTOR=1
##FIRSTX=220
##LASTX=450
##NPOINTS=116
##3DDATA=Equidistant
##ZUNITS=NM EX
##FIRSTZ=210
##LASTZ=400
##ZPOINTS=39
##XYDATA=(Y..Y)
##ZVALUE=210
23.232698
22.842884
19.229650
13.351440
10.846853
9.909868
9.710789
9.877682
7.631779
6.334782
4.716516
4.989505
3.935695
4.024506
3.990531
5.026460
4.412532
4.648566
4.499555
5.329847
5.984902
5.192757
5.857944
7.306933
8.420944
8.654594
8.378625
10.639429
10.706782
12.455583
12.050867
12.167692
14.043450
13.659596
15.574694
15.552640
16.444921
16.111732
17.748475
16.853809
17.985702
19.155741
20.101666
20.920634
19.554496
19.522905
19.936562
21.190643
21.967888
19.525886
20.262599
22.552609
21.000504
23.224950
21.795630
22.376776
21.501780
23.371577
23.527741
22.914410
22.953749
21.593571
23.583770
23.395419
21.985769
24.704933
25.108457
27.792454
32.528639
36.183596
40.954947
49.285889
53.777695
62.899590
66.351891
71.449876
71.075559
71.537495
67.789555
65.094829
61.504841
58.351755
51.229596
43.062568
40.082932
32.825470
29.634833
23.715496
21.808743
23.382902
25.737882
32.939911
35.933852
43.308735
51.156878
57.438612
67.434907
75.210929
80.669522
85.212588
88.935494
88.239908
92.533827
92.464685
94.803572
93.108416
94.447732
88.678002
78.031421
69.406629
56.876540
44.537783
34.574866
28.544664
27.190447
25.543571
##ZVALUE=215
69.740415
68.806410
55.955648
42.680502
34.137964
26.374459
19.519925
18.023849
16.351938
15.481710
13.914704
9.799600
7.737875
6.650686
5.497932
4.591942
5.082488
4.931688
4.866719
5.647540
6.092787
5.899668
6.433725
7.868409
7.506609
8.662939
9.362698
10.547638
11.495948
12.986660
13.858676
12.477636
14.502406
13.237000
16.596913
18.605590
18.844604
20.215511
20.239949
20.173788
20.794868
22.218823
22.172928
22.996664
22.809505
21.252632
21.648407
25.265813
24.211407
22.406578
23.785830
24.288893
24.125576
25.095940
24.103522
25.003552
25.085807
24.974942
24.943948
23.993850
24.077892
24.791956
24.122000
22.891760
22.925735
25.021434
24.302602
26.182532
28.571486
30.159950
34.649968
37.397742
42.205453
46.137571
50.517917
50.552487
50.369501
49.560666
48.603415
43.955445
43.150783
36.280751
33.004880
31.906962
26.587844
22.912621
18.888712
16.920567
17.598867
15.666485
14.658570
15.217662
15.092492
16.502738
18.914938
22.755861
29.067993
38.529634
49.146414
60.415864
71.739554
85.729957
102.425814
112.747550
118.041635
121.150613
128.893852
123.469830
126.155615
127.366781
117.490888
120.099783
102.844834
94.710588
73.264837
58.875680
##ZVALUE=220
141.838789
140.947700
141.320825
121.175647
112.293959
78.649521
60.139894
38.600564
31.084418
26.852489
26.624799
26.504993
22.153854
17.606616
16.291738
11.748672
10.293722
6.587505
5.931854
5.229712
5.436540
6.495714
7.244945
7.079840
7.054806
8.286834
8.266568
8.961558
10.035634
10.770559
12.889504
12.909770
14.389753
15.824437
16.061664
17.604828
20.645857
20.865798
20.929575
23.499727
22.996664
24.305582
23.111701
24.928451
23.710728
24.452806
24.800897
24.467707
25.796890
25.277734
24.679899
24.778843
26.735663
26.503801
24.945736
26.354790
24.084449
25.960803
26.997924
25.642514
23.869872
27.319789
25.348663
24.236441
24.648905
26.283860
24.356842
26.447773
25.067925
29.086471
33.751726
33.510923
34.377575
38.171411
40.056705
37.158728
41.744709
37.704706
38.497448
34.261942
32.618642
31.907558
28.238893
24.309754
21.492839
19.423962
15.485883
15.503764
14.237761
13.154745
12.540817
12.160540
11.592507
13.314486
11.295676
12.678504
11.482835
12.616515
13.147593
17.657876
23.274422
31.414628
45.038462
57.528615
77.907443
96.632838
113.332868
137.295723
147.056580
169.667006
177.688003
193.622708
188.625455
185.008645
177.814960
167.016983
##ZVALUE=225
165.518522
172.398686
214.223862
228.663683
227.547884
207.096934
186.462998
133.174658
99.052787
65.828562
51.094890
42.343736
41.146874
39.070845
37.037730
32.046437
28.008819
22.485852
15.879869
11.078715
9.478927
6.406903
6.121993
6.687641
6.644726
6.845593
7.405877
7.814765
8.199811
10.076761
11.137724
11.615753
12.918711
16.033649
19.254684
20.132661
21.793842
24.768710
25.465488
26.354790
26.451945
30.457973
27.167797
27.603507
28.098822
28.950572
27.971864
28.926730
28.598905
28.394461
29.187799
28.108954
29.999614
31.245947
30.713677
30.672550
32.549500
31.787753
30.201674
31.491518
30.413866
29.084682
27.912855
28.999448
27.261972
29.164553
28.807521
28.776526
30.736923
31.888485
33.579469
34.090877
39.003491
36.062598
38.493872
37.631989
36.163926
35.833716
32.144785
31.268597
28.566718
28.069615
25.191903
23.189783
20.068884
18.623471
17.157793
15.121698
15.352964
15.545487
13.881922
14.143586
14.008880
12.463927
13.163686
12.435913
12.752414
11.495948
11.240840
12.019873
11.940598
13.547540
12.812614
13.894439
20.728707
28.449893
43.824911
67.139864
82.562566
108.707547
128.907561
168.285966
192.831755
220.353007
243.816972
269.909501
##ZVALUE=230
111.273527
119.646788
200.932622
262.928605
318.876505
369.964838
393.190980
363.326669
315.726995
235.056877
174.582601
111.153722
82.148910
63.632727
61.056614
62.789917
63.034892
58.920979
50.427914
40.074587
30.111670
22.753477
13.844967
10.765791
7.909536
7.784963
8.298755
8.554459
10.094643
10.112524
10.070801
12.222528
13.576746
16.209483
17.873645
18.700957
20.169616
24.837852
25.130510
26.653409
25.549531
27.593970
29.222965
29.315948
29.102564
28.975606
30.583739
28.483868
28.400421
30.191541
30.806661
30.452609
29.797554
30.059814
32.098889
31.644702
31.338930
29.443502
30.514598
29.176474
29.087663
29.467940
28.774738
30.822754
28.385520
29.208660
28.515458
28.406978
29.245615
30.415654
30.509830
29.619932
32.048821
35.509467
33.430457
32.912493
33.403635
31.827688
29.662848
26.401877
24.219751
22.738576
21.972656
18.833876
19.443631
17.259717
16.654730
14.768839
13.499856
12.921691
14.881492
14.041662
12.664795
12.825727
12.441874
11.768937
12.429953
11.759996
13.212562
12.193918
12.039542
10.998845
12.442470
12.995601
11.270642
10.559559
10.806918
12.654662
13.870597
22.653937
31.541586
51.795840
74.906945
113.779902
145.649910
193.848610
##ZVALUE=235
30.414462
33.291578
84.206462
151.038766
243.022442
387.208462
481.476784
587.399602
630.356669
612.680912
540.472865
407.672524
301.782489
186.290741
135.416985
93.223453
84.442496
89.384913
91.374516
88.526607
86.138844
70.323944
58.590770
43.200850
25.525689
18.204451
12.993813
10.356903
10.268688
10.106564
10.052919
10.383725
11.855960
13.246536
15.279651
15.707612
17.019510
18.447638
21.001697
21.217465
21.892786
22.901893
22.882819
24.156570
22.606850
23.549795
25.241971
22.381544
24.016500
23.580790
23.744702
24.144650
23.814440
25.130510
24.959445
25.426745
25.182962
25.918484
27.308464
25.776625
25.095940
24.481416
24.044514
24.454594
24.081469
23.996830
24.617910
24.105906
24.684668
27.065873
28.882623
29.092431
28.550625
30.370951
32.179952
30.159950
29.493570
28.233528
28.565526
24.066567
23.054481
22.843480
18.739700
18.005967
17.351508
16.625524
15.990734
14.384985
14.998913
14.016628
14.637709
15.555620
13.278723
12.367964
13.234615
12.649894
13.015866
11.062622
11.996627
11.966825
12.229681
13.448000
12.363791
12.242794
11.667609
12.103915
11.746883
12.693405
12.614727
11.614561
10.687709
12.409687
13.558865
17.106533
23.719668
40.056705
##ZVALUE=240
2.693534
3.238916
10.019541
28.033853
65.122843
155.433416
255.500674
437.376499
573.988557
720.757842
786.536932
772.171021
721.702576
566.687584
436.518788
279.484987
200.173855
125.913620
103.815794
99.265575
107.464790
114.051700
111.668706
95.854998
81.533790
60.986876
45.035481
32.653809
20.731688
15.268922
11.671782
9.638667
10.084510
11.403561
11.877418
12.791753
13.467669
12.828708
15.611649
14.929771
15.446544
15.797615
16.395450
15.827417
16.871691
17.896891
16.934872
17.471910
17.424822
17.141700
19.242764
18.124580
17.582774
18.229485
18.827915
19.255877
18.353462
18.639565
19.405484
19.904971
19.065738
18.977523
19.254684
18.301606
21.221638
19.651651
20.687580
21.184683
21.338463
22.150874
24.017692
25.192499
25.682449
26.449561
28.961897
28.421879
26.442409
27.164817
23.068786
23.519993
22.107959
19.456744
17.889738
16.746521
15.179515
15.364885
16.209483
14.969707
13.983846
14.070868
13.963580
14.269948
12.968779
12.783408
12.442470
11.863708
12.519956
12.846589
12.270808
12.603998
11.553764
11.819601
12.095571
11.560917
12.645721
11.398792
10.818839
12.519956
10.823607
11.368990
11.778474
11.655688
11.523962
12.906790
10.533929
11.603832
##ZVALUE=245
2.249479
2.312660
2.713799
2.639890
5.345941
20.335913
51.931739
135.857463
238.437653
436.909795
603.237748
807.350874
913.846493
962.880850
903.015733
760.067701
616.407990
414.160490
286.637545
165.899992
121.366978
101.847649
109.688640
120.150447
124.446750
117.791891
105.149746
88.889599
65.398812
50.718784
32.597780
22.151470
17.512441
12.877584
11.100769
11.214614
11.322498
11.579990
12.576580
13.065934
12.957454
14.428496
13.774633
12.962818
15.957952
14.999509
15.049577
15.313625
15.007854
16.935468
17.794967
15.904903
16.239882
15.499592
15.982985
16.511679
17.295480
17.399788
16.303658
18.264651
18.458962
16.386509
17.264485
17.788410
18.447638
18.640757
17.891526
17.137527
18.289685
19.261837
20.114779
23.013949
22.554994
23.464561
24.333596
22.900701
23.057461
21.810532
22.381544
18.939972
19.698739
17.192960
17.322898
14.814734
14.041662
13.997555
13.632774
13.815761
12.977719
12.112856
12.011528
12.610555
12.147427
11.678934
10.725856
11.916757
11.105537
11.271834
11.507869
11.066794
11.333823
10.357499
10.457635
11.251569
10.378957
10.259748
10.515451
11.096597
10.368824
11.448860
10.719895
10.567904
9.677410
9.338856
9.824634
10.608435
##ZVALUE=250
1.693964
1.615882
1.803637
1.948476
2.206564
2.726912
2.842546
12.594461
36.400557
104.148984
206.685662
409.782529
600.337982
850.940943
999.486446
1015.669703
1015.669703
993.340015
841.828585
575.146675
404.234529
226.242542
140.902996
98.138452
97.965002
116.655827
126.801729
132.172704
130.493641
116.265416
95.220804
75.549483
53.876638
37.292838
24.590492
18.476844
13.402700
13.631582
12.594461
13.832450
14.092922
14.452934
15.898943
14.651418
16.048551
16.191602
15.090704
14.705658
17.102957
15.770793
16.168952
16.892552
16.503930
17.609596
16.700625
18.122792
16.826987
17.971992
18.111467
17.751455
19.117594
17.703772
18.578768
17.240644
18.012524
18.360615
17.758608
18.495917
19.247532
19.291639
20.264983
21.437407
22.476912
22.311807
22.376776
22.072792
21.982789
19.591451
19.188523
19.348860
17.472506
16.813874
15.213490
13.957620
13.225675
12.372732
12.875795
12.492537
12.227893
12.609959
11.194944
11.434555
10.698438
10.938644
10.333657
10.781884
9.716749
10.957718
10.872483
10.079741
9.566545
9.664893
10.451674
9.788871
10.223985
10.107756
9.562969
10.372996
10.340810
9.529591
8.963943
9.742975
8.827448
9.790659
8.336902
9.474754
##ZVALUE=255
1.708865
1.702905
1.583695
1.775622
1.793504
1.935959
1.918674
2.152920
2.418756
6.863475
22.869706
79.195499
162.107944
348.812938
536.146760
828.498602
1009.393930
1015.669703
1015.669703
1015.669703
1013.537645
750.014782
525.674820
287.120938
173.937678
105.019808
91.302991
102.611780
117.651820
132.145882
136.792660
137.918591
121.590495
104.885697
78.951716
60.588717
40.479898
29.020905
21.036863
18.054843
17.169714
17.258525
17.172694
17.581582
17.072558
18.309951
18.575788
18.807650
18.140674
19.056797
19.545555
19.121766
20.101666
19.923449
19.420981
19.494891
19.721985
19.496679
20.606518
20.445585
20.536780
20.651817
20.134449
20.357966
19.658804
20.570755
20.398498
20.859838
20.842552
19.763708
21.351576
21.474957
22.834539
21.396875
22.092462
21.336675
20.041466
19.569993
19.226670
16.980767
16.597509
14.357567
14.695525
14.057755
13.434887
12.737513
13.098717
12.112856
11.909604
10.701418
10.656714
11.186600
11.039972
9.767413
10.004640
9.495616
9.529591
9.641647
9.759665
10.139942
9.626746
9.157658
9.460449
9.321570
9.303689
8.694530
8.514524
9.014606
9.409785
8.768439
8.949637
8.357763
9.291768
8.657575
8.604527
8.076429
##ZVALUE=260
1.533628
1.510978
1.836419
1.561642
1.873970
1.643896
1.690984
1.878738
1.905560
2.194643
2.467632
3.893971
12.105703
51.662922
110.558867
265.685916
446.615815
740.921497
980.412960
1015.669703
1015.669703
1015.669703
1015.669703
989.139676
658.809543
440.675616
238.725543
141.444802
86.590648
83.352923
99.876523
121.228695
140.335560
145.784616
142.408609
131.865740
107.588768
88.989735
63.923001
49.027801
35.207868
28.796792
23.988485
22.879839
23.762584
22.911429
23.153424
23.856759
22.340417
23.021698
23.550987
24.892688
23.678541
24.111867
23.291707
24.893880
24.990439
23.534894
23.939610
24.394989
23.963451
23.726821
23.965836
23.487806
23.958683
21.331906
23.594499
23.477674
22.890568
23.691654
23.814440
23.674965
24.185777
23.426414
23.446679
23.224950
21.826625
20.854473
20.083785
18.721819
17.325878
17.420650
15.301704
14.564991
14.302731
13.847947
12.299418
12.077689
11.434555
11.186600
11.376739
10.791421
10.216832
10.272861
9.700656
9.698868
9.061694
9.521842
8.415580
9.016991
8.753538
8.428693
8.977652
8.834600
8.952618
8.851886
8.904934
8.426905
8.491874
8.473992
8.027554
8.270741
8.397698
8.679628
8.438826
8.023977
##ZVALUE=265
1.311898
1.572967
1.396537
1.499653
1.471639
1.587868
1.668930
1.798868
1.913905
1.635551
2.008677
2.194643
2.589822
3.113747
6.801486
34.668446
83.613992
209.340453
370.981693
690.341592
946.320891
1015.669703
1015.669703
1015.669703
1015.669703
1015.669703
858.680010
595.947504
321.982503
192.877650
98.347664
75.046420
84.850788
107.245445
133.975744
149.535537
154.012442
154.248476
136.176944
118.366480
93.655586
76.156855
53.874850
44.807792
35.225749
31.930804
29.888749
29.410720
28.024912
28.510690
29.587746
29.052496
28.541684
28.537512
29.380918
28.933883
28.236508
28.388500
28.278828
28.200746
27.658939
28.690696
27.755499
27.427673
27.117729
26.990771
25.938749
26.903749
26.047826
25.518537
26.076436
25.631785
25.043488
25.696754
24.085641
23.742914
22.363663
21.613836
19.913912
20.014644
18.224716
18.094778
16.580820
15.540719
15.082955
14.576912
13.383627
12.595654
13.089776
11.797547
10.790825
10.530949
10.307431
10.162592
9.720922
9.938478
9.562969
9.203553
8.814931
9.096861
8.882880
8.813739
8.432865
8.601546
8.650422
9.132624
8.710623
7.885695
7.796884
7.983446
8.064508
8.013844
7.408857
7.796884
7.523894
7.631779
##ZVALUE=270
1.179576
1.291633
1.296997
1.526475
1.234412
1.513958
1.460910
1.504421
1.629591
1.619458
1.858473
1.528859
1.883507
1.931787
2.192855
2.576709
3.495812
17.432570
51.503778
153.517723
291.282535
575.418472
860.316753
1015.669703
1015.669703
1015.669703
1015.669703
1015.669703
1015.669703
834.108591
491.116643
302.230716
143.100619
84.588528
70.644617
87.998509
116.607547
141.484737
160.467625
167.473555
164.783001
151.981711
129.374862
109.790564
81.973672
64.561963
50.173998
42.969584
36.923885
34.162998
33.267736
34.553409
32.843947
33.140779
33.286810
32.298565
32.316446
33.049583
32.246709
31.149983
32.015443
30.960441
31.701922
30.957460
30.094981
29.326677
28.701425
29.456615
28.835535
27.529597
28.908849
27.987957
27.839541
26.423931
26.369691
25.087595
24.541616
23.174882
21.224618
19.489527
18.960834
18.021464
17.434955
16.447902
15.634894
14.369488
14.116764
13.797879
13.072491
11.979938
11.673570
11.838675
11.100769
10.064840
10.300875
9.741783
10.021925
9.526610
9.526610
8.852482
8.989573
8.261800
8.678436
8.729696
8.025765
8.078814
8.469820
7.625818
7.678866
7.484555
8.384585
7.202625
7.242560
6.988645
7.346869
6.843805
##ZVALUE=275
1.280904
1.262426
1.094937
1.344681
1.355410
1.203418
1.322627
1.345873
1.632571
1.379848
1.503825
1.759529
1.752973
1.734495
1.935959
2.122521
2.148747
2.490878
2.711415
7.242560
27.681589
102.252960
217.979550
473.625064
741.915703
1015.669703
1015.669703
1015.669703
1015.669703
1015.669703
1015.669703
1015.669703
675.406456
419.200659
197.275877
113.261938
69.584846
74.336529
99.825859
121.365786
147.631764
161.453485
170.066953
167.414546
152.526498
133.048892
107.593536
88.301897
65.821409
54.027438
42.389631
39.321780
36.617517
35.253763
35.235882
33.861995
34.803748
35.015941
34.560561
33.499599
33.339858
33.340454
32.716990
32.600760
32.382607
30.572414
30.068755
30.234456
30.254722
30.068755
29.343963
29.006600
28.781891
27.922988
27.236938
26.509762
24.818778
23.356676
22.265911
21.657944
20.432472
18.160939
18.011928
17.261505
16.315579
15.785694
15.275478
13.999939
13.884902
12.954473
12.114644
11.736751
11.216998
10.843873
10.837913
9.914637
10.210872
9.871721
9.794831
9.483695
8.903742
8.719563
8.497834
8.335710
7.944703
8.300543
8.042455
8.341670
8.388758
7.139444
7.695556
7.539988
7.493496
7.182956
7.481575
6.892681
##ZVALUE=280
1.090765
1.209974
1.063943
1.260638
1.308918
1.380444
1.056790
1.347661
1.290441
1.446605
1.551509
1.415610
1.443624
1.503825
1.846552
1.737475
2.089739
1.833439
2.033710
2.435446
2.482533
4.143715
14.234781
69.194436
156.758428
360.409617
586.231947
864.712000
1015.669703
1015.669703
1015.669703
1015.669703
1015.669703
1015.669703
828.557014
547.958612
276.224613
150.435567
74.650645
61.488748
76.716542
95.923543
121.953487
142.396688
160.001516
166.115761
159.284472
149.196982
123.564601
105.246902
78.687668
64.439774
48.844814
41.656494
36.102533
34.252405
33.285618
34.294724
33.444762
32.595992
32.891631
32.267570
31.981468
30.950904
31.459928
31.054616
30.283928
29.958487
29.861927
29.295683
29.362440
28.726459
27.949810
27.614832
26.396513
25.666952
23.934841
23.579597
22.018552
21.290779
19.418597
18.879771
17.468929
17.022491
16.058683
15.813708
14.601946
13.848543
13.383627
12.750626
11.607409
11.481643
11.252761
10.859966
9.933710
9.797812
9.126663
9.312630
9.289980
9.455681
8.897781
8.928776
8.448958
8.669496
8.150935
7.907748
7.850528
7.630587
7.677674
7.473826
7.599592
6.981492
7.125735
7.250905
6.365776
6.498694
##ZVALUE=285
1.118779
1.162887
1.011491
0.951886
1.124740
1.311898
1.167655
1.267791
1.358986
1.238585
1.275539
1.562834
1.250505
1.400709
1.425743
1.452565
1.409650
1.897812
1.822710
1.895428
2.204776
2.203584
2.364516
2.864599
6.946921
33.620000
86.120963
167.631507
417.951941
682.144761
1015.669703
1015.669703
1015.669703
1015.669703
1015.669703
1015.669703
1015.669703
764.983892
403.884649
224.895477
116.558671
55.158734
49.483776
66.776872
83.767772
113.572478
129.040480
145.392418
153.133869
152.632594
137.749910
122.775435
97.709894
76.415539
55.736899
45.960546
35.463572
31.266809
28.720498
28.175712
27.828813
27.809739
27.316809
27.431846
27.527809
27.099848
26.820898
26.847720
26.441813
25.513768
24.733543
25.011897
24.502873
24.631619
23.661852
22.763610
22.379756
21.039844
19.398928
18.751621
17.847419
17.384887
16.082525
15.975833
14.420748
13.816953
14.116764
13.220906
12.379885
12.057424
11.409521
11.401772
10.339618
10.186434
9.592772
9.900928
9.180903
8.809566
8.834600
8.938909
8.679628
8.597970
8.129478
8.282661
7.819533
7.920861
7.683635
7.398725
7.394552
7.409453
7.214546
6.889701
6.680489
6.314516
6.647706
6.490946
##ZVALUE=290
1.025796
1.044869
0.921488
1.118779
1.089573
1.013875
1.190901
1.241565
1.195669
1.200438
1.010895
1.171827
1.249909
1.220703
1.298785
1.369715
1.274943
1.439452
1.555681
1.821518
1.764894
1.900792
2.005696
2.235770
2.423525
2.516508
3.633499
10.183454
47.488809
120.295882
304.807425
526.219010
927.151442
1015.669703
1015.669703
1015.669703
1015.669703
1015.669703
1015.669703
980.931520
574.482679
335.434675
138.297677
64.603686
34.428835
38.030744
53.819418
70.851445
97.813606
115.938783
135.556459
141.248703
138.970613
131.235719
110.549927
91.834664
66.483617
50.805807
36.986470
30.689836
24.317503
22.330880
21.718740
20.943880
21.317601
20.975471
20.097494
20.228624
20.805597
20.224452
19.758940
20.655990
20.576715
19.246936
18.478632
18.647909
17.120838
16.930699
15.871525
15.521646
14.698505
13.956428
12.851954
12.772679
12.683868
12.048483
11.566877
11.316538
10.940433
10.493994
9.768605
9.756684
9.095669
9.386539
8.751750
8.706450
8.207560
8.340478
8.089542
7.967949
7.615685
7.799864
7.810593
7.653832
7.133484
7.063746
7.180572
7.309914
7.398725
6.834865
6.777644
6.546974
6.676912
6.249547
6.362796
6.278753
##ZVALUE=295
1.074672
0.927448
1.017451
0.984669
0.974536
1.089573
0.947714
1.032948
1.057982
0.975728
1.177788
1.006722
1.313686
1.239777
1.296997
1.153946
1.380444
1.380444
1.418591
1.622438
1.650453
1.528859
1.669526
1.603961
1.940727
2.294779
2.280474
2.103448
2.836585
4.742742
25.383830
71.795583
214.941502
418.664813
808.442831
1015.669703
1015.669703
1015.669703
1015.669703
1015.669703
1015.669703
1015.669703
736.964941
454.084873
199.571848
93.768835
35.178661
25.381446
33.914447
45.619607
67.038536
85.791945
108.826756
122.656822
131.427646
131.590962
116.883516
104.307532
80.889463
62.775612
44.493675
32.667518
22.177696
18.467903
15.563965
14.428496
14.386773
13.995767
14.275908
14.190674
14.144778
14.003515
14.275908
14.168620
13.764501
13.526678
13.060570
12.163520
11.948943
11.205673
10.972619
10.409951
10.389686
10.120869
9.631515
9.237528
9.112954
8.885860
8.733869
9.066463
8.567572
8.111000
7.955432
7.691979
7.754564
7.377863
7.412434
7.070899
7.277727
6.901622
7.006526
6.865859
7.298589
6.822944
6.861687
6.985664
6.655455
6.722808
6.473660
6.524920
6.361604
6.393790
6.168485
6.218553
5.885959
5.961657
##ZVALUE=300
0.936985
1.009703
1.025796
0.928640
0.959635
0.761747
1.060963
1.005530
0.973940
0.857711
1.144409
1.160502
1.041889
0.984669
1.117587
1.042485
1.310706
1.202822
1.311898
1.518726
1.510978
1.392961
1.658797
1.470447
1.606941
1.895428
1.961589
1.958609
2.235770
2.452731
2.815723
3.469586
9.183884
53.172708
127.267838
329.438448
573.949814
990.663767
1015.669703
1015.669703
1015.669703
1015.669703
1015.669703
1015.669703
977.047682
555.249453
321.620703
132.290721
60.552955
24.140477
19.859672
29.640794
39.417744
59.613585
77.179670
99.808574
113.611817
121.994615
120.344758
111.197829
96.857548
74.498653
57.392716
40.005445
28.841496
18.308759
13.886690
10.393858
10.165572
10.261536
9.457469
10.172725
9.897947
9.904504
9.511709
9.789467
9.761453
8.884668
8.575916
8.984804
8.539557
7.954836
7.860661
7.407665
7.981658
7.441640
7.741451
7.014871
7.186532
7.170439
6.768703
6.548762
6.876588
6.626844
6.673932
6.647706
6.670952
6.652474
6.189942
6.281734
6.484985
6.554723
6.745458
6.120801
6.521940
6.326437
5.948544
6.450415
6.401539
6.104708
6.269813
6.087422
6.144643
5.690455
5.629659
5.761981
##ZVALUE=305
0.881553
0.975728
1.108646
0.983477
0.849962
0.783801
0.907779
1.089573
1.030564
0.942945
1.030564
0.941753
0.947714
0.959635
1.028776
1.026988
1.103878
1.171827
1.471639
1.232624
1.358986
1.155734
1.220703
1.381636
1.490712
1.491904
1.543760
1.804829
1.706481
1.835823
2.090931
2.216697
2.674460
2.763867
6.436706
23.760796
96.850991
220.682621
498.521924
784.670711
1015.669703
1015.669703
1015.669703
1015.669703
1015.669703
1015.669703
1009.647846
733.717680
379.698873
206.465721
76.776743
32.718778
16.215444
17.398596
26.231408
36.732554
56.196451
71.457624
92.549920
104.503632
113.925934
113.013983
102.829933
90.344548
69.946647
54.327846
35.582781
25.409460
15.730858
11.715889
9.645820
8.696914
8.756518
8.321404
8.296967
7.851720
7.513762
7.670522
7.370710
6.967783
7.168651
6.789565
6.905794
7.183552
6.869435
6.601810
6.809831
6.340742
6.587505
6.301999
6.188750
6.194711
6.244779
6.093979
6.218553
5.980730
6.617904
6.388426
6.464720
6.167889
6.243587
6.050467
6.074905
6.252527
5.855560
6.065965
6.247759
5.908608
6.153584
5.890727
5.846620
5.788803
5.774498
5.757809
5.593896
5.741715
##ZVALUE=310
0.797510
0.762939
0.786781
0.793934
0.952482
0.972748
0.978708
0.844598
0.964999
0.999570
1.081824
1.030564
0.926852
1.067519
0.967979
0.980496
0.919700
0.995994
1.222491
1.083612
1.099706
1.319647
1.110435
1.526475
1.341701
1.266599
1.488924
1.557469
1.562834
1.664758
1.964569
1.744628
2.106428
2.153516
2.399683
2.633929
3.416538
9.795427
52.512884
129.447579
335.187912
575.524569
984.589458
1015.669703
1015.669703
1015.669703
1015.669703
1015.669703
1015.669703
965.041518
551.820993
327.387452
134.995580
59.098601
19.426942
13.022423
16.107559
21.540523
33.544898
45.896769
64.785480
80.897808
98.811984
105.372667
106.470585
100.360513
85.931420
71.130991
49.906969
36.010742
23.374557
16.646981
11.418462
9.224415
7.761717
7.263422
7.064939
6.646514
6.359816
6.241798
6.149411
6.007552
5.981922
6.136894
6.386638
6.436706
6.308556
6.143451
5.896688
5.917549
6.212592
6.031990
5.728602
6.040931
5.702972
5.929470
5.955696
5.664825
5.787611
5.834699
5.865693
6.024837
5.947948
5.796552
5.904436
5.411506
5.694628
5.733967
5.913973
5.917549
5.533695
5.546808
5.543828
5.572438
5.632639
5.202889
##ZVALUE=315
0.814795
0.823736
0.796914
0.902414
0.812411
0.864863
0.885725
0.937581
0.934601
0.754595
1.022816
0.902414
0.946522
0.871420
0.995994
0.986457
1.018643
1.075864
1.118779
1.089573
1.064539
1.186728
1.268983
1.147985
1.140833
1.326799
1.352429
1.296997
1.602769
1.449585
1.519918
1.468658
1.503825
1.873970
1.940727
1.904964
2.376437
2.569556
2.986789
4.900694
27.666688
81.974864
244.377851
450.204611
854.544640
1015.669703
1015.669703
1015.669703
1015.669703
1015.669703
1015.669703
1015.669703
702.621937
436.545610
199.053884
91.325641
25.342703
12.637973
11.077523
13.815761
20.323992
28.587580
43.004751
57.030916
77.597499
89.709759
99.799633
100.648999
93.317628
81.254840
63.380599
49.039721
34.067631
23.764968
15.684962
11.791587
8.139610
6.989837
6.111860
5.870461
5.716681
5.892515
5.850792
5.682707
5.664825
5.694628
5.576611
6.184578
5.761981
5.839467
6.064773
5.817413
5.451441
5.714893
5.590916
5.387664
5.741715
5.816817
5.774498
5.475879
5.750656
5.787611
5.744696
5.709529
5.719662
5.558729
5.794764
5.504489
5.703568
5.748868
5.675554
5.568862
5.606413
5.558729
5.317926
5.157590
##ZVALUE=320
0.736713
0.688434
0.776649
0.817776
0.720620
0.806451
0.927448
0.869632
0.886917
0.730753
0.882745
0.871420
0.990629
0.842810
0.942945
0.835657
1.093745
0.870824
0.975728
0.999570
0.949502
0.951886
1.155734
1.088977
1.148582
1.349449
1.283884
1.304746
1.308918
1.328588
1.641512
1.375675
1.496673
1.659989
1.803637
1.792908
1.905560
1.877546
2.289414
2.511740
2.861619
3.205538
12.676716
42.954683
156.562924
323.900580
667.271018
976.933837
1015.669703
1015.669703
1015.669703
1015.669703
1015.669703
1015.669703
886.815786
565.231442
255.385637
129.338503
43.904781
17.900467
9.845495
10.257959
12.847781
16.880631
26.890635
37.742853
55.768490
67.881942
85.144639
92.692971
94.282627
89.355707
76.541901
63.794851
45.842528
34.519434
22.256970
15.365481
9.367466
7.556677
6.222725
5.571842
5.540848
5.384684
5.522966
5.548596
5.284548
5.633831
5.611777
5.469918
5.554557
5.341768
5.461574
5.662441
5.388856
5.356669
5.467534
5.431771
5.645752
5.775690
5.456805
5.736947
5.484819
5.760789
5.545616
5.487800
5.655885
5.502701
5.622506
5.771518
5.644560
5.507469
5.599856
5.718470
5.161762
5.144477
##ZVALUE=325
0.758767
0.756979
0.884533
0.938773
0.816584
0.780821
0.839829
0.917912
0.714660
0.712872
0.751615
0.771880
0.792742
0.826716
0.900626
0.868440
0.915527
0.910759
1.058578
0.916719
1.032948
0.901818
0.965595
0.989437
0.857711
0.950694
1.024604
1.138449
1.180768
1.352429
1.364946
1.347661
1.404881
1.501441
1.560450
1.623631
1.764894
1.588464
1.708865
2.028942
2.173781
2.290606
2.553463
2.915859
5.226731
32.208562
87.743998
243.653655
459.632874
766.117573
1015.669703
1015.669703
1015.669703
1015.669703
1015.669703
1015.669703
999.320745
700.551867
351.677537
191.687942
68.146586
26.292801
9.996891
8.439422
9.590983
11.359453
16.958714
24.316907
39.253831
52.059889
68.405867
79.647899
87.466836
88.251829
82.111955
72.347522
57.193637
43.901801
28.817654
19.840598
12.120605
9.111762
6.819963
5.922914
5.424619
5.460978
5.471706
5.265474
5.134940
5.182624
5.195737
5.559921
5.062819
5.262494
5.362630
5.512834
5.434752
5.344748
5.577803
5.490780
5.413890
5.477667
5.680919
5.435944
5.515814
5.554557
5.664825
5.545616
5.478859
5.514622
5.640984
5.537868
5.458593
5.254745
5.481839
5.020499
##ZVALUE=330
0.766516
0.709891
0.905991
0.524521
0.896454
0.686646
0.766516
0.677705
0.727773
0.725985
0.881553
0.915527
0.878572
0.866652
0.936985
0.898838
0.965595
0.799894
0.795722
0.931621
0.829697
0.766516
0.886917
0.835657
0.839829
1.014471
0.991821
1.112819
1.048446
0.996590
1.153946
1.336932
1.288652
1.349449
1.279712
1.351833
1.444817
1.589656
1.600981
1.589656
1.758933
1.973510
1.931787
2.085567
2.488494
2.577901
3.735423
10.145903
52.218437
134.958625
348.838568
597.200394
998.528004
1015.669703
1015.669703
1015.669703
1015.669703
1015.669703
1015.669703
902.866721
497.629642
278.031826
107.955933
44.403672
12.877584
8.583665
8.018613
8.429885
11.096597
16.070604
25.813580
34.838915
49.949884
62.619448
74.570775
81.813931
83.361864
77.874660
65.203905
54.373741
37.713647
28.533936
18.489957
13.195872
9.404421
7.200837
6.011724
5.554557
5.328655
5.037785
5.116463
5.019903
5.010962
4.929900
4.920959
5.107522
5.089641
5.127788
5.241632
5.210638
5.324483
5.417466
5.445480
5.773902
5.485415
5.371571
5.530715
5.749464
5.783439
5.449653
5.383492
5.451441
5.497932
5.296469
5.367994
5.252957
##ZVALUE=335
0.630617
0.658631
0.715852
0.675917
0.628829
0.780821
0.653863
0.920892
0.749826
0.683665
0.757575
0.573993
0.743866
0.776649
0.797510
0.720620
0.784993
0.785589
0.761747
0.940561
0.793934
0.823736
0.859499
0.967979
0.919700
0.964999
0.900626
1.077652
0.932813
1.029968
1.073480
1.032948
1.154542
1.149774
1.266599
1.342893
1.339912
1.402497
1.191497
1.494884
1.488924
1.505613
1.674891
1.675487
1.856685
1.979470
2.095699
2.234578
2.727509
5.098581
28.524995
80.097914
230.430961
426.641703
807.889700
1015.669703
1015.669703
1015.669703
1015.669703
1015.669703
1015.669703
1015.669703
629.922748
380.957723
160.805583
69.740415
18.970966
9.311438
7.489920
7.687807
8.457899
10.395646
15.242696
21.826625
33.434629
44.413805
58.965683
69.281459
76.255798
77.417493
71.077943
62.980652
50.973892
40.036440
27.959943
19.950867
13.137460
9.472966
7.083416
6.135702
5.271435
5.071759
5.007982
5.114675
4.709959
4.776716
4.841685
4.964471
5.325675
5.199909
4.961491
5.228519
5.326867
5.154610
5.194545
5.361438
5.282760
5.472898
5.389452
5.526543
5.421638
5.531907
5.231500
5.255938
4.891753
5.312562
##ZVALUE=340
0.677705
0.595450
0.681877
0.671744
0.759959
0.676513
0.522733
0.589490
0.759959
0.739694
0.758767
0.609756
0.625849
0.745654
0.734925
0.932813
0.722408
0.832677
0.924468
0.765920
0.877976
0.798702
0.897646
0.950694
0.842810
0.954866
0.987649
0.870824
0.770688
0.938773
0.796914
1.016855
1.036525
1.067519
1.068711
1.062751
1.146793
1.174808
1.361966
1.265407
1.322627
1.405478
1.491904
1.565814
1.426935
1.620650
1.833439
1.946688
2.191663
2.380610
2.651811
3.165603
14.410615
46.985745
156.472921
315.513611
668.361783
977.001786
1015.669703
1015.669703
1015.669703
1015.669703
1015.669703
1015.669703
783.867836
486.260653
213.407874
97.954869
25.859475
10.575652
7.607937
7.415414
7.399917
8.096695
10.088682
13.644695
21.923780
30.711889
44.976473
54.497719
65.804720
70.154667
71.606636
67.869425
58.646798
50.476789
37.800670
28.631687
18.770695
13.525486
8.771420
6.788969
5.625486
5.227923
4.810691
4.910827
4.690886
4.720688
4.949570
4.796982
5.082488
4.906654
5.292892
5.210638
5.021691
5.182624
5.085468
5.340576
5.254745
5.278587
5.236864
5.346537
5.221963
5.116463
5.213618
4.984736
##ZVALUE=345
0.720620
0.739694
0.886917
0.791550
0.636578
0.632405
0.745654
0.646710
0.556707
0.672936
0.712872
0.835657
0.726581
0.617504
0.757575
0.785589
0.713468
0.745654
0.879765
0.766516
0.785589
0.791550
0.865459
0.749826
0.908971
0.928640
0.815988
0.835657
0.845790
0.905991
0.890493
0.977516
0.939965
0.955462
1.024604
1.044869
0.964999
0.971556
1.181960
1.229644
1.121759
1.262426
1.133680
1.214743
1.166463
1.468658
1.557469
1.573563
1.775622
1.701713
1.966953
2.108812
2.364516
2.708435
6.590486
24.413466
99.339485
214.270949
476.436019
746.463537
1015.669703
1015.669703
1015.669703
1015.669703
1015.669703
1015.669703
944.046974
624.256730
284.788609
139.155984
45.444965
17.271638
8.088946
7.501841
7.169843
6.558895
7.361770
8.626580
12.876987
18.435717
28.918982
37.605762
49.787760
57.810545
64.488649
66.479445
63.371658
57.300925
46.700835
38.085580
26.652813
19.996762
12.675524
9.297729
6.724596
5.650520
4.883409
4.890561
5.016923
4.816651
4.841685
5.006790
4.878640
4.865527
4.974604
5.046725
4.901886
4.768968
5.001426
4.991889
5.084872
5.080700
4.997849
5.136728
4.928708
4.766583
##ZVALUE=350
0.572801
0.732541
0.654459
0.685453
0.577569
0.603795
0.717640
0.773668
0.747442
0.774860
0.724792
0.788569
0.734925
0.660419
0.671744
0.639558
0.594854
0.650883
0.792742
0.774860
0.805855
0.732541
0.768900
0.781417
0.858903
0.803471
0.882745
0.786781
0.926852
0.819564
0.931621
0.851750
1.007915
0.796914
0.838637
0.885725
0.810623
1.065731
0.943542
1.014471
1.013875
1.006722
1.207590
1.197457
1.266599
1.451969
1.267791
1.172423
1.322627
1.358986
1.530647
1.660585
1.914501
1.887679
2.222657
2.389550
3.823638
13.179779
60.616732
140.565634
346.015692
592.554808
985.570550
1015.669703
1015.669703
1015.669703
1015.669703
1015.669703
990.421772
683.993697
339.221954
183.293819
65.831542
24.002790
8.992553
7.034540
6.211996
6.010532
5.814433
6.233454
8.380413
11.496544
17.302632
23.923516
34.553409
43.013692
52.945614
57.867765
60.745478
59.059858
53.061843
45.687556
34.844875
26.700497
18.223524
13.565421
9.200573
7.038713
5.663633
5.290508
4.749894
4.808903
4.648566
4.594922
4.941821
4.920959
4.759431
4.696846
4.946589
4.885793
4.807711
4.742742
4.903674
4.663467
4.839897
4.704595
##ZVALUE=355
0.711679
0.698566
0.708699
0.882745
0.619888
0.692606
0.705719
0.642538
0.661612
0.792742
0.786781
0.733733
0.769496
0.649691
0.801682
0.696778
0.762939
0.666976
0.768900
0.701547
0.634789
0.733733
0.913739
0.900626
0.853539
0.809431
0.902414
0.814795
0.885725
0.815988
0.913739
0.946522
0.823736
0.889897
0.920892
0.992417
1.143813
0.990629
0.800490
0.875592
1.070499
1.143813
1.135468
1.056790
1.142621
1.138449
1.262426
1.334548
1.391768
1.316667
1.390576
1.472831
1.482964
1.752973
1.843572
1.987815
2.189875
2.219677
2.872944
5.652905
33.607483
94.503760
255.911946
447.278619
810.202956
1015.669703
1015.669703
1015.669703
1015.669703
1015.669703
1015.669703
828.436613
455.079675
245.737433
90.741515
35.115480
9.646416
6.620884
6.115437
5.686879
5.549788
5.563498
5.890727
7.246733
10.249615
14.115572
22.003651
28.927922
38.864613
46.444535
53.030849
55.369735
54.796934
50.044656
42.227507
34.890771
25.606751
19.901991
13.274550
9.947419
7.159710
5.852580
4.953742
4.634857
4.758835
4.685521
4.823804
4.485846
4.467964
4.388690
4.531741
4.742742
4.535913
4.627705
4.387498
4.414916
##ZVALUE=360
0.724792
0.615716
0.725985
0.605583
0.711679
0.748634
0.766516
0.829697
0.627637
0.777841
0.781417
0.672936
0.575781
0.815988
0.797510
0.723600
0.648499
0.821948
0.961423
0.718832
0.715852
0.724792
0.789762
0.696778
0.790954
0.758767
0.904799
0.923872
0.976920
0.847578
0.828505
0.909567
0.828505
0.854731
0.774860
0.982881
0.977516
1.035929
0.859499
0.963807
1.158714
1.075864
0.926852
1.148582
0.935793
1.242757
1.121759
1.302958
1.296997
1.323819
1.359582
1.437664
1.387596
1.513958
1.623631
1.525879
1.982450
1.774430
2.110600
2.283454
2.663732
3.378987
15.353560
48.007965
158.679485
309.106708
622.910857
921.183825
1015.669703
1015.669703
1015.669703
1015.669703
1015.669703
990.109444
608.738661
349.324942
134.010911
53.915977
14.113784
7.395744
6.199479
5.871654
5.195737
5.155802
4.821420
5.398989
6.311536
8.008480
12.365580
17.083883
25.625825
32.152534
41.508675
46.009421
49.916506
49.795508
46.680570
42.078495
33.991933
27.587414
19.741654
14.705658
10.267496
7.887483
5.885959
5.223751
4.631877
4.655719
4.507899
4.404783
4.237890
4.209876
4.228950
4.378557
4.340410
3.955960
##ZVALUE=365
0.613928
0.722408
0.613928
0.645518
0.689626
0.788569
0.711679
0.562668
0.697970
0.729561
0.734925
0.817776
0.750422
0.716448
0.711679
0.704527
0.796914
0.862479
0.650883
0.847578
0.710487
0.665784
0.732541
0.958443
0.927448
0.775456
0.731945
0.870824
0.861883
0.764728
0.913739
0.832677
0.862479
0.905991
0.943542
0.899434
0.847578
0.934601
0.981688
0.933409
0.911951
0.889897
0.988841
1.007915
1.206994
1.133680
1.172423
1.122952
1.147985
1.262426
1.196861
1.361966
1.267791
1.426935
1.481771
1.609921
1.625419
1.709461
1.828671
1.960993
2.069473
2.320409
2.382994
2.970695
7.200837
26.032925
104.594827
224.921703
511.505008
804.703832
1015.669703
1015.669703
1015.669703
1015.669703
1015.669703
1015.669703
752.847791
459.945798
199.404955
90.181828
23.957491
9.559989
6.213784
5.318522
5.428791
4.937649
4.585981
4.476905
4.821420
5.296469
7.105470
9.751916
14.795661
20.015836
28.539896
34.397840
41.756630
45.219660
46.080947
44.954419
39.697886
34.634471
27.235746
20.772815
14.832616
11.210442
7.549524
5.777478
5.197525
4.582405
4.107952
4.126430
3.960729
3.732443
3.749728
3.856421
##ZVALUE=370
0.663996
0.686646
0.748634
0.676513
0.628829
0.691414
0.751615
0.740886
0.711679
0.735521
0.652671
0.803471
0.712872
0.800490
0.807643
0.808835
0.885725
0.735521
0.715852
0.668764
0.716448
0.653863
0.861883
0.755787
0.810623
0.736713
0.768900
0.991821
0.739694
0.828505
0.862479
0.881553
0.835657
0.821948
0.777841
0.863671
0.939965
0.963807
1.045465
0.783801
1.064539
0.985861
0.979900
0.992417
1.020432
1.063943
0.900626
1.107454
1.070499
1.109838
1.107454
1.174808
1.202822
1.165867
1.341701
1.295805
1.316667
1.435876
1.416802
1.512766
1.752973
1.854897
1.902580
2.071857
2.276897
2.663732
4.042983
13.417602
75.041652
184.569955
433.625579
687.916875
1015.669703
1015.669703
1015.669703
1015.669703
1015.669703
1015.669703
819.188952
542.096496
263.767838
133.224726
43.438673
15.812516
6.263852
5.569458
5.039573
4.543662
4.375577
4.225969
4.148483
4.190803
4.895926
6.195903
8.869767
12.059808
17.901659
23.300648
31.392574
37.085414
41.569471
44.197440
42.671561
39.468408
33.159852
28.010607
20.351410
14.815927
11.310577
8.199811
6.317496
4.952550
4.392862
3.891587
3.648996
3.631711
##ZVALUE=375
0.588894
0.609756
0.554919
0.663996
0.489950
0.696778
0.646710
0.686646
0.580549
0.681877
0.634789
0.632405
0.583529
0.675917
0.685453
0.662804
0.673532
0.717640
0.685453
0.707507
0.628829
0.676513
0.778437
0.594854
0.874996
0.555515
0.779629
0.786781
0.844598
0.867844
0.722408
0.840425
0.860691
0.907779
0.716448
0.848770
0.923872
0.859499
0.945926
0.863671
0.708699
1.024604
0.925660
1.057982
0.885725
0.920892
1.056790
1.058578
0.988841
1.076460
0.974536
0.943542
1.089573
0.945926
1.035929
1.006722
1.264811
1.283884
1.286864
1.233816
1.306534
1.491904
1.394749
1.640916
1.927614
1.807809
1.890659
2.360940
3.046989
7.061958
37.369728
102.800727
296.888947
526.549816
910.331607
1015.669703
1015.669703
1015.669703
1015.669703
1015.669703
980.743766
700.492859
383.991599
212.922692
79.897642
32.044649
8.720756
5.322695
4.926920
4.597902
4.369617
4.077554
3.911853
3.804564
4.027486
4.110932
5.308986
6.706715
9.991527
13.994575
20.475984
26.455522
33.793449
37.759542
40.590763
40.833950
38.571954
34.971833
28.403997
23.195744
17.024875
13.164878
9.439588
6.884933
5.197525
4.335642
##ZVALUE=380
0.491738
0.498891
0.516772
0.615716
0.584722
0.563860
0.522733
0.696778
0.636578
0.565648
0.760555
0.528693
0.704527
0.659823
0.640750
0.486970
0.735521
0.656843
0.635982
0.672936
0.691414
0.691414
0.642538
0.798702
0.665784
0.834465
0.656843
0.807643
0.807643
0.774860
0.526905
0.793934
0.791550
0.914931
0.855923
0.918508
0.952482
0.902414
0.915527
0.835657
0.889897
0.851750
1.050830
1.077652
1.020432
1.136661
0.864863
1.023412
0.952482
0.846982
0.885725
0.962615
0.956655
1.027584
1.058578
1.105666
1.139641
1.129508
1.258850
1.197457
1.300573
1.291633
1.353621
1.387596
1.503825
1.671910
1.806617
1.866817
2.234578
2.594590
2.794862
4.337430
21.265745
66.813827
204.229951
391.603708
767.691731
1015.669703
1015.669703
1015.669703
1015.669703
1015.669703
1015.669703
867.897868
502.963662
295.068622
119.903684
53.179860
13.895631
6.033778
4.774928
4.357696
4.199743
4.138947
3.867745
3.989935
3.860593
3.732443
4.092455
4.632473
6.437898
8.733869
13.290644
17.526746
24.923682
29.926896
35.633445
38.565993
39.070845
37.457943
34.386516
28.955936
23.443699
17.404556
13.394952
8.833408
##ZVALUE=385
0.557899
0.617504
0.546575
0.521541
0.518560
0.614524
0.547767
0.561476
0.533462
0.540614
0.706911
0.679493
0.625849
0.605583
0.509620
0.588894
0.674725
0.692606
0.762939
0.609756
0.621676
0.497699
0.623465
0.616908
0.677705
0.686646
0.714660
0.704527
0.643730
0.745654
0.734925
0.793934
0.824928
0.893474
0.942945
1.028776
0.880957
0.919700
1.082420
1.042485
1.010895
1.113415
1.027584
1.090765
0.918508
0.964999
1.109838
1.012683
1.111627
0.979900
1.132488
1.136661
0.900626
1.116991
1.016855
1.087785
0.885725
1.036525
1.135468
1.184940
1.218915
1.300573
1.096725
1.233816
1.343489
1.381636
1.493692
1.688600
1.829863
2.172589
2.157688
2.471805
2.669692
4.106760
9.706616
33.688545
131.678581
284.914970
612.545609
1015.669703
1015.669703
1015.669703
1015.669703
1015.669703
1015.669703
1015.694737
716.762543
448.642969
197.923779
37.714839
25.203824
5.329847
4.694462
4.321933
4.174709
4.236698
4.035830
3.833771
3.798604
3.477931
3.549457
3.830791
4.121661
6.878972
7.538795
14.590621
15.486479
20.571947
25.479794
30.758977
33.889413
35.940409
35.626888
29.029846
28.929710
23.411512
##ZVALUE=390
0.675917
0.483990
0.536442
0.664592
0.523925
0.689626
0.432730
0.571609
0.442863
0.648499
0.468493
0.602603
0.713468
0.435710
0.520945
0.479817
0.483990
0.620484
0.749826
0.545979
0.571609
0.634789
0.594854
0.656843
0.610948
0.595450
0.748634
0.748634
0.775456
0.883937
0.896454
0.908971
0.949502
0.917912
0.898838
0.994802
1.002550
1.147985
1.227856
1.218915
1.254678
1.128912
1.076460
1.020432
1.124740
1.212955
1.159906
1.165867
0.938773
1.068711
1.214743
1.089573
1.235604
1.076460
1.050830
1.078844
1.131892
1.076460
1.059771
1.033545
1.122952
1.245737
1.146793
1.427531
1.306534
1.509786
1.778603
1.552701
1.738667
1.999736
2.022982
2.206564
2.101660
2.215505
2.416968
2.543926
11.740923
20.806789
181.729794
199.822783
452.414751
742.483735
1015.669703
1015.669703
1015.669703
1015.669703
1015.669703
1015.669703
989.905000
611.616969
280.649662
140.959620
32.903552
14.831424
5.916953
4.657507
4.269481
4.464984
4.156828
4.062653
3.979802
3.646612
3.544688
3.570914
3.610849
3.929734
4.972816
6.164908
9.056926
12.059808
20.060539
21.744967
30.506849
31.125546
33.487678
34.277439
##ZVALUE=395
0.487566
0.575781
0.679493
0.541806
0.712872
0.665784
0.515580
0.736713
0.643730
0.550747
0.541806
0.579953
0.581741
0.631809
0.409484
0.692606
0.638962
0.534654
0.611544
0.607967
0.679493
0.779629
0.491738
0.701547
0.667572
0.739694
0.796914
0.650883
0.757575
0.680685
0.711679
0.923872
0.941753
0.933409
0.810623
0.945926
0.918508
1.167655
1.157522
1.062751
1.184940
1.229644
1.226664
1.314878
1.067519
1.169443
1.244545
1.149774
1.272559
1.145601
1.162887
1.055598
1.149774
1.111627
1.044869
1.198649
1.309514
1.206994
1.288652
1.135468
1.204610
1.138449
1.308918
1.300573
1.356602
1.416802
1.474619
1.423955
1.648664
1.602769
1.904964
2.015829
2.114773
2.001524
1.942515
1.914501
2.299547
2.617836
3.016591
13.837814
49.556494
168.172717
320.939422
625.038743
938.595533
1015.669703
1015.669703
1015.669703
1015.669703
1015.669703
1015.669703
764.112473
470.506549
197.048783
88.756680
25.333762
9.359717
4.907846
4.424453
4.515648
4.338622
4.324913
4.324913
4.144907
4.086494
3.691912
3.600717
3.421903
3.662705
4.425645
5.315542
7.530451
10.331869
15.204549
19.653440
24.620891
##ZVALUE=400
0.680685
0.705719
0.683665
0.651479
0.543594
0.672936
0.592470
0.835657
0.541806
0.682473
0.591874
0.569820
0.546575
0.572801
0.550747
0.625849
0.610948
0.722408
0.612736
0.670552
0.608563
0.699759
0.649691
0.617504
0.814795
0.695586
0.646710
0.737906
0.607967
0.830889
0.840425
0.940561
0.887513
1.004934
1.001954
1.051426
1.005530
1.081824
1.135468
1.045465
1.031756
1.141429
1.073480
1.201630
1.222491
1.198649
1.152754
1.260638
1.218915
1.103878
1.133680
1.081824
1.060963
1.156926
1.213551
1.087785
1.223683
1.067519
1.130700
1.165867
1.162887
1.091957
1.271963
1.038909
1.122952
1.234412
1.381636
1.651645
1.554489
1.781583
1.756549
1.916885
1.875758
1.863837
1.843572
1.861453
1.888871
1.923442
2.199411
2.352595
2.828836
5.563498
29.496551
84.371567
237.178802
434.442759
812.804699
1015.669703
1015.669703
1015.669703
1015.669703
1015.669703
1015.669703
981.582999
582.607985
349.191427
146.378875
66.898465
19.801855
7.001758
4.625916
4.403591
4.590750
4.555583
4.358888
4.428625
4.191995
3.796816
3.666878
3.451705
3.621578
3.262758
3.831983
4.694462
6.555915
9.652972
##END
