##TITLE=3-2
##FORMAT=SPECTACLE-ASCII V-1.2
##DATA TYPE=ULTRAVIOLET SPECTRUM
##SECOND TYPE=ULTRAVIOLET SPECTRUM
##DATE=04/09/18
##TIME=14:17:34
##SPECTROMETER/DATA SYSTEM=SPECTACLE
##XUNITS=NM EM
##YUNITS=ENERGY
##YFACTOR=1
##FIRSTX=220
##LASTX=450
##NPOINTS=116
##3DDATA=Equidistant
##ZUNITS=NM EX
##FIRSTZ=210
##LASTZ=400
##ZPOINTS=39
##XYDATA=(Y..Y)
##ZVALUE=210
26.997924
25.473833
18.905997
13.739467
12.572408
12.142658
10.584593
9.147525
8.627772
8.204579
5.867481
6.230474
4.570484
4.089475
4.470944
5.020499
5.370975
5.676746
5.972981
6.129742
6.482601
7.330775
7.974505
8.080602
9.867549
10.706782
11.523962
11.964440
13.073683
14.078617
14.025569
14.963746
15.493631
16.145706
14.699697
14.904737
15.629530
16.578436
16.745925
16.272664
16.566515
17.959476
18.210411
15.931726
16.133785
15.801787
16.124845
17.049909
17.301440
17.299652
16.092658
16.917586
16.636848
17.701983
17.225742
16.296506
17.501712
16.849637
16.763806
14.991760
17.298460
16.473532
17.174482
15.592575
17.627478
16.332865
17.920732
19.221902
22.990704
25.171638
29.351711
34.128428
37.890673
47.417879
46.094656
50.415993
52.243471
52.073598
52.328706
49.709678
42.917728
41.045547
36.822557
30.086637
25.525689
22.142529
18.742681
18.018484
16.481876
18.871427
22.222996
31.325817
37.629604
49.993992
57.692528
70.645809
78.972578
89.872479
95.578432
103.678703
107.524991
108.383894
108.914971
99.626780
96.448660
93.784928
84.227920
77.132583
71.682930
60.483813
46.371818
36.919713
30.143857
23.920536
22.562742
21.139979
##ZVALUE=215
84.573627
87.738633
63.070655
49.814582
37.137866
26.062727
18.946528
16.172528
16.186833
14.820695
12.435913
11.929870
9.228587
8.064508
6.363988
5.975962
5.649924
5.701780
5.369782
6.276965
6.947517
6.656647
7.770658
8.135438
8.518696
10.859966
10.761619
12.561679
13.140440
14.106631
14.053583
15.098453
14.961958
15.267730
16.936660
16.459823
16.479492
17.473698
16.641617
16.225576
17.543435
16.298890
17.021894
16.841888
18.940568
19.376874
17.409921
17.956495
19.082427
19.031763
16.498566
19.257665
18.236637
18.844604
19.770861
19.669533
18.064976
18.800497
19.399524
18.349886
18.183589
17.697811
18.401742
17.702579
16.188622
19.585490
19.858479
18.709898
22.410750
25.637746
28.312802
31.998754
35.859942
39.108992
45.404434
46.069622
45.232773
43.538809
47.500730
42.068958
37.552714
34.814477
29.731989
26.878715
24.615526
19.206405
16.641617
15.850663
13.893843
14.997721
13.408661
13.482571
16.115904
16.199946
23.544431
25.977492
39.801598
47.514439
64.656734
79.305768
92.153549
110.852718
127.633810
140.074492
151.422620
162.596703
163.111687
160.764456
158.524513
148.856640
138.098001
123.174787
119.021535
93.139410
82.720518
63.546896
##ZVALUE=220
196.095705
196.959972
190.230608
167.920589
144.778490
104.572773
76.453686
50.933957
38.195848
26.582479
26.630759
26.365519
25.625825
19.609928
15.457869
12.428761
9.551644
8.308887
7.656813
7.059574
7.374883
7.846951
8.001924
9.283423
9.072423
10.392666
12.454987
12.297630
13.253689
12.967587
14.227629
15.369654
14.209747
14.782548
15.911460
16.795993
17.415881
19.186735
18.351674
17.741919
18.742681
20.139813
20.426512
21.431446
20.490885
20.299554
21.051764
22.597909
21.734834
22.448897
22.547841
22.119880
23.153424
23.720860
21.785498
22.712946
22.168756
23.664832
22.785664
22.707582
21.857619
23.506880
22.035837
22.161603
20.735860
21.053553
23.721457
21.915436
23.919940
24.606586
30.029416
33.742785
37.974715
42.278767
44.513941
44.537783
43.093562
44.074655
43.950677
40.324926
36.977530
33.648610
32.305717
29.532909
24.064779
20.053983
18.114448
16.860962
15.025735
13.994575
14.652610
13.614893
14.232993
13.513565
13.294816
13.636947
13.685822
12.736917
17.046928
23.100972
33.265948
45.240521
65.508485
81.765652
107.390881
129.407644
156.673789
185.173750
207.248926
233.426690
244.975686
256.890655
254.530907
251.313448
234.527588
214.964747
##ZVALUE=225
258.025527
258.302689
320.428014
345.093608
354.107618
313.668847
267.773867
184.311867
128.791928
86.137652
60.635805
44.403672
40.059686
41.238666
41.300654
37.160516
29.771924
23.037791
18.688440
14.094710
10.507703
9.124875
9.306669
8.634925
8.190870
8.675456
10.099411
11.292696
12.110472
12.850761
14.098883
14.496446
13.232827
15.176535
15.911460
17.341971
18.046498
17.614961
19.466877
19.991994
20.279884
21.365881
21.639466
22.108555
22.210479
22.005439
22.625923
23.351908
23.534894
24.873614
24.823546
24.401546
25.502443
23.584962
25.058985
25.976896
24.509430
25.305748
23.961663
25.290847
24.692416
22.922754
23.196936
23.190975
22.793412
23.348927
23.020506
23.176670
26.278496
28.421879
29.376745
34.309626
34.151673
38.508773
40.657520
43.252707
41.441917
36.939979
37.072897
32.367706
32.511950
27.888417
26.560426
23.621917
21.090508
17.748475
17.091632
15.977621
16.006827
13.739467
15.538931
13.718605
14.239550
14.640689
13.320446
13.148785
12.983680
13.665557
13.841987
13.029575
12.100935
13.662577
14.652610
18.704534
25.160909
44.128895
60.188770
85.668564
113.098621
153.382421
188.822746
233.687758
265.485644
323.264003
348.268747
377.254486
##ZVALUE=230
167.347789
177.605748
290.315747
403.270721
496.354699
584.734678
595.081449
554.009676
482.149720
348.727703
260.059834
152.308941
100.767612
67.185760
62.551498
62.770844
62.638521
57.586432
53.773522
43.322444
31.648874
26.074648
16.815662
12.364984
11.890531
10.661483
10.065436
11.007786
12.827516
12.012720
12.880564
12.492537
13.395548
14.424920
14.768839
15.564561
17.110705
18.002987
20.375848
18.245578
20.547509
21.824837
23.886561
26.185513
24.626851
25.207996
24.827719
24.773479
27.472973
27.051568
25.765896
26.542544
27.653575
26.643872
25.090575
25.882721
26.236773
26.128888
25.448799
26.802421
26.770830
25.090575
24.337769
23.422837
24.188757
23.733974
26.719570
23.922920
29.472709
28.555989
32.571554
35.920739
36.503673
39.713979
41.773915
42.675734
40.383935
38.297772
35.849810
35.528541
31.168461
30.037761
25.040507
24.317503
21.508932
19.436479
17.717481
17.270446
16.496778
16.583800
16.457438
15.350580
15.554428
15.939474
15.043616
15.950799
14.399886
14.709830
15.419722
13.967752
15.332699
15.773773
15.023947
14.158487
14.597774
13.059974
14.994740
17.057657
20.703673
33.115745
47.128797
75.573921
108.094811
164.382458
210.116506
282.151699
##ZVALUE=235
43.372512
51.055551
120.353699
221.767426
352.271795
554.790497
711.447001
888.936520
947.622657
913.807750
807.070732
613.488555
448.327661
265.440941
178.829432
108.765960
89.695454
89.116693
91.132522
90.243816
85.868835
75.444579
57.385564
43.721795
29.682517
24.641752
16.678572
14.832616
13.371706
14.348626
14.346838
13.525486
15.258789
15.535951
14.676452
18.528700
17.928481
18.914938
20.237565
21.032691
21.805763
22.315979
24.033785
23.719668
25.304556
26.384592
24.303794
27.519464
25.136471
25.629997
28.059483
26.695728
25.566816
25.709867
25.776625
27.120709
24.766922
26.416779
25.879741
25.688410
27.274489
24.639964
24.855733
24.920702
23.489594
23.410916
23.911595
24.996996
26.287436
28.944612
32.723546
34.526587
39.556623
41.537881
42.473674
45.033693
38.722754
41.372776
37.493706
35.139918
31.762719
29.137731
27.813911
25.341511
20.742416
21.319985
20.826459
17.600656
17.727613
16.815662
17.024875
18.007755
17.499924
15.378594
15.912652
16.110539
16.875863
16.692877
15.717745
15.756488
15.532970
16.275644
14.673471
15.865564
14.709830
15.170574
15.461445
14.897585
15.718937
13.637543
14.426708
15.871525
18.291473
24.099946
36.722422
66.550970
##ZVALUE=240
4.212856
4.400611
18.944740
52.123666
117.868781
279.683471
470.529795
770.276785
995.970964
1015.669703
1015.669703
1015.669703
1015.669703
989.271998
783.053637
497.303605
334.587693
192.973614
136.399865
112.829804
120.279789
121.679902
125.843883
111.815929
94.694495
70.747733
55.074692
38.823485
26.248693
20.850897
17.378926
16.328692
17.501712
17.458797
17.815828
18.104911
18.803477
19.390583
20.241737
20.549893
23.329854
23.981929
22.918582
26.128888
23.855567
25.676489
23.645759
25.634766
25.077462
28.349757
26.467443
26.268959
25.600791
27.781725
24.494529
25.200844
25.556684
24.963617
27.237535
24.715662
24.200678
24.282932
23.925900
22.528768
26.273727
25.190711
23.233891
25.040507
27.017593
28.526783
31.600595
35.227537
39.646626
42.463541
43.414831
43.729544
39.215684
41.099787
37.719607
36.486983
34.199953
30.954480
27.690530
24.660826
23.395419
19.681454
19.776821
18.691421
17.729998
18.169880
17.563701
17.338991
16.882420
17.339587
18.887520
16.823411
17.106533
17.467737
17.137527
15.666485
17.305613
16.477704
16.701818
16.088486
17.612576
17.113686
15.913844
17.270446
16.769767
15.712976
16.255975
14.578700
15.910864
15.451908
15.804768
15.480518
##ZVALUE=245
3.524423
3.353953
3.443956
3.910661
8.314848
36.765933
92.857480
238.626599
427.180529
762.107968
1015.669703
1015.669703
1015.669703
1015.669703
1015.669703
1015.669703
1015.669703
766.865611
513.052940
273.334980
173.815489
120.236874
123.671889
136.432648
141.822696
134.286880
122.933984
106.501579
81.736445
62.524676
44.605732
31.035542
23.058653
18.656850
18.591881
19.168854
17.694831
18.558502
19.194484
19.310713
19.823909
20.197630
20.855665
21.018982
21.337867
21.601915
22.414923
21.988750
21.730661
21.421909
22.445917
23.213625
22.476912
22.037625
23.110509
21.372437
22.291541
20.379424
20.261407
21.258593
20.789504
19.895434
20.460486
21.905899
20.025969
20.942688
20.657778
22.146702
23.474693
23.070574
27.970672
28.468966
33.670664
32.911897
37.153959
35.970807
34.769773
31.775832
31.499863
29.248595
25.247931
24.430752
22.884607
20.491481
19.384623
18.131733
16.568899
15.082955
15.468597
16.024709
14.810562
14.994740
14.404655
14.054775
15.049577
14.353991
14.874935
14.067888
14.576912
14.485717
14.145970
14.183521
14.455914
14.641881
13.924837
14.747977
14.572740
14.605522
14.253855
13.409853
13.369918
13.615489
14.123917
13.650656
13.328791
13.575554
##ZVALUE=250
2.925992
2.833605
2.680421
3.311634
3.108978
3.206730
5.265474
22.758842
67.057610
183.357000
355.680585
721.364617
1010.875702
1015.669703
1015.669703
1015.669703
1015.669703
1015.669703
1015.669703
1005.118489
709.765553
391.399860
225.582719
132.530928
114.344954
132.309794
146.041512
146.680474
146.792531
132.781863
109.879971
91.411471
64.921975
47.982931
31.268001
25.647879
19.572973
19.727945
18.029809
19.768476
19.298792
19.221902
19.497871
20.353794
20.947456
20.878911
20.297766
20.035505
21.161437
20.302534
20.870566
20.144582
19.926429
21.030903
20.894408
20.301938
20.482540
19.782782
19.151568
18.252730
17.410517
17.921925
18.632412
18.324852
18.360615
17.637610
18.393993
18.800497
19.574761
21.290779
23.188591
25.130510
26.637912
27.806759
31.668544
28.832555
30.099750
27.926564
25.977492
25.056601
22.865534
20.975471
19.416809
17.516613
15.249848
15.799999
14.973879
13.228655
13.735890
12.297630
13.432503
12.520552
12.474656
12.828708
12.171865
12.258887
13.114810
12.030602
12.872815
11.774898
12.497902
12.073517
12.615919
12.064576
11.376739
11.786819
11.316538
11.815429
11.979938
11.480451
10.927916
11.638999
10.774732
11.214614
11.117458
12.407899
##ZVALUE=255
2.463460
2.454519
2.261996
2.713799
2.908707
3.246665
3.048778
3.652573
4.076958
11.272430
41.520596
142.265558
285.674930
614.708662
938.354731
1015.669703
1015.669703
1015.669703
1015.669703
1015.669703
1015.669703
1015.669703
980.163813
541.342497
310.756564
153.457522
117.417574
115.900636
135.248899
149.740577
158.889890
153.467655
138.779879
120.455623
89.660883
70.860982
47.957897
35.920739
25.788546
23.627877
21.244884
19.352436
20.088553
20.910501
20.742416
21.565557
21.138787
21.834970
20.700693
21.330714
20.502806
20.687580
20.799637
21.008849
20.286441
19.556880
20.809770
19.789934
18.795729
18.729568
18.144846
18.662810
18.327832
17.781854
17.532706
16.330481
19.193888
17.340779
18.997788
19.273758
22.012591
22.009611
24.611950
25.748610
25.526881
26.173592
25.174618
24.703741
22.180676
21.107793
20.182729
18.508434
15.954971
15.105605
14.787912
12.031794
12.274981
12.237430
10.666847
11.732578
11.217594
10.677576
11.005998
11.219978
10.862947
11.228919
10.697842
10.509491
10.381937
11.384487
11.019707
11.283755
10.816455
10.947585
11.276603
10.735989
10.500550
10.592937
10.781884
9.641647
10.567904
10.390878
10.280609
10.502934
9.489655
10.335445
##ZVALUE=260
2.456903
2.212524
2.376437
2.478957
2.335906
2.863407
2.520680
2.889633
3.096461
2.982616
3.350973
6.512403
21.279454
95.193982
194.730759
478.314757
805.179477
1015.669703
1015.669703
1015.669703
1015.669703
1015.669703
1015.669703
1015.669703
1015.669703
765.436888
470.455885
223.754644
134.481788
104.930997
117.390752
137.092471
154.651999
165.007710
162.233710
152.016878
123.727918
99.811554
72.300434
53.699613
40.374994
30.066967
25.656819
23.216605
23.061633
22.843480
23.171902
23.018718
22.740960
22.988915
22.509694
22.395849
21.599531
22.072792
21.943450
21.300912
20.893812
20.240545
19.914508
20.055771
18.949509
19.381642
18.001795
17.831922
17.014742
16.785860
17.393827
16.893744
17.054677
18.217564
19.901991
20.270944
21.691918
23.458600
23.229718
22.414923
21.161437
19.841790
20.452738
17.131567
16.136765
15.088916
14.364719
12.805462
11.977553
11.784434
10.470748
10.616779
10.058880
10.447502
9.575486
10.182858
10.534525
9.953976
9.593964
9.278655
9.082556
9.777546
9.099841
9.172559
9.665489
9.826422
9.521842
8.757710
9.362698
9.079576
8.803606
9.276867
9.543896
9.610653
9.305477
9.360909
8.984804
9.484887
8.428693
9.482503
##ZVALUE=265
1.846552
2.125502
2.255440
2.282858
2.533793
2.387762
2.389550
2.121925
2.907515
2.705455
3.178716
3.259778
3.091693
4.363656
11.221766
57.056546
144.284964
378.632545
672.089458
1015.669703
1015.669703
1015.669703
1015.669703
1015.669703
1015.669703
1015.669703
1015.669703
1015.669703
674.075484
396.893620
189.673901
112.945437
102.086663
120.108724
150.374770
163.703561
172.571540
168.576837
149.231553
127.270818
101.209879
79.241991
56.171417
43.101907
32.279491
29.634833
26.307702
25.256872
25.464892
26.065707
25.220513
24.348497
24.552941
24.448633
23.397803
24.911761
22.967458
21.623969
21.649599
21.231771
20.157695
18.932819
19.471645
18.790960
18.589497
18.145442
18.196702
16.982555
18.756986
18.567443
19.318461
19.808412
21.032691
21.382570
20.755529
20.226836
19.596815
18.252730
17.176867
15.388727
14.450550
13.816953
12.408495
11.406541
10.304451
10.307431
10.540485
10.097623
9.651780
9.055734
9.564757
9.090900
8.827448
9.067655
8.010864
8.264780
8.180737
8.673668
8.087754
8.626580
8.472800
8.743405
8.432865
8.494854
8.237958
7.993579
8.525848
8.957982
8.264780
9.097457
8.405447
8.227825
8.122921
8.492470
8.273721
8.175969
##ZVALUE=270
1.853704
1.827478
1.993775
1.896620
1.894832
2.266765
2.156496
2.227426
2.289414
2.580881
2.780557
2.681613
3.140569
3.307462
3.325939
4.325509
5.850792
27.298927
81.156492
261.815786
512.554646
883.651972
1015.669703
1015.669703
1015.669703
1015.669703
1015.669703
1015.669703
1015.669703
1015.669703
983.622074
624.269843
287.241936
143.298507
86.401701
94.735622
126.793981
151.571631
172.761679
178.657770
171.148777
156.831741
133.228898
110.992789
81.523657
63.070655
46.489835
38.132668
31.993985
30.316710
28.521419
29.052496
29.059649
28.083920
27.283430
26.663542
26.817918
25.064945
24.088621
23.978949
22.847652
21.791458
20.701885
20.713806
20.083785
19.240975
19.184947
18.723607
19.340515
18.965602
20.277500
20.311475
19.972920
20.351410
20.688772
19.975901
19.326806
17.992854
16.425848
15.433431
14.135838
13.087988
11.666417
11.192560
10.782480
9.713769
10.085702
9.403825
9.180903
9.557605
8.874536
8.700490
8.650422
8.303523
7.715821
8.636713
8.151531
8.530617
8.088946
7.953644
7.600784
7.258654
7.961988
8.181930
7.837415
7.657409
8.089542
8.271933
7.855892
7.675886
7.381439
7.583499
7.460713
7.422566
7.492900
7.400513
##ZVALUE=275
1.916885
1.818538
2.010465
1.816750
1.953840
1.661777
1.822710
2.390742
2.136827
2.038479
2.254844
2.594590
2.716780
2.814531
2.734661
3.222823
3.437996
3.822446
4.017949
12.413859
47.721863
179.050565
398.585796
756.191611
1015.669703
1015.669703
1015.669703
1015.669703
1015.669703
1015.669703
1015.669703
1015.669703
1015.669703
889.961720
409.630537
210.700631
91.445446
77.285767
104.050636
124.788880
153.975487
172.092915
179.506540
178.304911
158.848763
137.809515
108.634830
87.400675
64.027905
49.591660
38.480759
34.450889
30.731559
28.790832
28.758645
28.776526
27.545691
27.156472
25.411844
24.648905
23.658872
23.611784
21.997690
21.295547
20.886660
20.072460
19.801855
19.484758
18.932819
18.964410
19.900799
20.759702
19.921660
19.818544
20.330548
19.755960
18.638968
17.966628
16.913414
15.353560
13.387799
13.030767
12.218952
11.713505
10.889769
10.111928
9.615421
9.382963
9.500980
8.927584
8.710623
8.263588
8.852482
8.374453
8.036494
7.937551
7.551908
7.713437
7.550716
6.988645
7.541776
7.740855
7.449985
6.939769
7.559657
7.288456
7.381439
7.449985
7.063746
7.271767
7.347465
7.163882
6.704926
6.990433
6.789565
6.197691
##ZVALUE=280
1.693964
1.538992
1.887679
1.693964
1.817942
1.529455
1.779795
1.838803
1.905560
1.976490
2.190471
1.918674
1.966953
2.320409
2.509952
2.480745
3.002882
3.009439
3.382564
3.771782
4.079938
6.846786
26.883483
126.774907
289.194584
668.362975
1013.411880
1015.669703
1015.669703
1015.669703
1015.669703
1015.669703
1015.669703
1015.669703
1015.669703
1015.669703
552.953482
282.764435
107.994676
68.567991
76.931715
98.086596
128.844976
147.190690
170.879960
175.056458
169.611573
156.102777
129.579902
107.818842
79.773664
62.541962
46.006441
35.787821
30.581951
27.945638
26.302934
25.554895
24.132729
23.493767
23.065805
21.611452
22.189617
21.445751
20.429492
19.343495
19.606948
18.831491
19.479990
19.220710
19.585490
18.559694
19.456744
19.523501
19.446611
18.017888
17.330647
16.505718
14.891624
14.280677
12.575984
12.768507
11.493564
11.327863
9.940863
9.686947
9.838939
9.575486
9.084940
8.792877
8.842945
8.450747
8.045435
8.079410
7.675886
7.546544
7.715821
7.703900
6.901622
7.600784
7.532835
7.015467
7.106662
7.295609
7.005930
7.326603
7.440448
7.279515
6.878972
6.589890
6.799698
6.593466
7.026792
6.728768
6.664991
6.525517
##ZVALUE=285
1.623631
1.391768
1.479983
1.651645
1.636744
1.735687
1.702905
1.598597
1.736879
1.988411
1.646876
1.853704
1.960993
2.111793
2.385974
2.273917
2.498627
2.699494
2.550483
2.909899
3.262758
3.392696
4.185438
5.143881
11.872649
68.298578
172.392726
387.465954
805.383921
1015.669703
1015.669703
1015.669703
1015.669703
1015.669703
1015.669703
1015.669703
1015.669703
1015.669703
751.912594
414.716601
202.410817
73.816776
53.343773
70.630908
89.499950
120.244622
141.535997
159.839988
167.152882
164.211988
149.899721
132.169724
103.077888
81.248879
56.988597
43.161511
29.736757
25.958419
21.788478
20.649433
19.824505
19.575953
19.645691
18.983483
17.672777
17.280579
17.372966
17.333627
16.927719
17.208457
16.855597
17.792583
17.768741
17.968416
16.881824
16.725659
15.560985
15.360713
13.815761
13.187528
12.086630
11.472702
11.028647
10.267496
9.787679
9.897947
9.307861
9.323955
9.187460
7.805824
8.104444
7.834435
8.130670
7.694960
7.443428
7.610917
7.413626
7.715821
7.573962
7.000566
7.236600
7.290840
7.510781
7.165670
6.980896
6.984472
6.864667
7.144809
6.967783
6.841421
6.592870
6.463528
6.609559
6.401539
6.291866
6.114841
##ZVALUE=290
1.390576
1.486540
1.365542
1.439452
1.411438
1.383424
1.523495
1.622438
1.478791
1.771450
1.963973
1.554489
1.772642
1.839995
1.658797
2.188683
1.876950
2.159476
2.371669
2.535582
2.776980
2.939701
3.151894
3.546476
3.904700
4.430413
6.412864
19.404888
99.315643
246.740580
597.571731
977.021456
1015.669703
1015.669703
1015.669703
1015.669703
1015.669703
1015.669703
1015.669703
1015.669703
982.990861
605.984926
248.274803
110.160708
45.735836
43.431520
62.161684
80.551505
110.256672
128.974915
150.504708
157.355666
154.235959
142.608881
118.949413
97.029805
68.631768
51.642656
34.910440
27.059913
20.794868
17.333627
16.374588
15.464425
15.006661
15.062690
14.558434
14.458895
14.751554
14.134645
14.892817
15.264750
15.273690
15.396476
15.547872
14.713407
13.721585
13.497472
12.062788
11.019707
10.545850
10.500550
9.976625
9.743571
9.113550
9.078979
8.947849
8.581877
8.308887
8.176565
8.278489
7.758737
8.013844
7.413626
7.412434
7.566810
7.534623
7.559657
7.292628
7.119775
7.396936
7.367730
6.981492
6.657839
7.088780
6.795526
7.174611
6.809831
6.692410
6.575584
6.596446
6.487966
6.470680
6.287694
5.903840
6.070733
##ZVALUE=295
1.285672
1.699924
1.492500
1.362562
1.289845
1.411438
1.292825
1.336932
1.389980
1.528859
1.561642
1.465678
1.622438
1.759529
1.756549
1.540780
1.635551
1.718998
1.895428
2.295971
2.359748
2.464652
2.775788
3.111959
3.238916
3.486872
3.696680
4.375577
4.782677
8.747578
51.099658
145.404339
413.666964
780.120492
1015.669703
1015.669703
1015.669703
1015.669703
1015.669703
1015.669703
1015.669703
1015.669703
1015.669703
743.070841
400.287509
138.719678
59.784651
31.768680
37.730932
51.172972
74.965954
94.110966
121.932626
135.845542
144.753456
144.358873
129.137635
112.441778
86.628795
67.329407
45.110583
32.787919
22.578835
17.089844
13.539791
12.678504
12.442470
11.990666
11.823773
12.541413
12.551546
13.422966
13.326406
13.717413
13.041496
12.283921
12.150407
11.779666
10.693669
9.931922
9.638667
9.785891
8.659959
8.766651
8.942485
8.410811
8.347631
8.058548
8.057952
7.665753
7.684827
7.504821
7.463694
7.387996
7.390976
7.191896
7.149577
6.670952
6.987453
6.776452
6.814599
6.625652
6.615520
6.852746
6.885529
7.020831
6.793737
6.464720
6.449819
6.559491
6.446838
6.259680
6.146431
6.138682
6.007552
5.727410
##ZVALUE=300
1.313686
1.454949
1.135468
1.130700
1.264811
1.362562
1.392961
1.284480
1.385808
1.402497
1.228452
1.599789
1.612902
1.664758
1.624823
1.723766
1.776814
1.601577
1.688600
1.914501
2.181530
1.933575
1.980662
2.287626
2.538562
2.753735
3.096461
3.194809
3.608465
3.848672
4.381537
6.014705
19.077659
103.776455
248.833895
613.749623
993.168950
1015.669703
1015.669703
1015.669703
1015.669703
1015.669703
1015.669703
1015.669703
1015.669703
958.562493
568.058491
231.742859
102.448463
33.421516
24.632812
33.968687
45.091510
67.898631
87.326765
112.138987
127.152801
135.963559
134.939551
122.766495
106.455684
82.632899
64.000487
43.018460
31.243563
19.831657
14.646649
11.803508
10.738969
10.715723
11.031628
11.684895
11.524558
11.501908
11.123419
11.066794
10.738969
9.769797
9.825826
9.777546
8.722544
8.619428
8.381605
8.120537
8.016825
7.846951
7.750988
7.913709
7.253885
7.434487
7.298589
6.979704
7.283688
7.095933
6.699562
7.407665
7.059574
7.200837
6.918907
7.119775
6.655455
6.518960
6.481409
6.431937
6.890893
6.612539
6.600618
6.416440
6.288886
6.393790
6.125569
6.291866
6.048679
6.121993
6.033778
6.017685
##ZVALUE=305
1.251698
1.078844
1.276731
1.378655
1.215935
1.132488
1.271963
1.352429
1.440644
1.364946
1.166463
1.424551
1.452565
1.572967
1.529455
1.459718
1.449585
1.508594
1.833439
1.809597
1.867414
1.779795
2.090931
2.068877
2.481937
2.335906
2.491474
2.665520
2.881885
3.084540
3.288984
3.891587
4.300475
4.957914
11.449456
45.493841
187.513828
414.401889
925.086737
1015.669703
1015.669703
1015.669703
1015.669703
1015.669703
1015.669703
1015.669703
1015.669703
1015.669703
775.745511
420.214534
150.442719
57.764649
21.018982
21.377802
31.289458
42.433739
62.961578
81.899762
104.630589
118.064880
127.688646
126.775503
115.206838
102.863908
78.449845
60.939789
41.393638
28.879642
18.041730
14.163852
11.681914
11.168718
10.942817
11.128783
10.800958
10.240674
9.798408
9.293556
9.191632
8.489490
8.123517
7.857680
7.730722
7.722974
7.813573
7.504821
7.400513
7.341504
7.398725
7.255673
6.905794
6.739497
6.656647
6.443858
6.839633
6.818771
6.551743
6.450415
6.227493
6.669760
6.348491
5.889535
6.273985
6.236434
6.172657
6.324649
6.596446
6.423593
6.468892
6.327629
6.156564
6.370544
5.901456
6.056428
5.953908
6.044507
##ZVALUE=310
1.234412
1.177788
1.126528
1.200438
1.225471
1.074672
1.311898
1.133680
1.294613
1.267791
1.414418
1.495481
1.427531
1.353621
1.292825
1.269579
1.444817
1.544952
1.559854
1.560450
1.730919
1.835823
1.730919
1.768470
1.846552
1.904964
2.136827
2.365708
2.521873
2.671480
3.030896
2.995729
3.261566
3.307462
4.018545
4.504919
6.158948
19.086599
102.301836
256.558061
530.937910
1015.669703
1015.669703
1015.669703
1015.669703
1015.669703
1015.669703
1015.669703
1015.669703
1015.669703
989.043713
600.926876
240.351558
100.345612
26.608706
16.864538
19.636750
25.483966
38.913488
51.681995
75.234771
91.494918
110.215545
118.376613
120.188594
111.752748
96.437931
80.247521
56.282878
41.512847
27.155876
20.436645
14.574528
11.757612
10.551810
9.652972
9.147525
8.449554
7.791519
7.525682
7.303953
7.187724
7.002950
7.218719
7.007718
7.013679
7.205606
7.063746
6.747842
6.906986
6.706715
6.966591
6.655455
6.290674
6.683469
6.733537
6.472468
5.993843
6.154776
6.049871
6.307960
6.163716
6.000996
6.323457
6.202459
6.045699
6.054640
6.087422
5.982518
6.049871
6.005764
5.555749
5.728602
5.913973
5.559921
5.752444
##ZVALUE=315
1.065731
1.003742
0.919700
0.986457
1.150966
1.114607
1.247525
1.115799
1.063943
1.263618
1.290441
1.386404
1.423955
1.401901
1.113415
1.183748
1.153946
1.500845
1.520514
1.720786
1.522899
1.591444
1.728535
1.708865
1.547933
1.803637
2.056956
2.016425
2.247691
2.242923
2.261996
2.566576
2.607703
3.077984
3.035665
3.298521
3.732443
4.095435
4.872680
9.014606
52.346587
154.727697
443.996787
817.010999
1015.669703
1015.669703
1015.669703
1015.669703
1015.669703
1015.669703
1015.669703
1015.669703
1015.669703
809.179544
357.235670
158.130527
39.092898
17.375946
14.881492
16.919971
24.812818
34.544468
52.503943
67.571998
88.192821
101.985931
113.501549
115.523934
104.351640
91.499686
73.140860
56.999922
39.715767
28.799772
18.263459
13.747811
10.112524
8.879900
8.000731
7.311702
7.093549
6.637573
6.490946
6.654859
6.544590
6.905794
6.305575
6.496906
6.398559
6.373525
6.509423
6.351471
6.095767
6.336570
6.409883
6.038547
6.013513
5.872846
5.938411
6.177425
6.040931
5.912781
5.963445
5.762577
5.986691
5.879998
5.980730
6.011724
5.911589
5.984902
5.999804
5.646944
5.649924
5.789995
5.541444
5.550981
##ZVALUE=320
1.040697
1.121759
1.133680
1.040697
0.976920
1.092553
1.080632
0.998974
1.166463
1.229644
1.088977
1.102686
1.174808
1.158714
1.237988
1.168847
1.249909
1.306534
1.405478
1.456738
1.554489
1.424551
1.482964
1.764894
1.782775
1.928806
1.850724
1.621842
2.025962
1.888871
2.061725
2.250671
2.387762
2.659559
2.737641
2.910495
2.664924
3.157854
3.695488
3.972650
4.443526
5.498528
24.588704
86.328983
302.686691
601.950884
1015.669703
1015.669703
1015.669703
1015.669703
1015.669703
1015.669703
1015.669703
1015.669703
1015.669703
1002.523899
479.784608
238.911510
76.635480
27.956963
13.795495
13.748407
16.374588
21.571517
31.885505
43.895841
63.795447
79.280734
98.072886
106.061697
105.990767
101.495981
87.878704
71.846843
53.683519
40.328503
26.102662
17.714500
10.819435
8.850694
7.191896
6.906986
6.459951
6.037951
6.300807
6.134510
6.140471
5.903840
5.929470
5.998611
5.946755
5.913973
5.813837
6.086826
6.135702
6.049871
5.942583
5.874634
5.881786
5.562901
5.965829
5.751848
5.790591
5.645752
5.954504
5.711913
6.001592
5.703568
5.454421
5.717874
5.487800
5.585551
5.629659
5.539656
5.293489
5.324483
##ZVALUE=325
0.994802
1.044869
1.016855
0.905991
1.005530
1.032948
1.030564
1.000762
1.143813
0.996590
1.041889
0.940561
1.044869
1.173615
1.114607
1.174808
1.188517
1.217723
1.361966
1.357794
1.310706
1.402497
1.401901
1.490712
1.497865
1.428723
1.864433
1.733899
1.827478
1.777411
1.820922
1.898408
2.032518
2.177954
2.275705
2.318621
2.626777
2.778769
3.030896
3.188848
3.576875
3.831983
4.404783
4.807711
12.304783
50.404668
202.959776
441.155434
961.125493
1015.669703
1015.669703
1015.669703
1015.669703
1015.669703
1015.669703
1015.669703
1015.669703
1015.669703
672.113895
356.891751
121.693611
44.730902
15.359521
12.034774
12.462735
14.361739
20.725727
29.567480
46.180487
60.829520
80.535412
92.465878
101.257563
102.537870
93.600750
82.716942
64.047575
48.308969
31.951666
22.946596
14.837980
10.606647
7.976890
7.123947
6.326437
5.934834
5.941987
5.697608
5.887747
5.621910
5.888939
5.735755
5.666614
5.505681
5.693436
5.850792
5.672574
5.774498
5.390644
5.209446
5.509853
5.842447
5.662441
5.667806
5.845428
5.862713
5.935431
5.633831
5.734563
5.764961
5.391836
5.447865
5.402565
5.368590
5.353689
4.937649
##ZVALUE=330
0.966787
0.964999
0.942945
1.018643
1.025796
1.095533
1.005530
0.983477
1.042485
1.148582
1.121759
0.955462
0.979900
1.188517
1.107454
1.202822
1.170635
1.086593
1.110435
1.321435
1.230836
1.421571
1.368523
1.545548
1.309514
1.576543
1.495481
1.563430
1.698732
1.640916
1.890659
1.748800
1.802444
1.866817
1.953840
2.095699
2.098680
2.170801
2.477765
2.785921
2.939701
3.124475
3.410578
3.588796
4.069805
4.576445
6.699562
23.387671
121.839643
293.545723
721.314549
1015.669703
1015.669703
1015.669703
1015.669703
1015.669703
1015.669703
1015.669703
1015.669703
1015.669703
930.789709
500.423908
184.794664
76.392889
20.660758
12.187958
11.085868
11.762977
14.601946
19.869804
30.203462
41.115880
57.909489
71.378946
85.735917
92.222691
94.210505
87.279677
73.021650
61.038733
43.791533
32.102466
21.445751
15.531778
10.340810
7.897615
6.349683
6.053448
5.673766
5.313754
5.316734
5.557537
5.476475
5.120635
5.512834
5.754828
5.448461
5.522966
5.275607
5.344748
5.575418
5.621910
5.565882
5.573630
6.044507
5.721450
5.710721
5.510449
5.843639
5.723834
5.688667
5.406737
5.387664
5.234480
5.047917
5.268455
##ZVALUE=335
0.883937
0.812411
0.878572
0.882745
0.848770
1.196861
1.074672
1.242757
1.018643
1.156926
1.073480
1.200438
1.211762
1.041889
1.176596
0.970960
1.224875
1.163483
1.055598
1.192689
1.132488
1.288652
1.354814
1.185536
1.382828
1.294613
1.498461
1.340508
1.546741
1.623631
1.686811
1.617670
1.587868
1.910925
1.905560
2.082586
1.946688
2.252460
2.244711
2.391934
2.522469
2.399683
2.568960
2.923608
3.313422
3.522635
3.787875
4.229546
5.223751
10.574460
64.988732
182.308555
525.170565
953.706503
1015.669703
1015.669703
1015.669703
1015.669703
1015.669703
1015.669703
1015.669703
1015.669703
1015.669703
691.847801
274.669528
116.822720
30.950904
13.895631
11.382699
10.781884
11.948943
14.333725
19.912720
27.353764
40.035844
50.977468
67.178607
79.071522
86.059570
86.344481
79.617500
70.417523
56.645870
45.043826
31.096935
22.825599
14.549494
10.638833
7.711649
6.499887
5.768538
5.685687
5.355477
5.533695
5.512834
5.577803
5.158782
5.400777
5.496740
5.236864
5.664825
5.566478
5.519986
5.717874
5.463958
5.764961
5.582571
6.006956
5.668998
5.913973
5.498528
5.396605
5.523562
5.165935
5.275607
5.138516
##ZVALUE=340
0.918508
0.831485
1.092553
0.905991
1.010895
1.081824
0.913739
0.988841
1.135468
0.999570
1.107454
1.103878
0.976920
1.145601
1.084805
1.086593
1.031756
1.219511
1.147985
1.094937
1.300573
1.230836
1.237988
1.180768
1.316667
1.427531
1.410842
1.454949
1.398921
1.427531
1.708865
1.534820
1.611710
1.627803
1.631975
1.795888
1.883507
1.857877
1.920462
1.931787
2.201796
2.288818
2.266765
2.566576
2.617836
2.952814
3.069639
3.354549
3.809929
4.151464
4.704595
6.527901
34.863949
115.572810
383.049846
771.307945
1015.669703
1015.669703
1015.669703
1015.669703
1015.669703
1015.669703
1015.669703
1015.669703
1015.669703
891.135931
379.688740
170.791745
42.555928
15.786886
11.551976
11.214614
10.934472
11.247993
13.423562
17.196536
24.881959
34.855604
49.934983
61.871409
75.182915
79.768896
80.578923
75.627565
65.686703
54.928660
40.837526
31.426549
20.874739
15.350580
10.436773
8.081794
6.623864
6.064773
5.774498
5.847812
5.557537
5.613565
5.509853
5.499721
5.502701
5.294681
5.545616
5.614758
5.688667
6.021857
5.879998
5.734563
5.736947
5.708933
5.567670
5.653501
5.276799
5.481839
5.189776
5.297661
##ZVALUE=345
1.012683
0.925660
1.048446
1.071692
0.870824
1.012683
0.884533
0.892878
1.040697
1.030564
1.136661
1.198649
1.060963
1.092553
0.947714
0.948906
1.021624
1.034737
1.195669
1.072884
1.125932
1.122952
1.078844
1.270771
1.277924
1.151562
1.215935
1.412630
1.394749
1.512766
1.447797
1.558661
1.482964
1.684427
1.605749
1.717806
1.651645
1.794696
1.746416
1.966953
2.026558
2.262592
2.040863
2.038479
2.327561
2.534986
2.679825
2.686977
3.174543
3.417730
3.515482
3.810525
4.629493
4.788637
14.138818
58.864355
251.400471
522.798896
1015.669703
1015.669703
1015.669703
1015.669703
1015.669703
1015.669703
1015.669703
1015.669703
1015.669703
1015.669703
504.200459
228.644609
65.371990
25.152564
13.217926
11.843443
10.758638
10.306835
10.461807
11.409521
16.003847
22.052526
33.747554
43.659806
56.122541
64.556599
73.257685
74.780583
71.122646
64.016581
52.121878
42.718649
30.211806
22.582412
14.675856
11.017919
7.976890
7.050633
6.086826
5.827546
5.480647
5.238652
5.367994
5.246997
5.584955
5.346537
5.844831
5.647540
5.624890
5.738735
5.868673
5.701780
5.748868
5.758405
5.652905
5.529523
5.244613
5.280972
##ZVALUE=350
0.984669
0.975728
1.004934
0.976920
0.992417
0.942945
0.772476
1.106858
1.062751
1.028776
1.067519
1.124740
1.103878
1.072884
1.091957
1.023412
1.191497
1.127720
1.036525
1.304746
1.104474
1.338720
1.111627
1.081824
1.233816
1.343489
1.214743
1.352429
1.453757
1.316667
1.430511
1.311898
1.571774
1.527667
1.474619
1.641512
1.710653
1.588464
1.718998
1.708865
1.802444
1.936555
1.967549
1.985431
2.246499
2.160668
2.558827
2.608895
2.533793
2.796650
3.138781
3.124475
3.513694
3.688931
4.329681
4.755855
8.081794
29.791594
140.728951
336.820483
856.232643
1015.669703
1015.669703
1015.669703
1015.669703
1015.669703
1015.669703
1015.669703
1015.669703
1015.669703
656.509995
339.495540
117.894411
41.861534
14.165640
11.242628
9.806752
8.587837
8.239746
8.752942
10.644794
14.225841
20.417571
27.405620
39.861798
48.749447
59.570670
65.492988
68.338513
66.684484
59.584975
51.592588
39.783716
30.737519
20.947456
15.877485
10.885596
8.967519
6.802678
6.000996
5.736947
5.661845
5.681515
5.618930
5.891919
6.064773
5.839467
5.773902
6.041527
5.815625
5.960464
5.497932
5.715489
5.393624
5.358458
5.319715
##ZVALUE=355
1.108646
0.920892
0.957847
1.122952
0.997782
1.172423
1.132488
1.065731
1.095533
1.079440
1.158714
1.098514
1.133680
1.130700
0.990629
1.024604
1.152754
1.139641
1.141429
1.173615
1.157522
1.212955
1.137853
1.033545
1.140833
1.179576
1.278520
1.316667
1.246929
1.446605
1.313686
1.577735
1.385808
1.457930
1.415610
1.546741
1.616478
1.590848
1.638532
1.535416
1.722574
1.826882
1.921654
2.078414
1.868606
1.955628
2.136827
2.333522
2.172589
2.472997
2.645850
2.730489
2.817512
3.117919
3.312826
3.594756
4.094839
4.701614
5.419850
12.744665
77.204704
218.254924
596.894622
986.608863
1015.669703
1015.669703
1015.669703
1015.669703
1015.669703
1015.669703
1015.669703
1015.669703
889.890790
461.853743
161.758661
62.541962
16.737580
10.323524
9.030700
8.352995
7.568598
7.500648
7.808805
9.102821
12.594461
16.871691
25.079846
32.767653
45.370460
52.255988
61.141849
62.690973
61.905980
57.164431
47.332644
39.841533
29.580593
22.675991
15.405416
11.884570
8.425713
7.099509
6.532669
6.147623
5.865693
6.058812
6.227493
6.076694
6.156564
5.917549
5.964637
5.803704
5.547404
5.179644
5.172491
5.260706
##ZVALUE=360
1.018643
0.986457
1.168847
1.183748
0.934601
1.108646
1.018643
1.058578
1.093745
1.080632
0.939965
1.070499
1.049638
1.107454
1.263618
1.051426
1.151562
1.199841
1.115799
1.139641
1.223683
1.184940
1.201630
1.286864
1.417994
1.433492
1.241565
1.349449
1.482964
1.293421
1.477599
1.510978
1.412630
1.565814
1.497865
1.585484
1.730919
1.635551
1.710653
1.885891
1.575947
1.943707
1.856685
1.877546
2.053976
1.991987
1.981854
2.002716
2.279878
2.228618
2.499819
2.519488
2.734661
2.933741
2.987981
3.366470
3.556609
3.865957
4.108548
4.526973
5.242825
7.207990
33.797622
110.780597
374.285579
738.371015
1015.669703
1015.669703
1015.669703
1015.669703
1015.669703
1015.669703
1015.669703
1015.669703
1015.669703
723.902583
283.948779
113.383532
25.941730
11.379719
9.208918
8.388758
7.793903
7.398725
7.370710
7.228851
8.304715
10.372996
15.293956
20.562410
29.454827
37.206411
47.944784
53.702593
56.895614
57.106614
53.853989
48.281550
39.604902
32.154918
23.192763
17.176867
11.659861
9.335876
7.545948
6.783605
6.253719
6.287694
6.194711
6.043911
5.866885
5.683899
5.430579
5.230904
4.949570
4.875660
##ZVALUE=365
0.949502
1.043677
1.055598
1.082420
0.999570
1.048446
1.066923
1.234412
1.050830
1.137853
1.123548
1.061559
1.118779
1.165867
1.101494
1.079440
1.165867
1.147985
1.089573
0.957847
1.240969
1.184940
1.137853
1.229644
1.242757
1.395941
1.390576
1.389980
1.328588
1.377463
1.378655
1.449585
1.471639
1.543760
1.545548
1.495481
1.534820
1.514554
1.621842
1.560450
1.655817
1.684427
1.841784
1.660585
1.831651
1.842976
1.801848
1.975894
2.115965
2.077818
2.293587
2.338886
2.355576
2.636909
2.604723
2.590418
2.858639
2.974868
3.445745
3.599524
4.198551
4.523993
5.267859
6.151795
15.860796
60.527921
242.871642
530.553460
1015.669703
1015.669703
1015.669703
1015.669703
1015.669703
1015.669703
1015.669703
1015.669703
1015.669703
869.490504
354.572535
156.765580
43.262839
15.596747
9.460449
8.402467
7.675886
7.362962
6.834865
6.363988
6.610751
7.466674
9.800792
12.992620
19.400716
25.125742
33.501983
40.648580
48.343539
51.833987
52.804947
51.231980
45.402646
39.177537
31.173825
24.715662
17.448664
13.446808
9.623766
7.780790
6.735921
6.053448
5.707741
5.581975
5.264878
4.879832
4.710555
4.684925
##ZVALUE=370
0.913739
1.062751
0.888705
0.984669
1.066923
1.026988
0.898838
0.988841
1.012683
0.905991
0.982881
1.172423
1.196861
1.095533
0.993609
0.874996
1.112819
1.106858
1.189709
1.046658
0.959635
1.270771
1.192689
1.244545
1.118779
1.327991
1.412630
1.055598
1.316667
1.180768
1.427531
1.351833
1.294613
1.502633
1.527667
1.572967
1.444817
1.424551
1.553893
1.550913
1.580715
1.621842
1.652837
1.564622
1.809597
1.731515
1.873970
1.750588
1.827478
1.990795
1.848936
2.025962
2.055764
2.013445
2.268553
2.476573
2.399683
2.578497
2.796650
2.807975
3.056526
3.256798
3.912449
4.024506
4.524589
5.108714
8.208752
31.063557
162.250996
390.914679
931.849480
1015.669703
1015.669703
1015.669703
1015.669703
1015.669703
1015.669703
1015.669703
1015.669703
1015.669703
509.375930
244.807601
78.815818
26.989579
9.749532
8.237958
7.302761
7.130504
6.749630
6.398559
6.430745
6.626844
7.490516
8.784533
11.864901
15.524626
21.727681
27.495623
36.661625
41.802526
47.396421
49.448609
48.256516
44.998527
38.129687
29.788613
24.301410
17.620921
13.881922
10.297894
8.210540
6.413460
5.513430
4.985929
5.018711
4.771948
##ZVALUE=375
0.953674
1.004934
0.887513
1.011491
0.890493
1.013875
0.924468
1.011491
0.936985
0.857711
1.001954
0.973940
0.999570
1.011491
1.063943
1.090765
0.878572
1.043677
1.173615
0.927448
0.976920
0.975728
1.053810
1.074672
0.953674
1.318455
1.270771
1.283884
1.140833
1.320839
1.038909
1.017451
1.055598
1.290441
1.287460
1.148582
1.316667
1.251698
1.391768
1.396537
1.375675
1.536608
1.536608
1.332760
1.433492
1.556873
1.436472
1.542568
1.492500
1.702905
1.692772
1.631975
1.872778
1.890659
1.811981
1.928806
1.970530
2.113581
2.311468
2.337694
2.619624
2.839565
2.763867
3.256798
3.269911
3.462434
4.100800
4.422665
6.210804
16.260743
94.242692
240.481496
629.521012
1015.669703
1015.669703
1015.669703
1015.669703
1015.669703
1015.669703
1015.669703
1015.669703
1015.669703
796.082616
424.926877
150.187612
54.890513
13.457537
8.461475
7.773638
7.509589
7.118583
6.667972
6.779432
6.725788
6.619692
7.026792
8.125901
9.646416
13.723969
18.006563
25.506616
31.312704
38.900971
43.754578
46.985745
47.336817
44.378638
38.646460
33.555627
26.625991
21.002889
15.275478
11.714697
8.596778
6.688833
5.326867
##ZVALUE=380
0.742674
0.723600
0.909567
0.993609
0.893474
0.901818
0.826716
0.965595
0.801682
0.903606
0.828505
0.844598
0.938773
1.070499
0.793934
0.760555
0.955462
1.022816
0.880957
0.892878
1.011491
0.898838
0.928640
1.036525
1.015663
1.094937
1.151562
1.138449
1.201630
1.146793
1.192689
1.090765
1.188517
1.454949
1.293421
1.245737
1.083612
1.372695
1.312494
1.128912
1.428723
1.423955
1.159906
1.373887
1.296997
1.533628
1.507998
1.498461
1.560450
1.579523
1.458526
1.555681
1.713634
1.573563
1.810789
1.798868
1.813769
1.843572
1.795888
2.069473
2.030730
2.154708
2.336502
2.454519
2.683997
2.822876
3.273487
3.498793
4.356503
4.862547
5.829930
9.055734
49.712658
153.586864
458.503962
862.265825
1015.669703
1015.669703
1015.669703
1015.669703
1015.669703
1015.669703
1015.669703
1015.669703
996.354818
604.089499
235.173702
98.715425
22.597909
10.056496
8.057952
7.859468
7.487535
7.112622
6.945729
6.838441
6.541610
6.350875
6.188750
6.964803
8.872747
11.612773
16.605854
21.739602
30.070543
35.119653
42.215586
44.999719
45.279860
43.088794
39.984584
33.427477
27.540922
20.013452
15.654564
11.122823
##ZVALUE=385
0.726581
0.853539
0.762939
0.776649
0.707507
0.855923
0.828505
0.679493
0.859499
0.899434
0.791550
0.748634
0.747442
0.868440
0.937581
0.961423
0.993609
0.912547
0.856519
0.982881
0.922680
1.007915
0.859499
0.995994
0.852942
1.042485
0.969768
0.767708
1.167655
1.127720
1.205802
1.328588
1.241565
1.395941
1.354814
1.506805
1.415610
1.359582
1.467466
1.381636
1.405478
1.543760
1.445413
1.733899
1.449585
1.457930
1.562834
1.515746
1.528859
1.400709
1.580715
1.620650
1.589656
1.664758
1.624823
1.691580
1.875758
1.645684
1.972914
1.819730
2.082586
2.114773
2.230406
2.390742
2.314448
2.531409
2.677441
2.903938
3.378987
3.867745
4.410744
4.540682
5.429983
6.023645
21.374822
81.874728
309.566855
654.684901
1015.669703
1015.669703
1015.669703
1015.669703
1015.669703
1015.669703
1015.669703
1015.669703
1015.669703
961.404443
447.917581
210.912824
52.468777
15.435815
8.593798
7.978678
7.498860
7.200837
6.831884
6.675720
5.970597
5.584955
5.316734
5.681515
6.108880
7.401705
10.444522
13.578534
19.371510
25.782585
30.869842
36.807656
39.528608
41.287541
40.593743
37.390590
33.245683
26.751757
##ZVALUE=390
0.879765
0.647902
0.832677
0.738502
0.848770
0.877976
0.872612
0.848770
0.959635
0.745654
0.872612
0.849962
0.889897
0.848770
0.827909
0.868440
0.881553
0.868440
0.872612
0.817776
0.865459
0.927448
1.029968
0.919700
0.884533
1.000762
0.978708
1.134872
1.069903
1.272559
1.238585
1.283884
1.522899
1.528859
1.297593
1.415610
1.177788
1.492500
1.436472
1.596808
1.490712
1.350641
1.476407
1.708865
1.229644
1.455545
1.482964
1.500845
1.509786
1.491904
1.541972
1.540780
1.380444
1.585484
1.604557
1.605749
1.533628
1.746416
1.754761
1.778603
1.831651
1.817942
1.958609
2.164841
2.260804
2.358556
2.612472
2.897978
3.188848
3.679991
3.579855
4.145503
4.400611
4.468560
4.772544
5.089641
10.495782
45.716763
211.474895
483.903885
1014.374495
1015.669703
1015.669703
1015.669703
1015.669703
1015.669703
1015.669703
1015.669703
1015.669703
1015.669703
820.424557
436.210036
140.237808
39.024949
10.148883
8.651614
7.621646
7.397532
6.539822
6.394982
6.317496
6.095767
5.796552
5.693436
6.027818
6.258488
7.296801
9.421706
11.872649
16.276836
20.474792
26.734471
30.985475
36.378503
38.480759
39.216876
##ZVALUE=395
0.872612
0.745654
0.852942
0.876784
0.684857
0.692606
0.825524
0.686646
0.807643
0.930429
0.869632
0.958443
0.795722
0.757575
0.897646
0.898838
0.801682
0.914931
0.929832
0.896454
0.803471
0.900626
0.798702
0.964999
0.978708
0.996590
1.105666
1.089573
1.290441
1.328588
1.300573
1.251698
1.166463
1.461506
1.161695
1.369715
1.444817
1.253486
1.439452
1.541972
1.447797
1.516938
1.480579
1.513958
1.550913
1.353621
1.546741
1.495481
1.736879
1.618862
1.495481
1.715422
1.651645
1.686811
1.537800
1.682639
1.658797
1.689792
2.030730
1.790524
1.784563
1.886487
1.914501
2.076626
2.080798
2.228618
2.412796
2.765656
2.988577
3.153682
3.605485
3.676414
3.756881
4.069805
3.939867
4.038811
4.130602
4.742742
6.465912
23.305416
138.424039
337.586403
799.499750
1015.669703
1015.669703
1015.669703
1015.669703
1015.669703
1015.669703
1015.669703
1015.669703
1015.669703
976.982713
565.339923
198.932886
71.896911
15.501976
8.813739
7.515550
7.223487
6.779432
6.839633
6.680489
6.732941
6.132722
6.250739
5.931854
5.727410
6.004572
6.606579
7.800460
10.402799
12.857914
18.218756
22.722483
29.233694
##ZVALUE=400
0.972748
0.912547
0.801682
0.823736
0.757575
0.623465
0.774860
0.707507
0.671744
0.796914
0.806451
0.725985
0.938773
0.784993
0.714660
0.799894
0.704527
0.882745
0.706911
0.857711
0.893474
0.810623
0.813603
0.879765
0.861883
0.994802
1.142621
1.183748
1.323819
1.298785
1.238585
1.236796
1.418591
1.309514
1.360774
1.509786
1.194477
1.377463
1.346469
1.500845
1.535416
1.419783
1.464486
1.388788
1.419783
1.565814
1.661777
1.456738
1.590848
1.706481
1.696944
1.627803
1.652837
1.588464
1.661777
1.586676
1.746416
1.637936
1.612902
1.732707
1.898408
1.856685
1.862645
1.868606
1.932979
2.298951
2.351999
2.561808
2.777576
2.965927
3.267527
3.444552
3.396869
3.352761
3.363490
3.169775
3.433824
3.499985
4.114509
4.523993
5.223751
10.796785
64.736605
187.144876
536.451936
953.058600
1015.669703
1015.669703
1015.669703
1015.669703
1015.669703
1015.669703
1015.669703
1015.669703
1015.669703
716.598034
295.784473
121.587515
27.165413
10.634661
7.617474
7.142425
6.942749
6.959438
7.103682
6.729960
6.611943
6.347895
6.348491
5.607605
5.546808
5.380511
5.680919
6.676912
8.430481
11.589527
##END
