##TITLE=3-3
##FORMAT=SPECTACLE-ASCII V-1.2
##DATA TYPE=ULTRAVIOLET SPECTRUM
##SECOND TYPE=ULTRAVIOLET SPECTRUM
##DATE=04/09/18
##TIME=14:21:37
##SPECTROMETER/DATA SYSTEM=SPECTACLE
##XUNITS=NM EM
##YUNITS=ENERGY
##YFACTOR=1
##FIRSTX=220
##LASTX=450
##NPOINTS=116
##3DDATA=Equidistant
##ZUNITS=NM EX
##FIRSTZ=210
##LASTZ=400
##ZPOINTS=39
##XYDATA=(Y..Y)
##ZVALUE=210
24.915934
22.518635
17.877817
14.345646
12.006760
11.804700
11.350513
9.295940
9.069443
7.817745
5.800724
4.731417
4.517436
4.938841
4.328489
4.772544
4.508495
5.525947
5.788803
5.870461
6.024837
6.071925
6.636977
8.569956
8.855462
9.502769
9.749532
11.205673
12.061000
14.190674
13.918877
13.442636
14.241934
13.622642
16.104579
15.980601
16.032457
15.354753
15.709996
16.031861
16.141534
15.959740
15.433431
17.110705
16.146898
15.237927
16.761422
16.238689
16.443729
16.320944
14.756918
14.159679
16.829967
14.335513
15.671849
15.316606
15.315413
15.092492
15.881658
14.893413
15.837550
15.030503
15.356541
15.891790
16.297698
15.853643
15.947819
18.691421
20.539761
24.992824
27.771592
29.912591
35.920739
37.297606
40.746927
42.767525
44.394732
39.621592
40.409565
40.689707
37.308931
32.221675
28.853416
26.028752
20.181537
17.528534
15.744567
14.793873
13.559461
16.419888
22.254586
25.741458
33.372641
40.876865
50.195456
57.731867
71.244836
80.217719
87.857842
91.173649
100.023746
99.694729
100.682974
98.772645
92.031956
84.683895
76.831579
71.894526
64.411759
50.920844
41.707754
32.794476
27.468801
21.408796
19.516945
19.887686
##ZVALUE=215
72.108507
73.066950
54.730773
43.717623
29.874444
22.267699
17.738938
16.973615
18.429756
14.428496
12.791753
10.099411
8.502603
7.282495
5.578995
5.323887
4.884601
5.225539
5.099773
5.408525
6.161928
6.155968
7.411838
7.565618
7.842779
8.838773
10.285974
11.143684
11.863708
11.374950
13.294816
11.951923
13.578534
14.606714
14.271736
14.866590
15.992522
14.302731
15.594959
14.572740
15.750527
15.315413
15.911460
17.318726
14.572740
16.455650
15.388727
16.373992
15.710592
17.107725
15.939474
16.300678
16.564727
15.233755
16.777515
16.466975
15.366673
16.616583
16.067624
15.069842
15.143752
14.747977
15.859604
15.215874
13.640523
15.408993
15.316606
16.381741
17.902851
19.376874
19.583702
23.435950
27.012825
30.373931
30.931830
32.398701
33.152699
32.802820
31.206608
29.228926
30.097961
23.321509
21.256804
19.280910
16.683936
14.037490
12.832880
13.134480
12.543797
10.813475
12.292862
10.967851
10.735989
13.037920
16.628504
22.656918
26.663542
39.414763
44.973493
58.836937
70.076585
90.619922
100.676417
114.303827
121.673942
127.291679
131.846666
132.546425
132.829547
119.556785
117.597580
111.060739
102.023482
80.293417
70.685744
51.951408
##ZVALUE=220
148.006678
154.569745
146.971941
129.268765
107.534528
82.093477
59.963465
38.858652
31.603575
26.463866
27.186871
26.259422
23.431778
21.091700
15.084743
12.497902
9.397864
7.037520
5.711913
5.313754
5.607605
6.353855
6.438494
5.816817
7.700920
7.808805
8.156896
8.746982
10.615587
12.306571
12.265444
11.360645
12.721419
14.008880
15.141964
15.445948
15.477538
15.559793
16.766787
17.192960
17.789602
16.989708
18.133521
17.402768
17.788410
17.705560
18.147826
19.719601
20.820498
19.482970
20.054579
18.640757
19.284487
20.137429
20.488501
18.934608
18.301606
19.024611
18.666983
19.017458
17.583966
18.315911
17.919540
17.120838
16.849637
16.633868
16.560555
18.457770
19.669533
20.335913
22.507906
23.400784
26.550889
28.898716
30.381680
30.540824
30.536652
29.896498
27.833581
28.480887
23.855567
23.530722
20.177960
19.291639
16.286969
14.442801
13.007522
12.006760
11.710525
10.661483
10.080934
9.704828
11.382699
9.790659
11.674762
9.748936
10.354519
11.496544
12.707710
16.267896
22.575855
32.137632
48.826933
60.398579
82.939863
99.615455
122.919679
145.529509
162.531734
188.248754
200.072527
203.816891
210.101604
198.887587
195.323825
173.536539
##ZVALUE=225
185.527802
183.234811
236.606598
259.996653
261.183977
233.067870
201.506615
149.784684
107.143521
69.556832
54.347515
40.103793
37.288666
39.757490
38.078427
32.800436
30.042529
22.666454
17.554760
11.648536
8.601546
7.192492
7.410645
7.048845
7.913709
8.254647
7.606745
9.062886
9.667873
10.522604
10.518432
12.329817
13.204813
13.707876
14.838576
14.739633
15.383959
17.253757
17.438531
18.148422
18.375516
19.066930
19.884706
20.378828
21.188855
20.660758
21.879673
20.684600
21.259785
20.312667
23.551583
22.742748
21.077991
22.396445
23.426414
22.656918
21.400452
21.222830
21.480918
22.376776
20.684600
21.415949
19.742846
20.535588
20.259619
19.900799
17.509460
18.312931
20.076632
22.089481
24.256706
25.617480
27.196407
26.742816
30.233860
29.360652
27.588606
28.254986
25.447607
26.778579
21.979809
20.665526
18.393993
18.114448
15.228987
15.415549
14.437437
14.827847
13.041496
12.103915
11.794567
10.968447
10.575652
10.652542
9.935498
10.559559
11.146665
10.392666
10.841489
10.995865
10.922551
10.260940
11.167526
13.964772
21.643639
27.318597
44.750571
64.928532
85.892677
116.372705
141.227841
178.569555
210.790634
248.764753
274.203420
296.374559
##ZVALUE=230
124.837756
133.929849
215.941668
291.763544
354.231596
432.924628
451.723933
420.150757
367.941856
277.674794
199.446678
124.574900
86.965561
62.366724
58.588982
59.781671
63.172579
54.813623
50.725937
42.733550
30.879974
21.415949
15.563965
11.245608
9.630919
9.158850
8.498430
9.333491
9.291768
9.154677
10.840893
11.522770
11.286736
11.960864
13.683438
14.050603
15.464425
15.914440
17.883778
19.408464
18.467903
21.750927
21.727681
22.400618
22.497773
22.020936
22.808909
24.413466
23.821592
23.788810
24.025440
22.322536
23.960471
23.804903
22.023916
21.975636
22.583604
23.782849
22.083521
22.764802
19.646883
22.469759
21.988750
20.919442
21.154881
20.035505
20.545721
22.242665
21.619797
21.921992
22.696853
24.397969
26.492476
26.845932
29.765964
29.186606
27.030706
26.189685
24.226904
24.014711
20.951629
19.882917
20.375848
17.809868
16.724467
16.071796
12.976527
12.767911
12.333989
12.168884
11.608601
12.678504
11.723638
12.023449
11.708736
10.520816
10.873675
10.917783
10.479689
11.685491
11.882782
10.971427
11.045933
10.122657
11.361837
10.051727
11.613965
12.948513
15.966892
23.642778
32.869577
55.099726
79.474449
118.508935
154.964924
209.122896
##ZVALUE=235
33.119917
39.035678
92.194676
167.907476
264.428854
425.186753
540.378690
666.041970
718.140602
687.185526
611.400604
458.354950
343.031883
211.434960
144.247413
97.966790
84.847808
83.644986
90.455413
89.518428
83.070993
70.440769
54.921508
42.557716
27.672648
20.539761
15.627742
11.533499
9.907484
9.599924
10.510683
10.968447
11.350513
13.030767
12.483597
14.023781
15.290976
16.661882
17.612576
18.970966
19.195676
20.453930
20.442605
21.266937
22.096634
23.385882
22.245646
22.375584
23.861527
22.301674
24.039745
22.921562
24.592876
23.109913
23.043752
21.746755
22.618771
21.786690
23.132563
23.036599
21.852851
20.815730
21.151900
21.673441
19.964576
21.106601
20.760894
21.063685
21.671653
22.015572
24.925470
25.006533
29.345751
29.073954
30.752420
28.496981
27.105808
27.903914
26.981831
22.268891
20.500422
21.641850
18.989444
16.846657
15.499592
15.369654
14.450550
15.435815
14.742613
13.398528
12.529492
13.063550
13.480783
13.544559
12.682676
12.630820
11.759996
12.917519
12.393594
13.192892
12.799501
12.021661
12.941957
11.578798
10.468960
12.520552
11.730790
12.088418
10.205507
10.834932
11.834502
11.986494
13.406873
16.764998
27.107596
44.625998
##ZVALUE=240
3.354549
3.902912
13.523698
38.799644
87.266564
198.152661
332.123637
562.911630
734.458566
922.677517
1010.842919
1007.020473
909.488797
724.114776
558.767915
345.881581
234.078765
149.224997
115.214586
110.543966
116.356611
120.042562
115.886927
103.401542
88.804960
65.509677
52.187443
37.857890
24.901628
18.231869
14.737844
13.054609
13.872981
14.514923
13.934970
15.444756
16.460419
16.734600
16.337633
17.504692
18.902421
19.723773
21.095872
19.788742
21.809936
21.603703
22.377968
20.870566
20.159483
23.553967
20.439625
24.377704
22.533536
21.850467
22.260547
21.547675
21.014810
19.855499
23.730993
20.629764
19.212961
19.838810
19.901991
18.016696
19.462705
19.274950
20.476580
19.818544
20.779967
22.632480
23.879409
23.277998
27.394891
28.409958
27.334690
28.259754
28.195977
29.041767
24.923682
24.031997
22.383928
21.255612
18.844604
15.833974
17.279983
15.162826
15.000701
13.979673
14.699697
14.368892
14.071465
13.741851
12.380481
12.479424
15.378594
13.634562
13.198853
13.738871
13.454556
14.039874
13.445616
13.384819
13.699532
12.646914
13.588667
13.779998
13.760924
13.168454
11.644959
12.562871
14.034510
12.920499
13.194680
12.713671
13.407469
13.725758
##ZVALUE=245
2.663732
2.722740
2.622604
3.226995
6.014705
28.032660
67.012906
177.053809
315.922499
557.894707
790.514946
1011.836529
1015.669703
1015.669703
1015.669703
983.969569
791.148543
522.231460
355.556607
194.615722
136.313438
110.600591
120.891929
128.783584
136.090517
133.436918
118.034482
102.886558
80.429912
59.811473
40.299892
27.861595
20.223856
17.695427
13.918877
15.273690
13.335943
15.808940
16.295910
16.243458
17.233491
17.096996
19.184947
17.715693
18.489957
16.935468
18.830895
18.672943
18.260479
17.925501
18.425584
18.856525
17.776489
18.502474
18.630624
18.056631
18.241405
18.394589
17.151833
16.031861
16.076565
16.947985
16.547441
17.729998
16.765594
17.486811
16.260743
17.834902
18.877983
19.188523
20.230412
23.076534
22.579432
23.825765
25.899410
24.744868
25.816560
23.643970
22.766590
21.006465
19.239783
18.323660
16.761422
14.386773
14.093518
13.453960
14.191866
12.669563
12.324452
12.231469
11.788607
12.983680
12.878776
13.020635
12.636781
13.244748
12.144446
12.051463
14.007688
13.487935
12.750626
12.994409
13.354421
14.240742
13.427734
13.903975
13.545752
13.770461
13.229847
12.420416
13.106465
12.527704
13.193488
12.827516
12.540817
12.504458
##ZVALUE=250
2.605915
2.677441
2.775788
2.625585
2.634525
3.025532
4.046559
18.813610
51.522851
141.294003
272.364616
541.286469
782.924891
1015.669703
1015.669703
1015.669703
1015.669703
1015.669703
1015.669703
712.027550
485.390425
277.882814
168.295503
111.688972
109.169483
126.546621
137.804747
145.942569
140.519738
129.516721
106.528997
86.401701
63.280463
42.680502
27.587414
20.242929
16.741753
15.449524
14.769435
14.860630
16.251802
17.389655
15.841722
15.790462
18.550754
16.807914
18.324852
18.402934
17.561913
18.329620
16.817451
18.290877
18.376708
17.023683
18.507838
17.194748
16.128421
17.138720
16.416907
17.079711
16.383529
15.206933
15.420914
16.556978
15.115738
15.235543
15.273690
16.911626
16.535521
16.914606
18.579960
19.447803
20.294785
22.029877
22.920966
23.109913
21.721721
22.581816
20.735860
18.775463
19.251704
15.673637
14.677644
14.224648
13.602972
12.001991
11.699796
10.434985
10.788441
11.201501
11.003613
11.687875
12.471676
12.204647
12.679696
11.464953
13.627410
13.278723
13.006926
11.905432
12.309551
12.560487
12.012720
12.344718
12.208819
12.900829
12.415648
11.778474
11.591911
12.911558
12.129545
12.462735
11.955500
10.902882
12.248755
12.446642
##ZVALUE=255
2.107620
1.977682
2.647638
2.423525
2.594590
2.744794
3.109574
2.752542
3.165603
10.336637
33.076406
108.864903
222.542882
471.055508
713.653564
1015.669703
1015.669703
1015.669703
1015.669703
1015.669703
1015.669703
982.031822
677.905679
430.578589
215.686560
133.704543
101.312995
107.923746
133.118629
145.169497
151.946545
151.701570
134.133697
114.021897
85.219741
67.596436
43.634772
32.708645
21.720529
19.486547
17.678738
16.970634
17.326474
18.002987
18.067956
18.361807
18.257499
17.941594
18.149614
18.720627
18.333793
18.108487
19.324422
18.329620
17.652512
17.779469
18.018484
17.647743
17.161965
16.698837
16.223788
16.416907
15.292764
15.802979
14.974475
15.186667
15.098453
14.744997
14.615655
16.121864
17.515421
18.947721
20.397902
19.949675
20.762682
20.302534
19.780993
19.776821
18.369555
18.029809
16.707778
14.961958
13.540983
12.788773
11.873841
11.384487
10.004640
10.367632
10.400414
10.698438
10.423660
10.559559
11.023879
10.689497
12.136698
11.992455
12.025833
11.980534
12.103915
12.958646
12.553930
12.737513
12.369752
12.656450
12.195706
13.182759
12.519956
12.838840
13.031960
13.227463
12.930632
12.983680
12.281537
12.063980
11.901855
12.006760
##ZVALUE=260
1.860857
2.082586
2.009869
1.995564
2.111793
2.007484
2.489686
2.665520
2.506971
2.920628
3.067851
5.396008
17.816424
75.430870
160.456896
377.410054
622.795820
999.318957
1015.669703
1015.669703
1015.669703
1015.669703
1015.669703
1015.669703
932.708979
543.604493
344.706774
206.554532
112.608671
95.936656
115.317702
134.334564
153.134465
161.744952
159.156919
142.860413
122.005939
94.102621
67.240596
51.364899
35.540462
29.196739
21.853447
21.560788
20.100474
22.069812
21.310449
21.417737
21.356940
21.232963
21.247864
21.010637
19.979477
19.854903
19.255877
20.357966
18.844604
19.040704
19.163489
19.198656
18.231869
17.114878
18.148422
17.244816
16.938448
16.601682
15.838742
16.188622
16.375780
16.919971
16.696453
18.019676
18.211603
18.815994
18.580556
19.315481
17.207861
17.383695
16.183853
15.568733
14.752746
12.248755
12.748837
11.511445
10.759830
10.328889
9.765625
10.310411
10.521412
10.280609
10.246634
10.983944
11.034608
11.763573
12.243986
12.946725
13.666749
13.980865
14.813542
15.632510
14.601946
14.424920
14.241934
15.084743
14.514923
14.571548
14.401674
14.719963
14.909506
15.187860
14.319420
15.196800
15.025735
14.581680
14.716983
13.787746
##ZVALUE=265
1.719594
1.995564
1.981854
1.833439
1.841784
2.009869
2.128482
1.862645
2.283454
2.305508
2.890825
2.955794
3.167987
3.920794
9.024739
47.089458
115.931630
301.027894
540.997982
975.891948
1015.669703
1015.669703
1015.669703
1015.669703
1015.669703
1015.669703
1015.669703
880.889893
477.847457
280.276537
133.016706
94.070435
96.060634
115.890503
143.442750
160.180926
167.481899
166.189671
147.358775
129.228830
99.335909
77.831745
53.379536
43.026805
31.693578
27.970672
25.542974
25.585890
24.457574
24.784803
25.851727
24.389625
24.893880
24.797916
23.383498
23.435950
22.552609
22.015572
20.721555
21.156669
20.379424
20.086765
19.442439
19.063950
18.209815
17.883778
17.536879
17.394423
17.214417
16.982555
17.156601
18.535852
18.222928
18.509626
19.003749
18.435717
17.200708
15.435815
15.269518
14.031529
12.427568
11.790991
11.421442
10.737777
10.062456
10.444522
9.819865
10.577440
9.985566
9.893775
9.811521
10.502934
11.222959
11.760592
12.114644
12.900829
13.438463
14.032722
14.530420
14.072657
14.376640
13.578534
14.951825
14.029741
13.984442
14.243722
14.368892
14.118552
14.779568
14.537573
14.364719
13.695955
13.452768
12.886524
12.524724
12.230873
##ZVALUE=270
1.646876
1.784563
1.730919
1.764894
1.823902
1.851916
1.910925
2.014637
2.158880
2.172589
2.158880
2.601743
2.494454
2.923608
2.938509
3.234744
4.334450
21.902919
63.125491
206.647515
406.790972
813.809633
1015.669703
1015.669703
1015.669703
1015.669703
1015.669703
1015.669703
1015.669703
1015.669703
689.361691
419.435501
193.443894
106.643438
79.164505
93.680620
126.348734
147.556663
168.718696
176.802874
170.512795
157.123804
129.698515
110.081434
79.565644
63.442588
45.508742
37.278533
31.680465
29.609799
28.886795
28.541684
28.998852
28.050542
28.354526
25.961995
25.061965
24.362803
25.089979
23.180842
23.072958
22.477508
21.162629
20.289421
20.868778
20.067692
18.533468
19.012690
18.203855
18.285513
18.335581
19.219518
18.871427
18.196702
18.329620
17.582774
16.838908
15.857816
15.179515
13.334751
12.585521
12.399554
11.144876
10.731816
9.878874
10.032654
9.972453
9.411573
9.421706
8.954406
8.940697
9.143949
8.469820
8.663535
7.996559
8.513927
8.624792
8.492470
8.772612
8.052588
7.971525
7.817745
7.597804
8.248687
8.196831
7.951856
8.221865
8.215904
8.297563
7.345676
7.592440
8.247495
7.453561
7.703900
7.667542
7.361770
##ZVALUE=275
1.456738
1.558661
1.570582
1.633763
1.803637
1.603961
2.002716
1.744628
1.783967
1.605749
1.890659
2.041459
2.241731
2.089739
2.604723
2.569556
2.504587
2.924800
3.331900
10.119677
36.487579
138.434768
297.985673
668.940544
997.045636
1015.669703
1015.669703
1015.669703
1015.669703
1015.669703
1015.669703
1015.669703
946.084857
584.540963
270.320773
144.493580
75.547695
75.672865
99.831820
125.417709
153.910518
168.228745
175.991654
174.658895
157.606006
136.627555
107.424855
85.794926
64.095855
49.542785
38.897991
33.425689
31.502843
29.040575
28.598905
27.560592
26.727915
27.005672
25.691986
24.681687
24.383664
24.053454
23.132563
23.255944
21.435618
21.180511
19.831657
20.004511
19.789934
19.120574
18.893480
19.327998
18.887520
19.280910
18.889904
17.776489
17.276406
16.115904
14.558434
13.630986
13.748407
12.997985
11.438727
11.299849
10.087490
10.078549
9.451509
9.447932
8.609891
8.725524
8.199811
7.918477
8.763671
8.027554
7.987618
7.660985
7.342696
7.478595
7.776618
7.287860
7.648468
7.557869
7.706881
7.319450
7.514954
7.308722
7.350445
6.934404
7.187724
6.696582
6.879568
6.859899
6.872416
6.644726
6.213784
6.561875
##ZVALUE=280
1.525879
1.403689
1.365542
1.534820
1.563430
1.625419
1.635551
1.668930
1.770854
1.708865
1.884699
1.957417
1.810789
2.023578
2.165437
2.002716
2.358556
2.462864
2.524853
3.017783
3.115535
5.771518
22.154450
100.302696
227.892995
532.586575
860.982537
1015.669703
1015.669703
1015.669703
1015.669703
1015.669703
1015.669703
1015.669703
1015.669703
741.218925
371.751785
190.096498
83.566904
62.839985
76.390505
97.266436
127.482414
148.627758
169.202685
175.047517
168.032646
155.972838
128.908753
108.596683
79.949498
61.942935
44.902563
37.242770
31.016469
27.699471
26.482940
25.547743
25.224686
24.870634
23.673773
23.713708
22.665858
22.326708
21.357536
21.015406
20.836592
20.097494
19.714832
18.983483
17.960668
18.988848
18.691421
18.565655
17.819405
17.805696
16.572475
15.599728
14.622808
13.280511
12.940764
12.544990
11.072755
11.605620
10.747910
9.797812
9.796619
9.577870
9.000897
9.232759
8.976460
8.862615
7.995963
8.301735
7.817745
7.470846
7.502437
7.498860
7.492900
7.452965
7.126927
7.229447
7.269979
7.309914
7.119775
7.135868
7.510781
6.670952
6.902814
6.526709
6.865859
6.829500
7.069707
6.407499
6.441474
6.152987
##ZVALUE=285
1.248717
1.313686
1.305938
1.228452
1.497865
1.306534
1.561642
1.481771
1.615882
1.722574
1.592636
1.668930
1.852512
1.694560
1.895428
1.856685
2.025962
1.964569
2.258420
2.488494
2.458692
3.257990
3.393888
3.994703
9.645820
52.516460
129.568577
343.318582
621.978045
978.211761
1015.669703
1015.669703
1015.669703
1015.669703
1015.669703
1015.669703
1015.669703
980.857015
531.149507
293.489695
146.684647
61.361790
51.105618
67.060590
89.194775
119.596720
138.120651
157.199502
165.936947
164.686441
147.380829
130.292773
103.426576
80.820918
56.378841
42.159557
31.293631
26.304722
22.667646
21.849871
20.959973
20.014644
20.962954
19.552708
19.692779
18.537641
18.128753
18.641949
17.869473
18.903613
17.372966
17.901659
17.297864
17.505884
17.148852
15.903711
15.393496
15.370846
14.317632
12.754798
12.523532
11.637807
10.917783
10.771751
10.019541
9.789467
9.431839
9.094477
9.186864
8.861423
8.265972
8.598566
8.085966
7.687807
7.802844
8.081794
8.034706
7.704496
7.214546
7.259846
7.234812
7.035732
7.123947
6.772876
7.184744
6.971955
6.871819
7.188916
7.038713
7.140636
6.157756
7.336736
6.673932
6.213784
6.403923
6.332994
##ZVALUE=290
1.376867
1.518726
1.413822
1.144409
1.233816
1.171827
1.397729
1.427531
1.314878
1.409650
1.477599
1.557469
1.522899
1.723766
1.690984
1.832843
2.010465
1.899600
1.903772
2.141595
2.247691
2.452731
2.697706
2.962947
3.136992
3.575683
4.700422
14.401674
73.663592
180.055499
446.023941
762.313604
1015.669703
1015.669703
1015.669703
1015.669703
1015.669703
1015.669703
1015.669703
1015.669703
757.349730
440.679789
183.875561
84.214807
39.895773
41.354895
59.290528
79.784989
107.092857
128.720403
148.438811
155.554414
153.996944
142.368674
119.319558
95.391870
68.353415
52.259564
35.558939
27.508736
20.663738
17.766953
16.813874
16.408563
15.463829
15.732646
15.061498
15.079975
14.906526
15.434623
15.864968
15.482903
15.763640
15.043616
14.937520
14.064908
13.430715
13.250709
12.317896
11.661649
10.792613
11.248589
10.095835
10.173917
9.135604
9.381771
8.760691
8.971691
8.788705
8.781552
8.314848
8.188486
7.775426
7.832646
7.553697
7.651448
7.402897
7.031560
7.418990
7.455945
6.767511
7.191896
7.310510
6.954670
6.938577
6.746650
6.894469
6.793737
6.963611
6.338954
6.772876
6.335974
6.239414
6.521940
6.254911
6.199479
##ZVALUE=295
1.266599
1.068711
1.311898
1.306534
1.106858
1.283884
1.294613
1.240969
1.197457
1.487732
1.477599
1.422763
1.306534
1.569986
1.373887
1.443624
1.649857
1.812577
1.828671
1.877546
1.767874
2.086759
2.145767
2.387762
2.657771
2.843738
2.961755
3.422499
4.031658
7.746816
40.589571
116.198659
332.682729
618.363619
1015.669703
1015.669703
1015.669703
1015.669703
1015.669703
1015.669703
1015.669703
1015.669703
969.413519
609.256625
264.840722
122.995973
41.402578
28.442740
37.598610
50.981641
74.426532
95.263720
121.377707
134.400725
143.630505
143.255591
127.326846
111.210942
87.642670
68.763494
45.963526
33.414960
21.787882
17.532706
13.783574
12.609959
11.809468
12.495518
12.104511
12.642741
12.634993
13.195872
13.230443
13.320446
12.559891
12.511611
11.730790
11.590719
10.313988
10.384917
9.922981
9.256601
9.238720
8.991957
8.958578
8.715987
7.939935
8.326769
8.102655
8.021593
7.994771
7.584691
7.692575
7.614493
7.569790
7.107854
7.395744
7.096529
7.301569
6.892681
7.080436
6.907582
6.732941
6.668568
6.714463
6.436706
6.832480
7.111430
6.744862
6.557703
6.352663
6.758571
6.316900
6.518960
6.112456
6.301999
##ZVALUE=300
1.109838
1.059771
1.188517
1.214743
1.208782
1.199841
1.240969
1.259446
1.283884
1.228452
1.263618
1.297593
1.439452
1.447797
1.455545
1.455545
1.561642
1.617670
1.564622
1.677871
1.671910
1.946688
1.943707
2.148747
2.245903
2.255440
2.382994
2.459884
3.170967
3.206730
3.678799
4.436970
18.037558
66.139698
224.305391
440.585613
909.440517
1015.669703
1015.669703
1015.669703
1015.669703
1015.669703
1015.669703
1015.669703
1015.669703
827.873945
409.183502
211.263895
70.963502
30.176640
24.012923
30.961633
47.049522
62.050819
88.839531
108.329654
127.310753
135.210752
133.337975
124.984980
102.414489
86.358786
61.218739
45.284629
29.099584
20.835996
14.496446
12.301803
10.584593
10.681748
11.136532
11.444688
10.834932
10.917783
10.793805
10.553598
10.193586
9.948611
9.522438
9.006858
8.952618
8.354783
8.141994
8.156896
7.821918
7.727742
7.607937
7.386804
7.282495
7.234812
7.298589
7.387996
7.376671
7.156730
6.970763
6.925464
6.624460
6.762743
6.762743
6.548762
6.646514
6.502867
6.856918
6.735921
6.543994
6.456971
6.535649
6.659627
6.935596
6.469488
6.567836
6.492734
6.364584
6.030798
6.004572
5.649924
##ZVALUE=305
0.831485
1.115799
1.128912
1.185536
1.132488
1.168847
1.258850
1.174808
1.267791
1.203418
1.263618
1.127720
1.245737
1.123548
1.194477
1.262426
1.439452
1.568794
1.561642
1.527667
1.604557
1.721978
1.953840
1.797676
1.922846
2.102852
2.312660
2.015829
2.436638
2.587438
2.755523
3.007650
3.375411
3.953576
9.170771
35.151839
145.393610
319.767594
722.856522
1015.669703
1015.669703
1015.669703
1015.669703
1015.669703
1015.669703
1015.669703
1015.669703
978.560448
617.289543
334.514976
119.727850
47.793984
18.890500
20.339489
29.639602
41.327477
61.539412
79.799891
102.152824
117.025971
128.146410
127.476454
115.028620
101.041794
77.184439
59.772730
41.034818
28.751493
17.420650
13.456941
11.294484
10.823607
10.239482
10.207891
9.900928
9.546876
9.240508
8.591413
8.719563
8.181930
8.061528
8.046627
7.596612
7.690787
7.176995
7.495880
7.353425
7.236600
7.027984
6.941557
6.634593
6.821752
6.640553
6.909966
6.689429
7.080436
6.643534
6.574988
6.726980
6.474853
6.566644
6.374717
6.381869
6.502867
6.513000
6.318688
6.403923
6.149411
6.539822
6.692410
6.398559
6.182790
6.340742
6.148815
5.886555
5.910993
##ZVALUE=310
1.156926
0.986457
1.064539
0.884533
1.173615
1.132488
0.865459
1.120567
1.038909
1.228452
1.314878
1.131892
1.209974
1.181960
1.176596
1.279712
1.387596
1.287460
1.327991
1.406670
1.349449
1.362562
1.402497
1.685619
1.676679
1.668930
1.979470
1.758933
1.832843
2.247691
2.419949
2.352595
2.602935
2.984405
3.331900
3.776550
4.558563
14.712811
80.930591
194.829106
492.932796
850.845575
1015.669703
1015.669703
1015.669703
1015.669703
1015.669703
1015.669703
1015.669703
1015.669703
798.045993
469.212532
192.921758
82.781911
24.683475
15.592575
18.390417
24.772882
38.278699
50.808787
73.441863
91.539621
110.049844
117.576718
118.959546
112.722516
96.763968
79.444647
55.807829
40.995479
27.467608
19.299984
13.932586
11.535883
9.716749
8.999705
8.565784
8.009672
7.893443
7.241964
7.279515
7.300973
7.337928
6.820560
6.947517
6.868839
6.976724
7.205606
6.929636
7.010698
6.622672
6.517768
6.957650
6.500483
6.400943
6.161928
6.268620
6.042719
6.269813
6.238818
6.029606
5.986691
6.343722
6.446838
6.309748
6.262660
6.388426
6.349683
6.093979
6.227493
6.083846
6.073713
6.166697
6.057620
5.764961
5.740523
##ZVALUE=315
1.152754
0.946522
0.899434
1.044869
1.055598
1.041889
0.984669
0.864863
1.129508
1.076460
0.927448
1.141429
1.139641
1.247525
1.244545
1.095533
1.212955
1.192689
1.116991
1.300573
1.273751
1.307726
1.441836
1.565814
1.575947
1.557469
1.665950
1.667738
1.651645
1.955628
1.871586
2.172589
2.149940
2.322793
2.541542
2.795458
3.061891
3.374815
4.121661
7.277727
29.737949
135.141611
309.399962
712.921023
1015.669703
1015.669703
1015.669703
1015.669703
1015.669703
1015.669703
1015.669703
1015.669703
981.718898
621.648431
268.644691
124.623775
35.928488
15.755892
13.682842
15.902519
23.792982
33.231974
50.301552
66.468716
86.853504
100.939870
110.616684
113.211870
103.150606
91.689825
72.007775
56.557655
37.731528
27.053952
17.995834
13.084412
9.459853
8.407831
7.321835
6.770492
6.938577
6.701946
6.465912
6.483793
6.364584
6.543994
5.959868
6.337762
6.479621
6.302595
6.238818
6.026626
6.385446
6.279945
6.121993
6.438494
6.179810
6.192923
5.769730
6.321669
5.946755
6.239414
5.688667
6.063581
6.192923
6.015897
6.346703
6.013513
6.171465
6.047487
5.915761
6.085634
5.783439
5.854964
5.882978
5.435944
##ZVALUE=320
0.784993
0.952482
0.895858
0.879765
1.056790
0.963807
1.039505
0.897646
1.036525
1.059771
1.018643
1.147985
0.996590
1.082420
1.164675
1.061559
1.157522
1.136661
1.149774
1.294613
1.257658
1.354814
1.436472
1.257658
1.374483
1.435876
1.575947
1.508594
1.613498
1.635551
1.813769
2.046824
1.934767
2.167821
2.134442
2.247691
2.223849
2.510548
2.844930
3.050566
3.501773
4.245639
18.063784
62.947869
229.770541
467.308760
948.299766
1015.669703
1015.669703
1015.669703
1015.669703
1015.669703
1015.669703
1015.669703
1015.669703
823.248625
373.129845
186.510682
60.672760
23.445487
11.688471
12.191534
15.012622
20.193458
30.915737
42.511821
62.188506
78.280568
96.482635
104.768872
105.788708
100.442767
86.504817
70.928931
52.247643
38.911700
24.354458
17.204881
10.868907
8.478761
6.867647
6.558895
6.291866
6.398559
6.120801
6.361604
5.858541
6.045699
6.261468
5.951524
6.157756
5.863905
6.205440
5.917549
6.218553
6.126761
5.832911
5.537868
5.829930
5.861521
5.719662
5.997419
5.817413
5.856752
6.082654
6.497502
6.262660
6.074905
6.007552
6.170869
5.880594
5.824566
6.001592
5.575418
5.701780
5.344748
##ZVALUE=325
0.873804
0.960827
0.970960
0.925660
0.821948
0.960827
1.092553
0.952482
0.775456
0.977516
0.953674
0.904799
1.003742
1.161695
1.110435
0.882745
1.263618
1.078844
0.902414
1.197457
1.169443
1.031756
1.188517
1.251698
1.210570
1.340508
1.374483
1.280904
1.327991
1.484752
1.392961
1.570582
1.699924
1.686811
1.969934
2.004504
2.062917
2.248883
2.249479
2.395511
2.668500
3.106594
3.351569
3.825426
9.479523
36.976933
146.808624
312.965512
710.546970
1015.669703
1015.669703
1015.669703
1015.669703
1015.669703
1015.669703
1015.669703
1015.669703
972.058773
514.344573
274.394751
95.537901
34.971833
12.333989
10.618567
11.366606
13.604760
19.796491
27.831793
45.244694
59.681535
78.856945
89.544654
99.365711
100.457668
91.637969
81.028938
63.951612
49.115419
32.075644
22.548437
13.754964
10.454655
7.701516
6.592870
6.302595
5.898476
5.841851
5.424619
5.537868
5.370975
5.656481
5.728602
5.801916
5.881786
5.659461
5.826950
5.959868
5.865693
5.592704
5.583763
5.783439
5.983710
5.794764
5.838871
5.988479
5.832911
5.842447
6.138682
6.078482
5.963445
5.833507
5.811453
5.809665
5.633831
5.576611
5.282760
##ZVALUE=330
0.921488
0.777841
0.836849
0.793934
0.872612
0.903606
0.899434
0.801682
0.963807
0.882745
0.783801
0.788569
0.837445
1.001954
0.930429
1.071692
0.894666
1.054406
0.992417
1.193881
1.124740
1.206994
1.107454
1.337528
1.306534
1.273751
1.324415
1.396537
1.285672
1.118779
1.557469
1.485944
1.598597
1.589656
1.651645
1.518726
1.762509
1.786947
1.961589
2.061725
2.234578
2.402663
2.273917
2.760887
3.036857
3.654957
4.667640
20.449758
71.836710
188.444853
495.538712
863.649845
1015.669703
1015.669703
1015.669703
1015.669703
1015.669703
1015.669703
1015.669703
1015.669703
684.446692
379.049778
145.937800
58.839917
15.799999
10.247827
9.757876
10.134578
13.854504
18.478632
28.691888
39.180517
57.473779
70.868731
85.080862
90.579987
92.107654
86.232424
72.235465
59.794784
42.377710
30.930638
20.490885
14.797449
9.857416
7.516742
6.090999
5.867481
5.541444
5.462766
5.451441
5.290508
5.661845
5.644560
5.775690
5.703568
5.636811
5.499721
5.575418
5.524755
5.643964
5.396605
5.689859
5.782843
5.798936
5.861521
5.797744
5.843639
5.609989
5.838871
5.866885
5.875826
5.760789
5.700588
5.350709
5.589724
##ZVALUE=335
0.665784
0.762939
0.900626
0.709891
0.880957
0.814795
0.897646
0.905991
0.941753
0.926852
0.778437
0.829697
0.953674
0.976920
0.972748
0.821948
0.795722
0.917912
0.813603
1.090765
1.088977
1.009703
1.134872
0.959635
1.039505
1.272559
1.098514
1.255870
1.216531
1.330972
1.386404
1.385808
1.544952
1.258850
1.449585
1.516938
1.482964
1.467466
1.607537
1.775622
1.882911
2.103448
2.031922
2.407432
2.398491
2.805591
3.040433
3.328919
3.708601
6.427765
39.611459
116.716027
342.741609
639.346838
1015.669703
1015.669703
1015.669703
1015.669703
1015.669703
1015.669703
1015.669703
1015.669703
891.596675
522.542596
209.899545
91.442466
25.267601
11.130571
8.959770
9.258986
10.379553
12.280941
18.274784
25.466681
37.628412
50.208569
66.001415
76.490641
84.992647
85.382462
78.150630
69.231987
54.905415
43.668747
29.824972
21.427870
14.085770
10.255575
7.282495
6.258488
5.627871
5.678535
5.623698
5.083680
5.580783
5.437732
5.288720
5.490780
5.373955
5.312562
5.659461
5.394816
5.575418
5.393624
5.467534
5.775690
5.728602
5.802512
5.797744
5.821586
5.788803
5.763769
5.600452
5.664825
5.244613
5.277991
##ZVALUE=340
0.865459
0.862479
0.822544
0.950694
0.742674
0.838637
0.824928
0.885725
0.863671
0.865459
0.893474
0.795722
0.877976
0.893474
1.029968
0.982881
1.028776
0.897646
1.014471
0.835657
0.941753
1.157522
0.953674
1.006722
1.047850
1.013875
1.154542
1.089573
1.209974
1.193881
1.403689
1.117587
1.326799
1.245737
1.318455
1.428723
1.491904
1.550913
1.528859
1.726747
1.839995
1.712441
1.881719
1.950860
1.984835
2.153516
2.431870
2.649426
2.889633
2.897978
3.470778
4.322529
20.262599
71.355700
247.929692
483.134985
961.569548
1015.669703
1015.669703
1015.669703
1015.669703
1015.669703
1015.669703
1015.669703
1011.699438
669.283867
293.977857
131.722689
33.222437
13.350844
9.469986
9.206533
8.797646
9.850860
11.720657
15.581846
23.928881
33.670664
48.615932
60.041547
72.664618
78.722835
79.573989
75.488687
64.621568
54.527521
40.915608
31.045675
20.597577
14.974475
9.902716
7.504821
6.181598
5.778670
5.566478
5.435944
5.319715
5.462766
5.453825
5.601645
5.377531
5.485415
5.587935
5.519986
5.658865
5.844831
5.956888
5.980730
6.137490
5.800724
5.926490
5.535483
5.762577
5.513430
5.500913
5.288720
##ZVALUE=345
0.805855
0.770688
0.822544
0.795722
0.979900
0.863671
0.834465
0.817776
1.081824
0.710487
0.877976
0.863671
0.881553
0.862479
0.801682
0.854731
0.767708
0.907779
0.961423
1.089573
0.910759
1.005530
0.870824
0.873804
1.091957
0.878572
1.160502
0.949502
1.144409
1.145601
1.131892
1.233816
1.269579
1.249909
1.260638
1.233816
1.323819
1.337528
1.301765
1.559854
1.439452
1.640916
1.561642
1.761913
1.620650
1.991987
2.053976
2.091527
2.341866
2.388954
2.723932
2.587438
3.310442
3.760457
9.299517
37.081838
156.888962
329.269767
718.261003
1015.669703
1015.669703
1015.669703
1015.669703
1015.669703
1015.669703
1015.669703
1015.669703
893.800855
398.270488
183.890462
53.263903
20.104647
10.292530
8.943677
8.590817
8.144975
8.389950
10.164976
14.788508
20.941496
33.064485
42.643547
55.179596
64.793825
72.378516
74.034929
70.184469
63.530803
50.985813
41.830540
29.722452
21.766424
14.569759
10.832548
7.803440
6.771684
6.002784
5.456805
5.449653
5.255938
5.363822
5.345941
5.449653
5.347729
5.384684
5.680919
5.532503
5.594492
5.999804
5.710721
5.848408
5.659461
5.782843
5.373955
5.658865
5.511642
##ZVALUE=350
0.913739
0.775456
0.916719
0.697970
0.868440
0.730753
0.698566
0.989437
0.808835
0.865459
0.834465
0.865459
1.011491
0.809431
0.893474
0.954866
0.881553
0.964999
0.762939
1.000762
0.891685
0.936985
0.932813
0.909567
1.005530
0.936985
0.970960
1.073480
0.918508
0.992417
1.020432
1.019835
1.145601
1.225471
1.276731
1.246929
1.206994
1.436472
1.402497
1.311898
1.341701
1.478791
1.580715
1.612902
1.451969
1.534820
1.866817
1.890659
1.782775
2.130866
2.180934
2.271533
2.508759
2.872944
3.084540
3.418922
5.341768
18.613935
88.522434
207.780004
517.591834
891.268849
1015.669703
1015.669703
1015.669703
1015.669703
1015.669703
1015.669703
1015.669703
972.142816
493.716598
262.463689
91.344714
32.276511
10.991693
8.636713
7.634759
7.177591
6.828904
7.379651
9.278655
12.561679
19.388795
27.083755
38.128495
47.819614
59.199929
64.777732
67.054629
66.214800
58.816671
51.146746
38.730502
30.702949
20.897985
16.013980
10.749698
8.395910
6.797910
6.010532
5.628467
5.809665
5.531907
5.621910
5.911589
5.813837
5.945563
5.919933
5.811453
6.074905
5.959868
5.666614
5.284548
5.281568
5.220771
5.324483
##ZVALUE=355
0.766516
0.815988
0.795722
0.777841
0.925660
0.765920
0.907779
0.711679
0.862479
0.849962
0.887513
0.722408
0.835657
0.903606
0.940561
0.927448
0.872612
0.926852
0.891685
1.059771
0.894666
0.995994
1.022816
1.023412
0.927448
1.057982
1.057982
1.173615
1.191497
0.974536
1.010895
1.136661
0.988841
1.294613
1.187921
1.173615
1.318455
1.291633
1.365542
1.362562
1.372695
1.267791
1.267791
1.360774
1.558661
1.589656
1.622438
1.848936
1.863837
1.921654
1.875758
1.988411
2.146959
2.211928
2.550483
2.594590
3.031492
3.222823
3.978610
8.578897
48.602819
138.381720
383.262634
673.759580
1015.669703
1015.669703
1015.669703
1015.669703
1015.669703
1015.669703
1015.669703
1015.669703
690.664649
372.076631
134.190917
51.768422
13.786554
8.610487
7.668734
7.084608
6.608963
6.370544
6.822944
8.099675
11.596680
15.770793
24.296641
32.031536
43.778419
51.881671
59.949756
61.827898
60.280561
55.783987
47.263503
39.945841
29.314756
22.784472
15.115738
11.538863
8.232594
7.167459
6.134510
5.925894
5.987883
6.042719
6.012917
5.816817
6.059408
5.923510
5.778670
5.727410
5.519986
5.237460
5.127788
4.986525
##ZVALUE=360
0.841618
0.782609
0.950694
0.784993
0.938773
0.806451
0.735521
0.744462
0.906587
0.933409
0.894666
0.962615
0.898838
0.837445
0.826716
0.852942
0.869632
0.967979
1.035929
1.004934
1.007915
1.106858
1.025796
1.178980
1.163483
0.917912
0.884533
0.972748
1.031756
1.176596
1.140833
1.278520
1.135468
1.178980
1.305938
1.084805
1.247525
1.115799
1.210570
1.421571
1.290441
1.283884
1.384616
1.408458
1.281500
1.303554
1.570582
1.624823
1.805425
1.543760
1.919866
1.866817
2.136827
2.118945
2.467632
2.484918
2.451539
2.568960
2.793670
3.074408
3.429651
4.929900
23.645759
74.216723
233.444571
453.724861
913.506746
1015.669703
1015.669703
1015.669703
1015.669703
1015.669703
1015.669703
1015.669703
893.360972
535.018444
223.816633
89.512467
21.035671
9.462833
7.336736
6.850958
6.580949
6.203651
5.819798
6.244779
7.273555
9.337664
14.140606
19.935966
28.485656
36.556721
46.723485
52.475929
57.066679
56.057572
52.407980
46.940446
38.071871
31.099916
22.205710
16.959906
11.682510
9.185672
7.688999
6.703734
6.240606
6.192923
6.020665
5.898476
5.750656
5.597472
5.588531
5.118847
5.004406
5.192757
##ZVALUE=365
0.822544
0.973940
0.986457
0.942945
0.851750
0.807643
0.967979
0.798702
1.111627
0.952482
0.982881
0.702739
0.787973
0.929832
1.041889
0.989437
0.901818
0.957847
0.828505
0.932813
0.912547
1.053810
0.975728
1.051426
1.025796
0.905991
1.049638
1.174808
1.205802
1.094937
1.152754
1.086593
1.071692
1.255870
1.138449
1.163483
1.317859
1.332760
1.245737
1.416802
1.194477
1.455545
1.508594
1.440644
1.519918
1.628995
1.452565
1.540780
1.632571
1.620650
1.558661
1.770854
1.767874
1.838803
1.973510
1.915693
2.228618
2.238750
2.404451
2.586842
2.907515
3.213882
3.757477
4.025698
10.481477
38.740635
149.355531
324.381590
748.943686
1015.669703
1015.669703
1015.669703
1015.669703
1015.669703
1015.669703
1015.669703
1015.669703
713.351369
316.568613
143.401623
35.557747
12.708902
7.657409
6.737709
6.417632
6.118417
5.652905
5.605817
5.685687
6.757975
8.692741
11.527538
18.146634
24.240613
33.128858
39.952993
47.236681
50.688982
52.141547
50.711632
45.310855
38.930774
30.051470
23.869872
17.229915
13.139844
9.671450
7.772446
6.712675
6.175637
5.701780
5.329847
5.115867
5.008578
4.804730
4.505515
##ZVALUE=370
0.779629
0.798702
0.822544
0.779629
0.682473
0.795722
0.902414
0.925660
0.872612
1.017451
0.791550
1.022816
0.906587
0.981688
0.973940
0.834465
0.976920
0.900626
0.933409
1.041889
0.955462
0.980496
0.946522
0.895858
1.044869
0.962615
1.024604
0.987649
0.946522
0.874996
0.910759
1.193881
1.101494
1.150966
1.102686
1.150966
1.140833
1.225471
1.178980
1.340508
1.228452
1.316667
1.211762
1.396537
1.357794
1.293421
1.472831
1.380444
1.374483
1.435876
1.588464
1.606941
1.675487
1.585484
1.679659
1.736879
1.830459
1.973510
1.998544
2.052784
2.115965
2.439618
2.634525
2.801418
3.100634
3.351569
5.706549
19.496679
101.912618
245.913863
582.572818
930.963755
1015.669703
1015.669703
1015.669703
1015.669703
1015.669703
1015.669703
1015.669703
830.973387
423.344970
217.067599
72.190762
25.297999
8.102655
6.819963
5.994439
5.625486
5.512834
5.465746
5.594492
5.729795
7.028580
8.391738
11.390448
14.804602
21.808743
27.614832
36.262870
41.750669
47.440529
48.805475
47.624707
44.588447
38.332939
31.751990
24.343729
17.861724
14.009476
10.128617
8.245707
6.393790
5.676746
4.945993
4.670620
4.472733
##ZVALUE=375
0.839829
0.685453
0.703931
0.788569
0.854731
0.870824
0.716448
0.696778
0.842810
0.971556
0.902414
0.786781
0.814795
0.858903
0.750422
0.947714
0.933409
0.904799
0.694990
0.910759
1.122952
0.843406
0.970960
0.883937
0.968575
1.053810
0.893474
1.054406
0.886917
0.724792
1.003742
0.961423
0.952482
1.025796
1.022816
1.098514
1.209974
1.024604
0.943542
0.998974
1.077652
1.249909
1.214743
1.072884
1.116991
1.119971
1.184940
1.283884
1.319647
1.278520
1.340508
1.116991
1.299977
1.494884
1.436472
1.585484
1.478791
1.571774
1.588464
1.686811
1.826882
1.839995
1.928806
2.143979
2.329946
2.462864
2.792478
3.204942
3.937483
10.530949
58.565736
148.328543
384.338498
690.113902
1015.669703
1015.669703
1015.669703
1015.669703
1015.669703
1015.669703
1015.669703
997.615457
587.354898
339.732766
134.689808
53.704977
12.120605
6.874800
6.201863
5.922914
5.808473
6.197691
6.044507
5.960464
6.258488
6.580949
7.374883
9.187460
13.217926
17.301440
24.727583
30.738711
38.074851
42.902827
46.626925
46.667457
43.714643
37.917495
33.369660
26.063919
20.443797
14.706850
11.687875
8.183718
6.398559
5.343556
##ZVALUE=380
0.743866
0.813603
0.694990
0.722408
0.762939
0.555515
0.667572
0.813603
0.819564
0.828505
0.778437
0.831485
0.748634
0.757575
0.827909
0.699759
0.896454
0.870824
0.730753
0.709891
0.812411
0.982881
0.947714
0.923872
0.910759
0.864863
1.027584
1.042485
0.943542
1.057982
1.110435
0.833869
0.930429
0.976920
0.939965
1.181960
1.013875
1.037717
0.998974
1.091957
1.231432
1.016855
1.195669
1.176596
1.218915
1.163483
1.082420
1.115799
1.240969
1.411438
1.346469
1.059771
1.049638
1.235604
1.296997
1.416802
1.418591
1.547933
1.523495
1.612902
1.657605
1.750588
1.630783
1.760721
1.858473
2.090931
2.248883
2.507567
2.600551
3.257990
3.628731
6.453991
23.830533
113.541484
264.113545
619.400740
971.418619
1015.669703
1015.669703
1015.669703
1015.669703
1015.669703
1015.669703
1015.669703
815.171003
418.766737
224.109888
78.659654
28.144717
8.506775
6.720424
6.412864
6.315708
6.359816
6.435513
6.119609
5.818605
5.752444
5.969405
6.547570
8.025765
11.181831
15.343428
22.768974
28.019547
35.518408
40.397644
43.926835
44.405460
42.373538
38.523674
32.729506
26.905537
19.482970
15.613437
10.988712
##ZVALUE=385
0.718832
0.729561
0.730753
0.866652
0.661612
0.703931
0.777841
0.603795
0.696778
0.704527
0.645518
0.543594
0.733733
0.563860
0.647902
0.670552
0.604987
0.763535
0.778437
0.697970
0.872612
0.908971
0.956655
0.902414
0.827909
0.939965
1.011491
0.841618
1.056790
1.048446
1.114607
1.003742
1.112819
0.976920
0.957847
1.046658
1.112819
1.275539
1.332760
1.296997
1.276731
1.461506
1.219511
1.158714
1.105666
1.201630
1.183748
1.150966
1.062751
1.180768
1.225471
1.037717
1.223683
1.244545
1.148582
1.303554
1.219511
1.265407
1.267791
1.314878
1.373887
1.627803
1.675487
1.765490
1.683831
1.628995
1.785755
2.028942
2.084970
2.563596
2.905726
3.112555
3.267527
3.759861
13.332963
49.475431
194.818974
409.737825
855.734944
1015.669703
1015.669703
1015.669703
1015.669703
1015.669703
1015.669703
1015.669703
928.774476
590.069890
275.748968
131.852627
37.660599
13.000965
6.852746
6.515980
6.161928
6.193519
5.898476
5.554557
5.156994
5.064607
5.011559
5.133748
5.547404
6.704926
9.706616
12.827516
18.686652
25.269985
30.058622
35.609603
38.888454
41.125417
40.453672
36.781430
32.265782
26.217699
##ZVALUE=390
0.607967
0.553727
0.637770
0.639558
0.645518
0.700951
0.715852
0.637770
0.651479
0.703931
0.708699
0.752807
0.804663
0.622869
0.632405
0.647902
0.845790
0.644922
0.679493
0.849962
0.767708
0.691414
0.777841
0.943542
0.761747
0.818968
0.961423
0.923872
1.055598
1.094937
1.103878
1.289845
1.199841
1.176000
1.184940
1.152754
1.134872
1.130700
1.163483
1.117587
1.161695
1.334548
1.232624
1.272559
1.312494
1.332760
1.236796
1.170635
1.314878
1.268983
1.381636
1.209974
1.196861
1.336932
1.346469
1.265407
1.388788
1.404881
1.495481
1.275539
1.368523
1.279712
1.566410
1.514554
1.738667
1.889467
1.780987
1.985431
2.179742
2.350807
2.714992
2.678633
2.865791
2.954602
3.023744
3.368855
7.025599
30.061603
136.413574
301.550627
663.380623
1000.467539
1015.669703
1015.669703
1015.669703
1015.669703
1015.669703
1015.669703
1015.669703
788.238645
376.556516
191.663504
62.696934
22.526979
8.163452
6.633997
6.133914
5.864501
5.573630
5.323887
5.246997
5.116463
4.863739
5.069971
4.841685
5.423427
6.562471
9.070635
11.381507
15.919805
19.877553
26.214719
30.823946
35.715699
37.798882
37.951469
##ZVALUE=395
0.787973
0.709891
0.740886
0.624657
0.688434
0.736713
0.795722
0.827909
0.712872
0.923872
0.605583
0.616908
0.686646
0.688434
0.586510
0.753999
0.622869
0.647902
0.715852
0.724792
0.724792
0.807643
0.888705
0.748634
0.829697
0.847578
0.940561
0.820756
1.033545
1.011491
1.188517
1.034737
1.167655
1.011491
1.135468
1.087785
1.150966
1.249909
1.200438
1.279712
1.378655
1.320839
1.359582
1.393557
1.502633
1.363754
1.426935
1.216531
1.194477
1.292825
1.366735
1.240969
1.258850
1.373887
1.328588
1.255870
1.208782
1.333952
1.204610
1.493692
1.408458
1.325607
1.467466
1.501441
1.511574
1.720786
1.764894
2.007484
1.903772
2.368689
2.252460
2.352595
2.394915
2.493858
2.560616
2.597570
2.816916
3.068447
4.502535
15.969872
85.341930
211.615562
508.422852
840.939879
1015.669703
1015.669703
1015.669703
1015.669703
1015.669703
1015.669703
1015.669703
963.233709
507.601500
274.806023
105.919838
43.358803
11.500716
6.923676
6.332994
5.916953
5.686879
5.810857
5.584955
5.402565
5.421638
5.077720
5.444884
5.191565
5.582571
6.019473
6.958842
9.755492
12.407899
17.530918
22.187829
28.023720
##ZVALUE=400
0.792742
0.712872
0.740886
0.616908
0.648499
0.779629
0.588894
0.797510
0.732541
0.754595
0.843406
0.885725
0.579953
0.603795
0.643730
0.648499
0.838637
0.724792
0.599623
0.737906
0.567436
0.837445
0.822544
0.829697
0.873804
0.892878
0.831485
0.851750
0.934601
1.121759
1.035929
1.123548
1.071692
1.115799
1.137853
1.196861
1.301765
1.368523
1.225471
1.200438
1.287460
1.343489
1.340508
1.067519
1.432896
1.179576
1.421571
1.569986
1.282692
1.400709
1.150966
1.416802
1.309514
1.252890
1.384616
1.333952
1.402497
1.133680
1.442432
1.219511
1.320839
1.253486
1.440644
1.453757
1.539588
1.483560
1.642704
1.803637
2.138615
2.301931
2.217889
2.387762
2.235770
2.267957
2.276897
2.316833
2.447963
2.416968
2.702475
2.907515
3.329515
7.560849
45.746565
130.757689
365.394950
656.657815
1015.669703
1015.669703
1015.669703
1015.669703
1015.669703
1015.669703
1015.669703
1015.669703
678.452849
400.197506
167.593956
72.646737
19.116998
8.125901
6.094575
5.952716
5.917549
5.789995
6.009936
5.933642
5.801916
5.742908
5.580783
5.401969
5.169511
5.070567
5.234480
6.222725
7.706881
11.245608
##END
