##TITLE=5-1
##FORMAT=SPECTACLE-ASCII V-1.2
##DATA TYPE=ULTRAVIOLET SPECTRUM
##SECOND TYPE=ULTRAVIOLET SPECTRUM
##DATE=04/09/18
##TIME=13:49:53
##SPECTROMETER/DATA SYSTEM=SPECTACLE
##XUNITS=NM EM
##YUNITS=ENERGY
##YFACTOR=1
##FIRSTX=220
##LASTX=450
##NPOINTS=116
##3DDATA=Equidistant
##ZUNITS=NM EX
##FIRSTZ=210
##LASTZ=400
##ZPOINTS=39
##XYDATA=(Y..Y)
##ZVALUE=210
25.030971
23.089647
18.767715
15.344620
13.228655
11.986494
11.783838
8.585453
8.884668
6.552935
6.010532
4.930496
4.300475
3.650784
4.276633
5.594492
5.401969
5.123615
5.406737
5.780458
6.312728
5.956888
6.933808
7.198453
8.389950
8.831620
9.383559
10.132790
11.814833
10.786653
12.512803
11.445880
11.758804
12.706518
13.050437
13.573766
13.951659
14.326572
13.995767
14.858842
13.294816
13.645887
12.960434
13.576746
14.974475
14.401674
13.635755
12.877584
14.937520
14.233589
14.547706
14.431477
14.116764
14.011860
14.950633
14.048815
13.173819
12.920499
13.849735
13.440847
13.468862
14.520884
12.849569
12.122989
12.761950
13.348460
15.105605
15.290976
18.412471
20.360947
23.707747
27.299523
31.087995
33.491850
36.432743
39.284825
39.061904
39.220452
38.424730
34.974813
33.631921
31.691790
25.964975
23.289919
18.733740
17.364621
15.687943
13.639927
14.124513
14.371872
18.255711
22.416711
29.582977
36.777854
47.826767
56.711435
65.034628
71.636438
83.887577
87.247491
97.191930
97.795725
97.944736
96.100569
88.620782
84.584951
75.605512
68.137646
60.003996
50.509572
40.274858
32.585859
28.205514
20.507574
20.537972
17.445683
##ZVALUE=215
72.853565
74.985623
53.986907
42.366982
32.198429
23.098588
19.928813
17.204881
16.115904
15.441775
13.853908
9.851456
9.640455
6.442666
6.389618
6.076694
5.471706
5.028844
4.913807
5.399585
5.950928
6.045699
7.310510
8.284450
8.931756
8.942485
9.901524
11.780858
10.616779
12.228489
14.316440
12.662411
13.228655
12.671947
14.180541
15.833974
13.812780
15.373826
14.857650
14.933944
15.454888
14.535785
14.635921
15.618801
15.272498
14.987588
15.917420
15.459657
15.842915
16.100407
15.902519
14.972687
15.519857
16.210675
15.305877
16.915798
15.666485
15.837550
13.643503
16.065836
15.320778
16.237497
14.235973
16.924739
15.264750
15.231967
16.371608
16.836524
19.811988
20.526648
24.259686
27.978420
30.781627
31.526685
34.094453
36.342740
36.356449
35.511851
34.428835
33.003688
31.606555
30.716658
25.706887
23.052692
19.899607
17.383695
13.287663
14.167428
12.802482
12.654662
11.719465
10.765791
12.405515
13.712645
19.521713
23.047924
33.620000
39.156675
58.169961
67.143440
82.717538
93.441606
110.744834
118.812919
132.695436
140.353441
140.812993
145.992637
143.681765
141.229630
133.176446
121.197701
104.476810
93.754530
77.049732
58.934689
##ZVALUE=220
165.257454
167.037845
159.415603
148.742795
121.934414
91.031790
64.220428
43.165684
32.580495
29.294491
28.686523
24.921894
22.648573
19.648671
15.562773
12.593865
10.287762
8.205771
6.762743
6.934404
7.198453
6.828904
7.999539
7.689595
8.807778
8.886456
9.844899
12.013912
11.248589
11.104941
13.263822
13.467669
13.783574
14.085770
14.078617
15.426874
15.439987
15.969872
16.277432
16.860962
18.094778
16.346574
16.632676
17.536879
18.730760
18.842816
19.086599
19.145608
19.532442
20.283461
19.753575
19.997954
17.911792
18.681884
17.542839
19.403696
18.040538
17.633438
17.183423
18.767715
16.566515
17.414689
16.791821
16.632676
17.152429
17.001629
16.852617
18.482804
21.007657
22.328496
26.753545
29.846430
31.916499
32.973886
37.668943
39.250851
39.954782
37.790537
37.740469
37.961602
32.293797
29.425621
26.182532
25.623441
20.222664
18.754601
17.050505
14.791489
12.457967
12.113452
12.990832
12.137890
11.719465
12.263656
11.483431
11.765957
11.975765
12.768507
14.946461
18.860698
26.067495
35.393834
50.995946
68.165660
92.069507
108.816624
133.611560
163.979530
183.435678
200.153589
213.640928
219.638944
228.521824
222.974420
214.140415
201.272964
##ZVALUE=225
206.946731
207.423568
258.897543
287.056565
289.248824
267.354846
233.089924
168.641806
117.025971
76.145530
53.619742
44.394732
40.930510
42.596459
39.562583
35.971999
28.587580
22.421479
17.650723
12.734532
9.866953
8.696914
8.464456
8.166432
8.986592
9.977818
9.073615
9.959936
11.426806
11.531711
11.863708
12.416840
11.855960
13.478994
15.017986
16.279817
14.859438
16.846657
18.494725
17.227530
18.100739
17.801523
16.986728
20.143986
20.282865
21.003485
21.390915
20.434856
19.103885
19.422770
21.790862
20.759702
18.791556
19.506812
20.621419
21.962523
19.911528
20.095706
19.970536
19.262433
19.603968
18.129945
18.184781
17.592907
19.224882
18.164515
17.485619
18.472672
21.346807
23.196936
23.440719
26.286840
28.932691
32.296777
32.288432
34.367442
35.653710
31.475425
30.580759
29.549599
26.404858
25.065541
21.976829
20.315647
17.609596
17.162561
15.543699
14.475584
13.122559
12.694597
12.828708
11.858940
11.435747
11.984706
11.863708
11.981726
11.843443
12.923479
12.280941
10.772943
11.032820
12.101531
13.321638
15.776753
22.552609
33.577681
54.579973
74.878931
99.697709
137.301683
165.472627
207.711458
238.370895
277.280807
306.798816
334.800482
##ZVALUE=230
136.414766
144.203901
242.014527
324.912667
409.230590
481.269956
509.930849
473.154783
413.356423
305.312872
217.457414
130.546689
90.188980
64.960718
61.955452
63.542724
62.440634
59.551001
52.023530
42.030811
31.133890
22.996664
16.868711
13.009906
10.547638
9.355545
10.141730
9.760857
9.535551
10.534525
11.338592
11.965632
11.167526
13.338923
13.715625
12.477636
15.247464
14.448762
18.937588
19.112825
17.209649
19.860864
18.545985
19.781590
19.483566
20.094514
20.029545
21.094680
21.364689
19.325614
21.567941
20.503998
21.311641
20.459890
19.741654
21.477938
19.888878
18.996000
20.823479
19.082427
19.531846
19.389987
17.995834
18.277764
20.460486
18.597841
18.848777
18.557906
20.619631
22.234917
22.760630
25.691986
28.760433
29.709935
30.927658
32.659769
30.417442
30.328631
26.595592
27.025938
23.520589
21.897554
20.830631
19.358993
17.245412
15.991926
15.353560
13.403893
13.606548
13.024807
13.472438
12.752414
12.189746
12.110472
12.692809
12.747645
11.908412
13.431907
12.884736
11.605620
10.969639
11.101961
12.270808
10.881424
11.553764
11.613965
11.929870
14.399886
16.781688
26.033521
38.661957
61.497688
89.409947
137.046576
176.229477
245.647430
##ZVALUE=235
37.003756
41.352510
100.125670
181.741714
300.533772
470.233560
605.742931
760.869980
804.103017
761.576891
674.857497
515.910983
374.282598
228.371620
159.574747
100.072622
84.152818
92.412829
96.360445
89.158416
83.219409
70.565939
52.666664
44.450760
28.886795
19.386411
15.458465
13.603568
11.840463
12.452602
13.009906
11.543632
12.490749
12.487769
13.271570
15.312433
15.729666
16.282797
17.010570
17.149448
17.237663
19.393563
19.495487
21.060705
20.747781
21.066666
20.988584
21.440983
21.067858
20.707846
20.065904
21.785498
20.328760
19.526482
21.114945
20.512938
21.210909
20.077825
18.468499
19.083619
18.240809
19.084811
19.297600
18.224716
18.122792
19.375682
18.651485
21.071434
20.151734
21.743774
23.803711
26.477575
27.721524
30.371547
31.086802
34.441948
32.765865
30.232668
27.686954
26.401877
25.492907
23.127794
21.067858
18.652678
17.070770
16.773939
15.657544
14.710426
14.172792
14.478564
14.207959
14.408827
13.258457
14.253855
13.145804
14.402866
12.768507
15.332699
12.866855
13.490915
13.190508
13.262630
13.380647
13.154745
13.596416
12.531877
13.855696
11.534691
12.407899
14.278889
12.132525
12.808442
12.835860
19.041896
27.623773
51.447749
##ZVALUE=240
3.879666
4.266500
15.086532
40.463805
88.842511
217.198730
366.109014
629.170537
822.783709
1015.669703
1015.669703
1015.669703
1005.765796
800.421834
611.552000
378.052592
250.249505
155.602694
118.787885
106.750727
118.604898
121.758580
119.610429
103.493929
89.373589
67.483783
51.838756
41.264892
25.872588
18.570423
14.966726
14.609694
13.952851
13.962984
14.230609
14.975667
15.974641
17.421842
17.408729
17.940998
18.516779
19.252896
19.198656
18.811822
19.055605
19.993782
19.701719
21.952987
20.667911
19.245744
19.725561
21.015406
19.820929
18.971562
18.648505
17.961860
20.127892
19.269586
19.324422
17.530918
17.362833
16.715527
18.102527
17.459989
18.023849
18.531680
20.230412
18.861890
19.942522
21.543503
25.771856
26.002526
29.170513
30.608773
30.844808
31.947494
30.090809
31.310916
28.363466
26.005507
24.094582
22.526979
20.539761
17.905831
16.951561
15.635490
15.674829
14.347434
14.322996
13.456941
14.790893
13.720989
14.355779
13.215542
14.467835
13.747811
13.659596
12.553930
14.024973
13.196468
13.324618
14.306903
13.983846
12.694597
13.804436
13.481975
13.502836
13.408661
14.342666
13.464689
12.495518
12.525916
13.781786
12.420416
13.611913
12.826920
##ZVALUE=245
3.131628
3.410578
2.859831
3.786683
6.813407
27.779937
75.322986
190.919638
343.038440
611.465573
852.329731
1015.669703
1015.669703
1015.669703
1015.669703
1015.669703
846.473575
561.318994
383.659601
205.098987
143.724680
115.339756
121.578574
133.207440
135.235786
132.313967
114.076734
99.410415
77.957511
59.239864
38.354993
29.770732
20.322800
17.700791
15.143752
13.660789
14.691949
15.283823
16.024709
16.176701
16.326904
17.590523
17.164946
16.498566
18.033981
19.270778
18.049479
18.416643
17.859936
16.894937
17.814636
17.293692
17.635822
18.385649
17.446876
15.878677
16.121864
17.601848
15.796423
16.613603
15.283823
15.317798
16.369820
15.040636
15.638471
16.129613
16.605854
16.140938
16.512871
18.006563
20.235777
22.096634
23.525953
26.043653
25.671721
25.782585
24.920702
24.461746
22.971630
21.366477
19.322634
19.249916
17.481446
15.521646
14.178753
14.356971
12.565851
13.194680
12.688637
12.318492
13.422966
12.562871
11.996627
11.396408
12.621880
12.149811
12.552738
12.521744
12.285709
11.858940
12.392998
12.671947
11.558533
11.020899
11.695623
11.606812
12.007952
12.278557
11.882782
11.371970
12.520552
10.936856
11.066794
11.439919
10.709763
11.029840
##ZVALUE=250
2.862811
2.619624
2.683997
2.747774
3.399849
3.235936
4.219413
18.577576
50.211549
147.601962
288.801789
571.881533
833.310485
1015.669703
1015.669703
1015.669703
1015.669703
1015.669703
1015.669703
781.129599
531.624556
354.629755
171.598792
116.036534
114.428997
124.158859
141.239762
145.406723
138.714910
127.595663
102.927685
88.026524
60.877800
42.867661
28.062463
21.287799
17.676950
16.013980
14.672875
15.017986
15.605688
16.141534
16.345978
16.310811
16.147494
16.284585
16.856790
16.454458
17.283559
16.233921
17.549992
16.373992
17.157793
16.332865
15.616417
16.305447
16.355515
14.673471
15.688539
14.552474
15.708804
14.924407
14.363527
13.703704
13.525486
14.305711
13.442636
14.601946
15.668869
15.926957
18.632412
20.066500
20.642877
20.798445
21.006465
22.292733
21.277666
20.145774
20.117760
17.881989
17.425418
16.759634
13.713837
14.189482
12.028813
11.289716
11.255741
11.185408
11.734962
11.482835
10.272861
10.999441
11.891723
11.863708
10.760427
9.949803
11.103749
10.360479
10.945797
10.696650
11.240840
10.629892
9.643435
10.045767
9.999871
10.077953
10.785460
10.730624
11.505485
10.796785
10.275841
11.064410
11.147857
10.486841
11.235476
9.242892
##ZVALUE=255
2.193451
2.110600
2.795458
2.712607
2.459884
2.721548
3.181696
3.465414
3.442764
10.079741
33.951998
114.578605
236.158967
500.391722
767.491460
1015.669703
1015.669703
1015.669703
1015.669703
1015.669703
1015.669703
1014.524698
728.420615
452.317595
226.619840
141.880512
103.138685
109.543800
132.934451
145.892501
154.154897
152.425766
132.866502
120.211840
86.121559
68.633556
44.372678
31.095743
21.745563
18.785000
17.639995
17.160773
18.307567
17.624497
16.907454
16.847849
16.226768
17.574430
17.884970
17.869473
16.978979
17.030835
17.010570
16.408563
15.668869
15.526414
14.922619
15.770793
14.903545
14.047623
14.747977
14.252663
15.316606
14.530420
13.690591
13.305545
14.128685
13.167858
14.944673
16.265512
17.351508
17.881989
19.570589
20.535588
19.521713
20.307899
18.917918
18.724799
18.208623
16.182661
14.982820
13.141632
12.081861
12.290478
11.372566
10.395646
10.057688
10.236502
9.405613
10.144711
9.701848
10.038614
9.610653
9.303689
9.803772
10.217428
10.144711
10.368824
10.105968
10.988712
10.676980
10.180473
10.143518
9.993911
9.248853
10.065436
10.401607
9.988546
9.853840
9.157658
9.676814
9.445548
9.852648
10.095835
9.928942
9.876490
##ZVALUE=260
2.073646
1.780987
2.196431
2.629757
2.512932
2.593994
2.985597
2.971888
2.760887
3.032684
3.646612
5.621910
19.215941
78.253746
173.118711
412.776470
683.363676
1015.669703
1015.669703
1015.669703
1015.669703
1015.669703
1015.669703
1015.669703
967.376828
661.751032
361.969471
204.847455
109.192729
95.350742
115.737915
133.666992
153.123736
162.356496
157.676935
144.904852
119.232535
95.418692
67.833662
50.464869
34.507513
27.503967
20.871758
20.654798
20.989776
20.730495
18.943548
19.723773
19.674897
18.425584
19.129515
19.207597
18.527508
18.057823
17.628670
17.178655
16.548634
15.964508
15.257597
15.402436
15.595555
14.501810
15.601516
14.317632
14.400482
14.533997
13.610721
14.494658
14.931560
15.864968
16.227961
17.406940
19.049644
18.632412
18.671751
19.272566
16.642809
17.393827
15.918612
15.168786
13.269782
12.847781
11.833906
11.262894
10.495782
10.596514
9.247661
9.726882
10.078549
9.404421
9.926558
9.055734
9.383559
9.564757
8.981824
9.462833
9.426475
8.752942
9.688735
8.942485
8.749962
8.453727
8.500814
9.428859
9.284616
8.825660
9.711981
9.989738
9.388924
8.786917
8.736849
8.269548
8.914471
8.311868
8.880496
8.157492
##ZVALUE=265
2.099872
2.059937
2.408624
2.066493
2.145767
2.177954
1.980662
2.461672
2.546906
2.571940
2.843738
3.176928
3.718734
4.075766
10.727644
56.808591
137.874484
350.580812
609.780550
1015.669703
1015.669703
1015.669703
1015.669703
1015.669703
1015.669703
1015.669703
1015.669703
866.446495
537.938476
307.981968
142.986774
96.976757
96.211433
119.639635
147.187710
163.225532
170.557499
166.131854
147.835612
126.623511
104.172826
74.514747
55.792928
38.187504
30.805469
25.299788
23.959875
21.755695
22.318959
22.062659
21.699667
21.728873
21.442771
20.499825
21.650791
20.570755
20.285845
18.948913
19.421577
18.271804
16.733408
17.196536
16.638637
16.897917
16.840696
16.078949
15.319586
15.664697
15.763640
15.731454
18.063784
17.229915
18.089414
18.403530
18.365979
18.571615
17.793775
16.751885
15.302896
14.424920
13.374686
12.256503
11.655688
11.076927
9.810925
10.686517
9.886622
9.759665
9.469986
9.300709
9.271502
9.226799
9.287596
9.181499
9.151697
9.196997
8.325577
8.993745
8.530617
8.087754
8.548498
8.332729
9.022951
8.647442
9.038448
8.625984
8.617640
8.096695
8.188486
8.632541
8.708835
9.417534
8.056760
8.053780
8.956790
7.890463
##ZVALUE=270
1.951456
2.049804
2.338886
2.114773
2.121925
1.945496
2.134442
2.166629
2.146959
2.368689
2.471805
2.735853
2.465844
3.233552
3.128648
4.356503
5.344748
25.894642
80.016851
261.205435
506.773591
972.510576
1015.669703
1015.669703
1015.669703
1015.669703
1015.669703
1015.669703
1015.669703
1015.669703
807.107687
482.471585
219.192505
117.409825
80.645680
95.086694
124.779940
146.007538
167.336464
174.278617
169.813633
155.419707
129.666924
106.122494
77.741742
60.911775
43.968558
36.218762
29.107928
28.169751
26.621819
25.990605
25.539994
25.824904
23.390651
24.212599
23.271441
21.393895
21.849871
21.452904
20.658970
19.838810
19.540787
18.701553
17.641783
17.687678
17.522573
17.754436
18.274784
17.892718
18.425584
19.063950
19.284487
19.689798
19.935966
19.089580
18.507838
17.372966
15.929937
15.576482
13.970733
13.146996
12.638569
12.053847
11.664629
11.104941
10.548830
10.941625
10.279417
10.180473
9.849668
9.155869
9.043813
9.374619
8.744597
9.239912
8.912683
8.749962
8.604527
8.192658
8.965731
7.847548
8.830428
8.687973
8.465648
8.635521
8.538961
9.103417
8.371472
8.578897
8.263588
8.101463
7.556677
7.790923
7.182956
8.457899
##ZVALUE=275
1.780987
1.855493
1.802444
1.640916
1.952648
1.712441
1.935959
2.128482
2.146959
2.001524
2.365708
2.560616
2.532601
2.689958
2.818704
2.988577
3.336668
3.631711
3.817677
12.155771
45.584440
176.994801
399.017930
757.566690
1015.669703
1015.669703
1015.669703
1015.669703
1015.669703
1015.669703
1015.669703
1015.669703
1013.028026
668.933392
303.484797
162.559748
81.798434
77.331662
105.781555
127.062798
154.731870
170.035958
179.906487
175.538659
156.876445
135.711432
108.281970
85.847974
62.089562
48.431754
38.129687
33.466816
29.284954
28.347969
28.358698
25.405884
25.650859
25.101900
24.662614
24.339557
22.677779
22.161603
20.535588
20.538568
19.849539
19.625425
19.124746
18.947721
19.413829
19.635558
20.494461
21.415949
21.466613
21.008849
21.854639
21.477938
20.626783
19.385815
18.081665
17.059445
16.252995
15.555620
13.859868
13.275743
13.140440
12.416840
11.637807
11.302829
10.751486
11.009574
10.557771
9.843707
10.145903
9.911656
9.645820
9.574890
9.608865
9.846687
9.567738
9.380579
8.944869
8.479953
8.690953
8.921623
8.478761
8.804798
8.430481
8.793473
8.816719
8.467436
8.099675
8.234978
8.057952
8.286834
7.951856
8.102655
##ZVALUE=280
1.808405
1.560450
1.539588
1.561642
2.028942
1.800656
1.706481
2.106428
1.982450
1.835823
2.021790
2.061725
2.327561
2.487898
2.488494
2.514720
2.820492
2.871752
3.134608
3.501773
3.862977
6.918907
24.541616
122.115612
285.919905
671.792030
1015.156507
1015.669703
1015.669703
1015.669703
1015.669703
1015.669703
1015.669703
1015.669703
1015.669703
914.227962
441.687703
226.881504
92.655420
66.656470
80.068707
100.695491
130.219460
151.592493
170.298815
177.333951
171.166658
155.795813
129.303932
109.218955
81.389546
63.350797
45.627952
37.326813
31.228662
27.903914
26.235580
25.733709
24.749637
24.363995
23.364425
22.665858
22.163987
20.842552
21.651983
20.991564
19.949675
20.094514
19.695759
20.294785
20.215511
20.660758
21.337867
20.833611
21.057725
20.709634
19.041896
18.632412
17.965436
16.626716
14.809966
14.101863
13.272762
13.093948
12.787580
12.344718
11.853576
11.279583
10.332465
10.264516
9.909868
9.712577
9.683967
9.628534
9.330511
9.444952
9.393692
9.319782
8.846521
9.457469
9.082556
8.717775
8.818507
8.673668
8.569956
8.452535
8.266568
8.380413
8.165836
8.360744
8.469820
8.099675
7.840991
7.998943
7.612705
7.846951
##ZVALUE=285
1.558661
1.622438
1.605749
1.581907
1.565814
1.822710
1.783967
1.942515
1.840591
1.735687
2.001524
1.893640
2.015829
2.092719
2.172589
1.955628
2.176762
2.358556
2.528429
2.790689
2.960563
3.534555
3.642440
4.770756
11.199713
58.591962
151.475668
336.055756
762.813687
1015.669703
1015.669703
1015.669703
1015.669703
1015.669703
1015.669703
1015.669703
1015.669703
1015.669703
670.583844
376.146436
151.312947
73.970556
55.165887
67.889690
95.063448
116.674900
143.105984
157.865882
167.336464
163.118839
147.220492
128.570795
99.558830
80.709457
56.977868
43.312907
30.783415
26.320815
23.821592
21.251440
20.843744
20.666718
20.193458
19.861460
19.468665
18.842816
19.147992
18.277764
18.914938
19.049644
20.217896
19.473433
19.136667
19.172430
19.966960
19.068718
17.950535
17.542839
15.791655
15.934706
14.863610
13.943911
14.319420
12.750626
12.947917
11.817813
11.516809
10.725856
11.109710
10.386705
10.542870
10.081530
9.566545
9.771585
9.752512
10.027885
9.106994
9.130836
9.569526
9.966493
8.961558
8.841753
8.409619
8.732677
8.392930
8.848906
8.862615
8.381605
8.509755
8.107424
7.830858
7.936954
8.530617
7.974505
7.548928
7.393956
##ZVALUE=290
1.390576
1.487732
1.427531
1.533628
1.585484
1.439452
1.687407
1.638532
1.558661
1.637936
1.834631
1.681447
1.770854
1.974702
2.044439
2.051592
2.132654
1.960993
2.431870
2.323985
2.465844
2.686977
3.019571
3.100634
3.818870
4.022717
5.640984
19.247532
89.541078
215.350389
533.438921
935.198665
1015.669703
1015.669703
1015.669703
1015.669703
1015.669703
1015.669703
1015.669703
1015.669703
960.532427
572.469831
233.220458
103.442669
42.715669
43.616891
61.564445
79.394579
107.897520
127.485991
147.997737
155.000687
153.080821
141.459703
118.570924
96.248984
68.129897
51.274896
34.630895
27.126670
20.641685
17.772913
16.113520
15.613437
14.954805
14.532804
15.313625
14.835000
14.702678
15.419722
16.091466
15.904903
16.410947
16.576648
15.670657
15.441775
14.705658
13.621449
12.902617
12.128949
12.309551
11.438727
10.913610
10.561943
10.468960
9.968877
9.436607
9.713769
9.326935
9.810925
9.102821
8.728504
8.738637
9.080768
8.922815
8.927584
8.208752
8.405447
8.301735
8.689761
8.182526
8.336902
8.430481
8.153915
7.884502
8.503795
7.883906
8.339882
7.793903
7.782578
7.510781
7.306933
7.528663
7.313490
7.575750
7.160902
##ZVALUE=295
1.435876
1.241565
1.455545
1.440644
1.442432
1.428723
1.367927
1.329780
1.502633
1.466870
1.542568
1.680851
1.757741
1.565814
1.554489
1.973510
1.972914
1.916885
2.141595
2.289414
2.116561
2.293587
2.434850
2.691746
2.968907
3.306866
3.467798
3.886819
4.838705
7.580519
42.559505
119.793415
350.210667
699.677467
1015.669703
1015.669703
1015.669703
1015.669703
1015.669703
1015.669703
1015.669703
1015.669703
1015.669703
708.243847
378.137827
129.884481
54.566860
30.357838
35.806894
50.385594
73.982477
92.811584
119.720697
134.685636
145.791769
143.058896
128.590465
111.488700
85.640550
67.177415
44.765472
32.594800
21.608472
16.358495
13.285875
11.775494
11.551976
11.726618
11.629462
12.253523
12.452602
12.912750
13.193488
13.319850
13.133883
12.904406
11.895895
11.346936
10.577440
10.697842
10.216832
9.488463
9.323955
9.543896
8.927584
9.052753
9.210706
8.662939
8.463860
8.457899
8.243918
8.441806
8.258820
8.190870
8.277893
8.090734
8.276701
7.905960
7.913709
7.699728
8.072853
7.819533
7.934570
7.682443
7.362962
7.756948
7.895827
7.958412
7.909536
7.294416
7.620454
7.176995
7.061958
6.931424
6.764531
6.671548
##ZVALUE=300
1.308918
1.375675
1.196861
1.318455
1.413822
1.290441
1.425743
1.573563
1.456738
1.348853
1.637936
1.469851
1.686811
1.389980
1.563430
1.608729
1.753569
1.772642
1.822710
1.958609
2.038479
2.103448
2.143979
2.362728
2.765656
2.689958
3.011823
3.214478
3.351569
3.516674
4.235506
5.000830
19.621849
69.745779
235.133767
471.694469
974.399447
1015.669703
1015.669703
1015.669703
1015.669703
1015.669703
1015.669703
1015.669703
1015.669703
978.423953
501.648784
263.413787
89.540482
36.006570
24.570823
31.609535
47.952533
64.921975
88.050961
109.149814
127.955675
136.659741
132.800937
125.748515
104.248524
87.133646
61.792731
45.812726
28.914809
20.668507
13.972521
11.642575
10.570884
10.242462
10.980964
11.522770
11.348724
11.481643
11.411905
11.723638
10.885596
10.337830
9.829998
9.693503
9.071827
9.142756
8.534789
8.646846
8.313656
7.922649
8.237958
8.388758
7.918477
7.815957
8.054972
7.833838
7.814765
7.814765
7.365942
7.534623
7.830858
7.711649
7.645488
7.644892
7.439852
7.656813
7.428527
7.311702
7.526875
7.378459
7.390976
7.588863
7.439852
6.968975
7.476807
6.978512
6.778836
6.631613
6.673932
6.583929
##ZVALUE=305
1.298785
1.319647
1.148582
1.198649
1.180768
1.223683
1.314878
1.339912
1.452565
1.240969
1.515746
1.417994
1.563430
1.488924
1.408458
1.507998
1.623631
1.861453
1.756549
1.705885
1.735687
1.969934
1.951456
2.105832
2.066493
2.366900
2.372861
2.412796
2.644658
2.791882
3.295541
3.525615
3.729463
4.506707
9.912848
35.845637
150.205493
339.307785
775.718689
1015.669703
1015.669703
1015.669703
1015.669703
1015.669703
1015.669703
1015.669703
1015.669703
1015.669703
758.673549
407.533646
142.013431
55.464506
20.307899
21.069646
30.529499
42.860508
63.165426
82.244873
105.325580
118.243694
127.752423
126.715899
115.152001
101.790428
78.642964
60.225725
40.889978
28.570890
17.891526
13.734698
10.979772
10.805726
10.191798
10.205507
10.132790
9.868741
9.633899
9.305477
8.420944
8.464456
8.435845
8.421540
7.837415
7.903576
7.931590
7.790923
7.306933
7.510781
7.847548
7.647872
7.354617
7.350445
7.369518
7.229447
7.460713
7.441640
7.281899
7.020831
7.057786
6.976724
7.272959
7.149577
7.076859
7.118583
6.996989
7.002950
7.007718
7.145405
6.773472
7.140636
7.088780
6.677508
6.784797
6.551743
6.451607
6.317496
##ZVALUE=310
1.241565
1.152754
1.049638
1.146793
1.107454
1.261830
1.198649
1.157522
1.345873
1.311898
1.292825
1.404881
1.348853
1.380444
1.286864
1.377463
1.573563
1.530647
1.665950
1.578927
1.722574
1.832843
1.561642
1.958609
1.948476
1.975894
1.949668
2.086759
2.134442
2.391934
2.515912
2.793670
2.896786
3.288984
3.383756
4.080534
5.083680
19.865632
67.479610
233.996511
471.922755
962.368846
1015.669703
1015.669703
1015.669703
1015.669703
1015.669703
1015.669703
1015.669703
1015.669703
1003.070474
519.414544
264.439583
85.080862
30.860901
16.530752
18.781424
26.770830
37.121773
55.250525
72.338581
96.012950
108.167529
118.852854
120.350718
111.326575
97.647905
75.887442
59.547424
40.755868
28.899908
19.379854
14.661551
11.738539
10.036826
9.501576
8.748770
8.245707
7.966757
7.856488
7.969737
7.052422
7.123947
7.118583
6.834865
7.146597
7.357597
7.186532
7.172823
7.100701
7.539988
6.953478
7.060766
6.882548
7.139444
7.075667
6.913543
6.814599
6.994605
6.829500
6.813407
6.684661
6.677508
6.887913
6.777644
6.522536
6.936789
6.570816
6.911755
6.460547
6.729960
6.840825
6.337762
6.293654
6.423593
5.815625
##ZVALUE=315
1.040697
1.031756
0.989437
1.204610
1.195669
1.206994
1.124740
1.223683
1.066923
1.250505
1.292825
1.091957
1.281500
1.332760
1.237988
1.238585
1.372695
1.379848
1.490712
1.437664
1.624823
1.458526
1.466870
1.610518
1.710653
1.780987
1.929998
1.990795
2.028942
1.988411
1.909733
2.175570
2.380610
2.741814
2.726912
3.017783
3.620982
3.744960
4.506707
7.683635
29.840469
136.069655
318.574905
735.042691
1015.669703
1015.669703
1015.669703
1015.669703
1015.669703
1015.669703
1015.669703
1015.669703
1015.669703
806.360841
348.136425
159.412622
43.997765
17.962456
14.245510
16.883612
24.245977
33.558607
50.874949
66.701770
89.095831
101.920962
113.738775
114.181638
104.004741
92.520714
72.161555
56.777596
37.552714
27.188659
17.941594
13.327599
9.895563
8.395910
7.639527
7.273555
6.798506
6.997585
6.699562
6.510615
6.447434
6.661415
6.341934
6.429553
6.788969
6.564856
6.359816
6.691813
6.971955
6.729960
6.947517
6.897449
6.553531
6.551743
6.499887
6.427765
6.311536
6.187558
6.358624
6.402731
6.778836
6.718636
7.044673
6.461740
6.609559
6.559491
6.410480
6.619692
6.109476
6.312728
6.178617
6.004572
##ZVALUE=320
1.082420
0.988841
1.071692
1.211762
1.081824
0.968575
1.113415
1.114607
1.166463
1.103878
1.144409
1.149774
1.239777
1.245737
1.364946
1.289845
1.266599
1.183748
1.329780
1.224875
1.284480
1.537800
1.351833
1.509786
1.649857
1.654625
1.580715
1.793504
1.874566
1.820922
1.931787
1.998544
2.123713
2.269745
2.318621
2.621412
2.828836
3.048778
3.504753
3.546476
4.161000
4.946589
19.641519
67.731738
246.247649
508.916974
990.869999
1015.669703
1015.669703
1015.669703
1015.669703
1015.669703
1015.669703
1015.669703
1015.669703
1006.825566
498.492718
249.430537
78.311563
28.272867
13.301969
13.353825
15.579462
20.156503
31.345487
43.213964
62.876940
78.614950
96.582770
103.717446
106.863976
101.075768
85.772872
72.926879
52.930713
39.597750
24.185777
16.465783
11.285543
8.717775
7.312894
6.721616
6.643534
6.637573
6.284714
6.058812
5.874634
6.171465
5.940795
6.010532
6.257892
6.496906
6.254911
6.346703
6.510615
6.586909
6.728768
6.405711
6.490946
6.242990
6.227493
6.439686
5.865693
6.188750
6.389618
6.410480
6.905794
6.457567
6.509423
6.506443
6.441474
6.146431
6.205440
6.338954
5.686879
5.615950
##ZVALUE=325
1.020432
0.907779
1.001954
1.007915
0.883937
0.820756
1.063943
0.972748
1.156926
1.144409
1.127720
1.181960
1.144409
1.225471
1.262426
1.257658
1.180768
1.441836
1.302958
1.234412
1.282692
1.123548
1.371503
1.294613
1.308918
1.358986
1.469851
1.570582
1.620650
1.564622
1.698732
1.801848
1.929998
2.149940
2.222657
2.240539
2.592802
2.306700
2.586842
2.828836
3.016591
3.300905
3.730655
4.102588
10.410547
41.130781
159.369707
348.584652
792.147517
1015.669703
1015.669703
1015.669703
1015.669703
1015.669703
1015.669703
1015.669703
1015.669703
1015.669703
698.585510
378.412604
130.172968
45.195818
13.681650
11.464953
11.903644
14.131665
20.269752
29.024482
45.869946
60.429573
79.716444
90.994835
99.875927
101.108551
93.618631
82.808733
64.377785
49.677491
32.423735
22.756457
13.709664
10.111928
7.624626
6.545782
6.016493
5.739927
5.657673
5.553961
5.770922
5.784631
6.022453
5.924702
6.012917
6.280541
6.239414
6.465912
6.190538
6.333590
6.067753
6.171465
5.984902
6.194711
6.081462
6.274581
6.252527
5.966425
6.057620
6.201863
6.167889
6.372929
6.320477
5.923510
6.119609
6.125569
5.773902
5.665421
##ZVALUE=330
1.115799
0.883937
1.130700
1.040697
0.778437
0.832677
1.074672
0.844598
0.973940
0.820756
1.099706
1.059771
1.022816
0.993609
1.104474
1.109838
1.067519
1.177788
1.187921
1.260638
1.160502
1.251698
1.368523
1.289845
1.252890
1.267791
1.428723
1.321435
1.411438
1.408458
1.456738
1.664758
1.766682
1.691580
1.955628
1.947880
2.047420
2.040863
2.270937
2.232790
2.543926
2.577901
3.028512
3.026724
3.437996
3.687739
5.684495
17.463565
91.325641
231.819749
584.608912
963.630676
1015.669703
1015.669703
1015.669703
1015.669703
1015.669703
1015.669703
1015.669703
1015.669703
875.123739
490.025878
189.034939
75.112581
17.926693
11.184812
10.274649
10.901690
14.295578
19.215941
29.927492
41.356683
57.427883
70.952773
86.016655
91.636777
93.972683
87.239742
73.741674
60.966611
43.044686
31.628609
20.861626
14.926791
9.840727
7.657409
6.227493
5.800724
5.659461
5.572438
5.616546
5.614758
5.849600
5.703568
5.746484
5.906820
6.073713
5.740523
5.819798
5.876422
5.738735
5.896688
6.002784
5.862713
6.107688
6.106496
6.260872
6.305575
6.084442
6.055832
6.421804
6.056428
5.768538
5.856752
5.519986
5.030632
##ZVALUE=335
0.979900
0.934601
0.750422
0.931621
0.993609
0.803471
1.010895
0.946522
0.842810
0.914931
1.099706
0.864863
0.979900
0.927448
1.023412
1.036525
1.133680
0.967979
1.117587
1.142621
1.095533
1.241565
1.121759
1.335740
1.291633
1.397729
1.340508
1.303554
1.318455
1.178980
1.418591
1.359582
1.621842
1.565814
1.635551
1.879930
1.889467
1.817942
1.897812
2.052784
2.202988
2.410412
2.311468
2.483726
2.585649
3.028512
3.228784
3.664494
4.195571
7.055402
40.967464
124.227405
373.648405
710.259676
1015.669703
1015.669703
1015.669703
1015.669703
1015.669703
1015.669703
1015.669703
1015.669703
1007.542610
646.761656
266.916752
114.581585
30.169487
12.543797
9.638667
9.584427
10.608435
13.129711
18.973947
26.406646
38.925409
50.731897
66.995621
77.912807
85.418820
85.745454
79.392791
70.807934
56.617856
44.516921
31.004548
22.502542
14.794469
10.084510
7.322431
6.197691
5.775690
5.703568
5.639791
5.895495
5.909801
5.891919
5.527735
5.836487
5.611777
5.574822
5.349517
5.598664
5.807877
5.835891
5.724430
5.922914
6.203651
5.991459
6.018877
6.125569
5.997419
5.776882
5.382895
5.525947
5.377531
5.247593
##ZVALUE=340
0.888705
0.973940
1.040697
0.944734
0.847578
0.998974
0.859499
0.911951
0.933409
0.894666
0.904799
0.947714
0.917912
0.942945
1.062751
0.923872
1.085997
1.113415
1.107454
1.078844
1.012683
1.103878
1.100898
1.109838
1.106858
1.083612
1.345873
1.084805
1.245737
1.286864
1.402497
1.363754
1.480579
1.460910
1.438856
1.536608
1.618862
1.622438
1.845956
1.685619
1.806617
1.903772
1.949668
1.937747
2.230406
2.277493
2.763867
2.796650
3.233552
3.416538
4.009604
5.020499
25.076866
81.898570
269.907713
546.760559
1015.669703
1015.669703
1015.669703
1015.669703
1015.669703
1015.669703
1015.669703
1015.669703
1015.669703
809.850693
358.050466
163.033009
39.223433
14.721751
10.352731
9.947419
9.672642
10.195971
12.801886
16.293526
25.067925
34.866929
50.242543
61.613917
73.830485
79.503655
80.133677
75.652599
64.843893
55.114627
41.159987
31.297803
20.839572
15.103817
10.075569
7.842779
6.663799
6.439686
6.159544
6.231666
5.788803
5.772710
5.501509
5.621910
5.225539
5.422831
5.617738
5.407929
5.845428
6.012917
5.990863
6.004572
6.293654
6.126761
5.922914
5.787611
5.763769
5.432963
5.522966
5.324483
##ZVALUE=345
0.947714
0.896454
0.848770
0.899434
0.776649
0.789762
0.859499
0.915527
0.933409
0.848770
0.829697
0.931621
0.851750
0.737906
0.843406
0.950694
0.985861
1.036525
0.777841
1.144409
1.035929
1.137853
1.074672
1.038909
1.264811
1.087785
1.062751
1.375675
1.203418
1.121759
1.321435
1.307726
1.517534
1.434684
1.462698
1.475811
1.516938
1.379848
1.492500
1.614690
1.565814
1.545548
1.803637
1.750588
1.873970
2.102852
2.129674
2.379417
2.516508
2.523661
2.991557
3.306866
3.733635
3.879666
10.491610
44.244528
183.168650
378.812551
818.414688
1015.669703
1015.669703
1015.669703
1015.669703
1015.669703
1015.669703
1015.669703
1015.669703
984.039903
481.732488
228.066444
64.929724
22.696853
11.371970
10.036826
9.091496
8.874536
8.861423
10.475516
15.134811
21.187663
32.226443
42.750835
56.777000
64.974427
72.696805
74.175596
70.202947
64.031482
51.859617
42.034984
29.487610
21.884441
14.708638
11.325479
8.549690
7.452965
6.472468
5.995631
5.839467
5.745888
5.512834
5.618930
5.571842
5.686879
5.863905
6.042719
6.158948
6.393790
6.408691
6.521940
6.217957
5.867481
5.688667
5.394816
5.398989
5.331635
##ZVALUE=350
0.887513
0.854731
0.938773
0.813603
0.816584
0.854731
0.850558
0.988841
0.864863
0.819564
0.983477
0.851750
0.919700
0.993609
0.940561
1.002550
0.916719
1.014471
0.967979
1.067519
0.977516
1.098514
1.098514
0.954866
0.921488
1.153946
1.127720
1.112819
1.107454
1.184940
1.134872
1.251698
1.290441
1.280904
1.364946
1.247525
1.269579
1.407862
1.481771
1.637936
1.597404
1.558661
1.639724
1.704693
1.716614
1.754761
1.860857
2.071857
2.053976
2.219677
2.366900
2.577901
2.916455
3.126860
3.418922
3.783703
6.275773
22.075772
107.219815
251.597762
611.337423
992.220640
1015.669703
1015.669703
1015.669703
1015.669703
1015.669703
1015.669703
1015.669703
1015.669703
609.557629
329.917669
116.047859
39.714575
11.897683
9.352565
8.282661
7.842779
7.473826
7.814765
10.036826
12.836456
19.928813
27.551651
38.907528
48.100948
59.451461
65.720677
67.843795
66.303611
58.753490
51.070452
39.989948
31.397939
21.480918
16.583800
11.778474
9.400845
7.256866
6.479621
5.893707
5.908608
5.886555
5.983710
6.328821
6.351471
6.565452
6.315708
6.447434
6.256700
6.366968
6.256700
5.978942
5.644560
5.365610
5.446672
##ZVALUE=355
0.810623
0.950694
0.962615
0.818968
0.764728
0.783801
1.052618
0.935793
0.826716
0.995994
0.924468
0.838637
0.920892
0.894666
1.024604
0.835657
1.044869
1.057982
1.032948
1.021624
1.162887
1.038909
1.191497
1.026988
1.096725
1.263618
1.278520
1.257658
1.244545
1.087785
1.187921
1.281500
1.226664
1.272559
1.290441
1.292825
1.447797
1.350641
1.393557
1.409650
1.551509
1.474619
1.634955
1.650453
1.579523
1.777411
1.978874
1.989603
1.827478
1.965761
2.108812
2.196431
2.473593
2.677441
3.044605
2.945662
3.008842
3.811717
4.374981
9.668469
58.194399
166.176558
454.494953
792.662501
1015.669703
1015.669703
1015.669703
1015.669703
1015.669703
1015.669703
1015.669703
1015.669703
775.633454
435.206890
162.969828
61.524510
14.343858
9.256601
8.005500
7.624626
6.807446
6.716847
7.223487
8.435845
11.924505
16.133785
25.021434
32.878518
44.762492
52.282810
59.934855
63.260794
60.942769
57.283640
48.112869
40.964484
30.457973
23.428798
15.494823
12.210608
8.908510
7.435679
6.819963
6.720424
6.711483
6.701946
6.634593
6.808639
6.802678
6.715655
6.602407
6.303787
6.215572
5.722642
5.604625
5.447865
##ZVALUE=360
0.899434
0.976920
0.862479
1.007915
0.823736
0.980496
0.880957
1.057982
0.950694
0.986457
0.931621
0.953674
0.856519
1.072884
0.975728
1.068711
0.978708
1.145601
1.019835
1.112819
1.074672
1.044869
1.173615
1.001954
1.332760
1.221895
1.238585
1.199841
1.221895
1.314878
1.153946
1.190901
1.474619
1.301765
1.184940
1.234412
1.448989
1.428723
1.328588
1.564622
1.400709
1.606941
1.586676
1.558661
1.694560
1.616478
1.832843
1.810789
1.828671
1.949668
2.025962
2.160668
2.259612
2.373457
2.542734
2.781749
2.791882
2.974868
3.286600
3.619790
4.213452
5.957484
31.912923
98.426938
310.490727
597.390532
1015.669703
1015.669703
1015.669703
1015.669703
1015.669703
1015.669703
1015.669703
1015.669703
964.127779
590.806007
238.898993
97.856522
23.387671
10.202527
8.057952
7.548928
6.782413
6.616712
6.531477
6.571412
7.892847
9.801984
14.742613
20.597577
30.597448
38.301945
48.143864
53.903461
58.220625
58.233738
54.297447
49.200654
39.438605
31.743646
23.111701
17.668605
12.337565
10.466576
8.372664
7.839799
7.122755
7.150769
7.074475
6.879568
6.798506
6.478429
6.173849
5.825758
5.822778
5.494952
##ZVALUE=365
0.825524
0.899434
0.836849
1.061559
1.056790
1.006722
1.018643
0.983477
0.969768
1.012683
1.000762
1.145601
0.971556
0.719428
1.070499
0.987649
0.913739
1.133680
0.970960
1.150966
1.127720
1.027584
1.242757
1.084805
1.187921
1.217723
1.030564
1.299977
1.331568
1.262426
1.353621
1.168847
1.234412
1.297593
1.360774
1.515746
1.494884
1.330972
1.396537
1.410842
1.386404
1.605749
1.538992
1.658797
1.609921
1.660585
1.789927
1.732707
1.685619
1.727939
2.032518
2.067685
2.126694
2.315640
2.222657
2.247691
2.487898
2.466440
2.845526
3.087521
3.392696
3.985763
4.413724
4.942417
14.271736
56.231618
213.871002
462.463498
987.675786
1015.669703
1015.669703
1015.669703
1015.669703
1015.669703
1015.669703
1015.669703
1015.669703
781.067610
342.190862
158.106685
40.783882
14.070868
8.325577
7.408857
6.694794
6.724596
6.409883
5.948544
6.364584
7.156730
9.766817
12.910962
19.074678
24.941564
34.628510
41.151643
49.068928
52.187443
53.673983
51.815510
46.380758
40.509701
31.412840
24.806857
17.796755
14.151931
10.923743
8.976460
7.926822
7.281899
6.566644
6.575584
5.907416
5.602837
5.198717
5.259514
##ZVALUE=370
0.925660
0.883937
0.897646
0.987649
0.938773
1.093745
0.974536
0.911951
1.062751
0.896454
1.068711
1.034737
1.092553
1.099706
0.978708
0.970960
0.987649
1.036525
0.970960
1.003742
1.065731
1.038909
0.923872
1.086593
1.252890
0.963807
0.946522
1.176596
1.315475
1.250505
1.228452
1.295805
1.203418
1.412630
1.336932
1.374483
1.313686
1.309514
1.311898
1.207590
1.526475
1.338720
1.513958
1.513958
1.575947
1.459718
1.491904
1.748800
1.736879
1.746416
1.762509
1.835823
1.931787
1.900792
1.960993
1.995564
2.141595
2.179742
2.237558
2.459884
2.599955
2.990961
3.231764
3.596544
3.930926
4.281402
6.943941
25.338531
142.194629
342.821479
795.902610
1015.669703
1015.669703
1015.669703
1015.669703
1015.669703
1015.669703
1015.669703
1015.669703
937.415957
433.781743
218.769908
74.108839
26.065707
8.750558
7.208586
6.745458
6.559491
6.308556
6.316900
6.421804
7.014871
7.964969
9.556413
12.959838
16.837716
23.110509
28.872490
37.427545
42.402744
48.392415
50.727725
49.737692
45.579672
39.211512
33.880472
25.563836
19.075871
15.470982
12.028813
9.283423
7.957816
6.335974
5.835891
5.484819
5.281568
##ZVALUE=375
0.892878
0.833869
0.801682
0.843406
0.726581
1.027584
0.885725
0.893474
0.934601
0.962615
1.012683
0.975728
0.959635
0.942945
0.943542
0.898838
0.924468
0.904799
0.930429
0.950694
1.035929
0.907779
0.974536
1.121759
0.885725
1.070499
0.937581
1.147985
1.143813
1.158714
1.120567
1.160502
1.172423
1.154542
1.106858
1.214743
1.163483
1.139641
1.301765
1.138449
1.352429
1.251698
1.382828
1.397729
1.335740
1.304746
1.224875
1.429915
1.588464
1.422763
1.604557
1.463890
1.482964
1.490712
1.774430
1.734495
1.885891
1.906753
2.056956
1.974702
2.079606
2.089739
2.476573
2.852678
2.836585
2.946854
3.349781
3.851652
4.785657
14.345646
55.339932
229.265690
517.521501
1015.669703
1015.669703
1015.669703
1015.669703
1015.669703
1015.669703
1015.669703
1015.669703
1014.356017
682.508945
327.341557
157.452822
44.280887
14.939904
7.512569
7.113814
6.949902
7.218719
7.259846
7.543564
7.954836
8.124709
8.629560
9.309649
11.362433
14.111996
19.196868
25.004745
33.369660
39.749742
46.223998
48.541427
48.678517
46.762824
42.021871
35.655499
28.538704
23.007989
16.580820
13.166666
9.578466
7.920861
6.576777
##ZVALUE=380
0.889897
0.779629
0.915527
0.823736
0.678897
0.835657
0.859499
0.843406
0.762939
0.811815
0.811815
0.950694
0.852942
0.932813
0.884533
0.909567
0.932813
0.886917
0.858903
0.950694
0.988841
0.777841
0.826716
0.958443
1.012683
0.945926
1.159906
1.176596
1.119971
1.208782
0.984669
1.257658
1.199841
1.133680
1.108646
1.207590
1.180768
1.098514
1.213551
1.186728
1.179576
1.220703
1.169443
1.341701
1.228452
1.249909
1.210570
1.427531
1.326799
1.463890
1.480579
1.553893
1.507998
1.492500
1.522899
1.649857
1.535416
1.729727
1.769662
1.744628
1.816750
1.894832
1.926422
2.133846
2.312660
2.247691
2.792478
2.931952
3.625751
4.204512
4.911423
7.226467
38.759708
134.709477
448.005795
866.103768
1015.669703
1015.669703
1015.669703
1015.669703
1015.669703
1015.669703
1015.669703
1015.669703
876.293778
499.497652
194.537640
82.039833
20.571947
9.433627
8.131862
8.257627
8.631945
8.609891
8.981824
8.881688
9.006858
8.339882
8.529425
8.863807
10.833740
13.261437
18.606782
23.784637
31.538606
37.485957
44.466853
47.435760
48.052669
45.850873
42.025447
35.494566
30.008554
22.239685
17.685890
12.735724
##ZVALUE=385
0.824928
0.788569
0.798702
0.706911
0.740886
0.812411
0.799894
0.894666
0.679493
0.759959
0.689626
0.846982
0.778437
0.799894
0.918508
0.799894
0.800490
0.752807
0.758767
0.870824
0.866652
0.896454
0.841618
0.859499
0.927448
0.957847
0.994802
1.046658
1.082420
1.010895
1.180768
1.176596
1.238585
1.178980
1.130700
1.223683
1.217723
1.314878
1.240969
1.192689
1.305938
1.270771
1.187921
1.343489
1.441836
1.286864
1.426935
1.327991
1.196861
1.226664
1.355410
1.323819
1.506805
1.506805
1.456738
1.529455
1.549721
1.614690
1.742840
1.664758
1.720786
1.717806
1.817942
1.976490
1.990795
2.136827
2.554655
2.473593
3.047585
3.272891
3.679991
4.231930
4.460812
5.021691
16.542673
66.031814
291.850567
656.172633
1015.669703
1015.669703
1015.669703
1015.669703
1015.669703
1015.669703
1015.669703
1015.669703
1015.669703
743.259788
322.407484
146.030784
38.969517
14.934540
9.554625
9.177923
9.267926
9.138584
9.042621
8.678436
8.499622
8.124709
7.963777
7.844567
8.584857
9.567738
12.507439
16.133785
21.502972
28.858781
33.535957
39.024949
42.551756
44.241548
44.184923
39.932728
35.645962
28.649569
##ZVALUE=390
0.921488
0.810623
0.830889
0.981688
0.698566
0.686646
0.796914
0.730753
0.809431
0.757575
0.752807
0.744462
0.708699
0.825524
0.729561
0.717640
0.735521
0.718832
0.729561
0.758767
0.801682
0.813603
0.905991
0.998974
1.069903
0.990629
1.017451
1.102686
1.084805
1.000762
1.037717
1.123548
1.110435
1.181960
1.344681
1.326799
1.335740
1.296997
1.451969
1.422763
1.303554
1.424551
1.376867
1.347661
1.366735
1.307726
1.304746
1.429915
1.493692
1.425743
1.354814
1.384616
1.433492
1.453757
1.477599
1.476407
1.552701
1.696944
1.564622
1.592636
1.651645
1.622438
1.705885
1.891851
1.772642
2.069473
2.197623
2.503991
2.736449
2.807975
3.353953
3.574491
3.604889
4.019737
4.166961
4.393458
8.803606
35.988688
172.527432
410.108566
946.218967
1015.669703
1015.669703
1015.669703
1015.669703
1015.669703
1015.669703
1015.669703
1015.669703
975.558758
470.103621
234.064460
74.599981
27.251840
11.177659
9.748936
9.287596
8.844733
8.682609
8.467436
8.192658
7.788539
7.668734
7.609725
7.617474
8.576512
9.701848
11.974573
14.259815
18.740892
22.772551
29.224753
33.303499
38.665533
40.559769
41.201711
##ZVALUE=395
0.819564
0.777841
0.613928
0.850558
0.864863
0.896454
0.849962
0.814795
0.657439
0.708699
0.747442
0.742674
0.660419
0.696778
0.807643
0.861883
0.862479
0.796914
0.993609
0.884533
0.951886
0.774860
0.883937
0.946522
0.899434
0.657439
0.978708
1.113415
1.048446
1.205802
1.097918
1.064539
1.287460
1.352429
1.262426
1.259446
1.369715
1.218915
1.355410
1.323819
1.389980
1.409650
1.439452
1.379848
1.406670
1.528859
1.690984
1.379848
1.673698
1.501441
1.543760
1.660585
1.595616
1.591444
1.490712
1.491904
1.611710
1.661777
1.665950
1.569986
1.629591
1.639724
1.639724
1.890659
1.908541
1.909733
2.292991
2.448559
2.671480
2.801418
3.246665
3.256798
3.471971
3.366470
3.505945
3.556609
3.813505
4.386902
6.024837
23.924708
132.227540
328.877568
792.211890
1015.669703
1015.669703
1015.669703
1015.669703
1015.669703
1015.669703
1015.669703
1015.669703
1015.669703
668.548942
355.686545
136.730671
56.169629
16.960502
10.967851
9.933710
9.275675
9.017587
8.857846
8.921623
8.678436
8.841753
8.827448
8.862615
8.956790
9.127855
9.732842
10.858774
13.287663
15.980601
21.200776
25.273561
31.568408
##ZVALUE=400
0.961423
0.828505
0.972748
0.859499
0.917912
0.961423
0.676513
0.747442
0.824928
0.773668
0.866652
0.828505
0.761747
0.808835
0.912547
0.934601
0.811815
0.699759
0.803471
0.770688
0.835657
0.821948
0.840425
0.788569
0.826716
1.005530
1.032948
1.069903
1.214743
0.989437
1.094937
1.213551
1.327991
1.183748
1.331568
1.300573
1.346469
1.408458
1.305938
1.342893
1.667738
1.613498
1.301765
1.480579
1.617670
1.545548
1.566410
1.480579
1.528859
1.493692
1.606941
1.528859
1.546741
1.460910
1.559854
1.664758
1.392961
1.500845
1.482964
1.521707
1.845956
1.801848
1.801848
1.911521
1.951456
2.136827
2.175570
2.456903
2.472997
2.843738
3.084540
3.043413
3.405809
3.268719
2.980828
3.255606
3.461838
3.569722
4.062653
4.375577
5.439520
12.152791
90.834498
270.783901
754.618645
1015.669703
1015.669703
1015.669703
1015.669703
1015.669703
1015.669703
1015.669703
1015.669703
1015.669703
884.699821
508.962870
208.850503
95.381737
31.014681
15.052557
11.616945
11.199713
11.305809
10.962486
11.315942
11.258721
11.274815
11.266470
11.110902
10.402799
10.498762
10.233521
10.669827
11.092424
13.094544
15.925765
##END
