##TITLE=6-3
##FORMAT=SPECTACLE-ASCII V-1.2
##DATA TYPE=ULTRAVIOLET SPECTRUM
##SECOND TYPE=ULTRAVIOLET SPECTRUM
##DATE=04/09/18
##TIME=12:39:51
##SPECTROMETER/DATA SYSTEM=SPECTACLE
##XUNITS=NM EM
##YUNITS=ENERGY
##YFACTOR=1
##FIRSTX=220
##LASTX=450
##NPOINTS=116
##3DDATA=Equidistant
##ZUNITS=NM EX
##FIRSTZ=210
##LASTZ=400
##ZPOINTS=39
##XYDATA=(Y..Y)
##ZVALUE=210
17.094612
18.301606
13.364553
11.243820
10.905862
11.170506
9.438992
8.388758
8.088946
5.493760
4.832745
4.472733
4.062653
3.479719
4.241467
4.158616
3.804564
4.207492
3.781915
4.522800
4.511476
4.974604
4.616976
5.122423
4.378557
5.484819
5.370975
5.700588
6.196499
5.687475
6.124973
6.371737
6.797910
6.853938
7.320642
7.121563
7.272959
8.113980
8.213520
8.688569
8.607507
8.120537
8.543730
9.100437
9.287000
9.099841
9.428859
8.619428
10.575652
8.812547
9.652972
10.108948
10.047555
10.160804
9.538531
9.615421
9.132624
10.247827
10.244846
10.643601
10.382533
10.195971
10.186434
9.316802
10.669827
11.231899
10.539889
9.790659
11.488795
12.508631
13.556480
16.215444
15.812516
19.741654
20.589828
21.848679
22.708774
22.053719
22.224784
19.193888
20.082593
18.359423
15.498996
13.819933
10.864735
10.583997
8.998513
9.358525
9.707808
9.243488
14.186502
16.971827
20.556450
25.190711
31.608939
38.325787
47.156811
52.553415
55.247545
60.752630
61.926842
63.212514
62.338710
62.911510
58.398843
56.446791
52.917600
47.573447
42.996407
37.453771
30.795932
25.493503
18.818974
16.958714
15.301704
16.004443
##ZVALUE=215
46.208501
47.562718
37.793517
27.550459
25.757551
20.194650
17.609596
15.157461
15.844703
13.514757
13.549924
9.739995
8.183718
6.818771
4.955530
4.703999
3.390908
3.875494
4.169941
3.816485
4.144907
4.957914
4.738569
5.078912
5.407929
5.642772
5.411506
6.079674
5.434752
7.136464
6.956458
6.779432
7.278919
8.207560
8.482933
8.370876
9.573698
8.851886
9.389520
9.442568
8.410811
8.880496
10.164976
10.750890
10.230541
10.353923
10.807514
10.491610
11.414886
10.637641
11.610985
12.078881
10.669827
12.364984
12.910962
11.905432
12.399554
10.863543
11.239648
10.692477
12.327433
11.668801
10.923743
10.956526
11.216998
11.107922
11.111498
10.458827
13.261437
15.023947
14.405847
15.469790
17.207861
19.417405
19.814968
19.777417
20.431876
18.840432
19.110441
19.494891
16.270876
14.887452
14.681816
11.998415
10.337830
10.839701
8.848906
8.779764
8.884668
8.210540
7.125735
7.524490
8.455515
10.316968
12.321472
15.060902
20.179749
27.589798
33.626556
43.042898
53.503513
61.868429
71.917772
80.549717
87.987781
91.315508
95.937848
96.588731
93.228817
88.249445
84.234476
75.716972
67.372918
58.704615
51.432848
41.071773
##ZVALUE=220
108.826756
102.412701
101.019740
92.047453
72.327852
54.354668
43.400526
34.604669
28.873682
26.569963
25.297999
22.781491
23.032427
18.872619
14.120936
11.379719
7.986426
6.439686
5.525947
4.415512
5.816817
4.559755
4.734993
5.713701
5.335808
5.907416
5.516410
6.274581
7.369518
6.972551
6.955862
8.578897
8.182526
9.374619
8.874536
10.026693
10.630488
10.064840
11.276603
10.626912
10.517836
11.871457
12.453794
11.771917
12.502670
11.932850
13.659000
13.748407
13.193488
14.060736
14.647841
15.510917
14.563799
16.612411
16.174912
14.917850
15.604496
15.606880
17.547607
15.226603
14.431477
15.168786
14.398694
13.599992
14.594793
13.744831
12.914538
13.823509
15.058517
16.083717
16.228557
17.705560
19.252896
17.908812
20.676851
21.971464
20.955801
18.900633
19.254684
17.812848
15.524626
16.675591
14.621615
13.933778
11.994839
11.056662
9.016991
9.229779
9.166598
8.659959
8.979440
8.198619
7.740855
8.154511
7.964969
8.883476
7.869601
8.617640
10.130405
12.623668
19.189715
23.439527
32.029748
42.256713
55.847764
71.875453
89.577436
109.539628
115.268826
130.644441
141.745806
146.558881
145.538449
140.592456
138.867497
126.797557
##ZVALUE=225
136.241913
136.226416
167.477727
178.541541
180.496573
155.036449
133.981705
98.915696
73.739886
52.374601
40.092468
39.669871
40.609837
39.439797
40.106773
33.170581
27.024746
21.095872
15.543699
10.650754
7.797480
5.747676
5.039573
5.251765
5.405545
6.384850
6.111860
6.949902
6.649494
7.828474
8.025765
7.289648
8.930564
9.489655
9.287596
10.651946
11.826754
12.385845
12.065768
11.178851
12.930632
13.065934
12.634993
12.812614
13.912916
14.798641
13.983846
14.061928
14.782548
15.243888
15.781522
16.600490
16.884804
17.155409
18.507838
17.710924
19.681454
19.033551
18.873811
17.757416
17.020702
17.581582
16.440749
16.717911
16.365647
15.511513
15.194416
17.406940
15.699863
16.288757
17.550588
19.554496
19.097924
19.844770
19.150972
21.402836
20.149946
19.693971
18.509626
17.995834
16.126633
15.642643
13.999939
12.641549
11.681914
10.582805
11.269450
10.874867
10.196567
9.672642
9.082556
10.809898
9.847879
8.538961
9.020567
8.538961
8.655787
9.054542
9.182692
8.393526
8.677840
8.631945
9.205937
10.825992
16.463995
21.295547
33.820868
48.369765
64.191818
81.460476
104.677677
128.894448
149.190426
177.456737
195.106864
216.421485
##ZVALUE=230
93.993545
101.665854
159.567595
207.505822
256.940722
301.679969
309.401751
290.275812
247.805715
184.528828
132.201910
88.821650
70.255995
58.509707
56.217909
64.204931
60.290694
55.329800
50.469637
39.723516
29.903650
21.612644
14.497638
9.571910
7.829666
8.021593
6.748438
7.113814
6.945729
7.386804
7.702708
7.394552
8.874536
9.119511
9.368658
10.460615
11.731982
11.342764
12.596846
15.132427
13.145804
13.986826
14.009476
14.984608
14.990568
13.875961
14.580488
14.236569
14.922619
15.540719
15.808940
16.410947
18.199682
18.457770
18.539429
18.041730
18.743873
19.327998
19.770861
19.301772
17.842650
17.875433
18.241405
17.498732
17.242432
17.380714
17.618537
18.146634
18.282533
20.681620
19.451976
20.440817
22.705793
21.754503
21.139979
23.507476
19.171834
18.937588
19.010901
18.299818
18.273592
16.903877
15.049577
14.833808
13.408661
12.818575
13.385415
12.495518
11.685491
10.774732
10.798573
10.617971
10.914803
10.567904
11.284947
10.207891
10.110736
11.439919
9.864569
10.665655
10.329485
10.237694
9.632707
10.595918
10.439754
11.499524
11.011958
12.181997
13.631582
18.248558
26.867986
42.364001
59.001446
85.138679
115.767717
157.116652
##ZVALUE=235
27.808547
27.856827
72.367787
123.279691
191.658735
304.666758
381.094813
471.756458
495.143533
467.704535
416.353941
310.876966
232.409835
147.954822
112.072825
82.638860
79.502463
83.903670
90.376735
87.535977
78.490973
68.743825
52.405596
36.680698
27.775764
16.959906
12.595654
9.927750
8.261800
7.619858
8.284450
8.658767
9.551644
9.339452
9.235740
11.373758
10.724664
10.865927
12.544990
12.174845
13.115406
13.433695
13.303757
13.979673
15.338659
14.603734
13.653636
13.857484
14.145970
13.999939
15.484691
15.545487
16.239882
16.514659
16.822815
16.508698
17.907619
19.277930
18.019676
17.968416
17.203689
17.159581
16.407967
16.743541
18.646717
16.172528
16.222000
16.183853
17.398000
18.814802
21.076798
20.098686
22.219419
22.518635
22.483468
23.892522
22.311807
22.138953
22.144914
19.962788
19.660592
17.886758
17.993450
16.154647
15.335679
14.485717
14.383793
13.523698
13.644695
13.024807
12.053847
12.034774
12.167692
13.414621
11.451840
12.119412
11.884570
12.525916
13.140440
12.690425
11.447668
11.980534
12.059808
12.907982
11.889935
12.305975
12.316704
13.723969
12.835860
11.422634
10.928512
12.307763
12.829900
17.451644
21.429658
35.429597
##ZVALUE=240
3.973842
3.018975
11.153817
28.027892
59.190989
139.161944
234.574676
391.597748
523.215532
649.288893
697.860718
688.374639
620.455742
495.639443
380.501747
244.016647
172.049999
118.654966
102.895498
107.133985
114.116669
121.736526
114.844441
103.471875
86.347461
66.682696
49.509406
34.751892
22.232533
16.020536
11.019707
9.529591
10.029674
9.725690
9.640455
10.015965
11.172891
10.953546
11.370778
11.737943
12.834668
13.758540
13.169646
13.712645
13.565421
14.969707
14.777780
14.350414
14.581680
14.331937
15.308857
15.005469
14.017820
15.573502
14.531612
15.901923
13.908744
14.909506
15.771985
15.655756
17.402768
16.462803
15.456676
15.333891
17.220974
17.346740
16.753674
17.725825
18.388629
20.087957
21.308661
20.305514
23.872852
24.294853
24.168491
23.129582
23.890734
23.675561
21.868944
19.540787
20.163655
18.838644
17.453432
16.782880
16.788840
16.921759
17.107725
15.640855
14.787912
14.801621
14.936924
14.752746
13.885498
13.760924
14.035702
14.275908
13.872981
14.913678
13.860464
13.413429
14.164448
14.298558
13.735890
14.988780
12.853742
14.252663
13.829470
13.404489
13.229847
13.706684
14.403462
14.148951
13.424754
14.141798
12.803674
12.583733
##ZVALUE=245
2.588630
2.399683
2.708435
3.302693
5.499721
19.191504
46.467781
129.342675
224.681497
385.411978
528.767705
706.117749
809.623003
825.220942
778.955817
657.707453
527.823567
352.835655
247.892737
144.267678
113.353729
101.985931
117.052794
126.007795
130.307674
127.616525
110.435486
96.497536
71.563721
56.475997
35.664439
23.139715
15.683770
12.289882
10.142922
10.421872
9.827614
10.509491
10.340810
10.998845
11.388659
11.667609
12.296438
12.877584
13.347864
12.293458
11.910796
12.395978
14.121532
14.038682
13.843775
15.414953
14.364719
13.228655
13.425946
13.649464
14.094710
12.549758
15.142560
14.213920
14.391541
14.614463
15.075803
14.653802
14.745593
14.675856
16.293526
15.750527
16.761422
16.492605
18.219948
18.959641
18.326640
19.665956
21.388531
21.159649
22.436976
20.222664
18.966794
17.853975
16.653538
17.335415
15.518665
14.309883
14.298558
13.661981
13.425946
13.264418
12.936592
13.070703
13.116598
13.172626
13.154745
12.808442
12.335777
11.193752
11.752844
11.547804
11.937618
13.218522
11.880994
13.040900
12.009740
11.562705
12.099743
12.745857
12.303591
12.735724
12.293458
12.888908
12.910962
11.103749
11.581779
12.275577
11.493564
12.290478
##ZVALUE=250
2.074838
2.078414
2.229810
2.329946
2.370477
2.703667
3.860593
12.350678
36.462545
97.345710
189.068913
364.413857
520.005822
725.222826
857.559443
942.811966
930.763483
830.347538
697.530508
478.747487
334.427953
193.842649
130.618811
101.897717
107.940435
122.452974
134.408474
141.897798
138.537884
122.918487
102.439523
83.162785
58.074594
41.098595
23.987889
18.098950
12.230873
12.432933
10.984540
11.100769
11.273623
11.554956
12.201667
12.647510
13.169646
12.669563
13.131499
13.384819
14.033914
13.799667
13.237000
13.399720
14.322996
13.336539
13.452768
13.919473
12.971759
14.502406
13.726950
13.096929
11.865497
13.611913
13.792515
13.761520
13.739467
13.842583
13.842583
13.085604
14.926791
15.969872
15.490651
16.534925
17.722845
17.562509
17.530918
17.877817
16.975999
16.596913
16.134977
15.358925
13.563633
13.531446
14.091730
12.518764
12.303591
11.235476
11.312962
11.255741
10.859966
10.446906
10.456443
10.564923
9.646416
10.227561
10.994673
10.258555
10.666847
9.915829
11.365414
10.597706
10.972619
10.763407
11.184812
10.769963
10.891557
9.736419
10.461807
10.993481
10.980964
10.957718
11.039972
10.148883
10.192990
10.305643
9.925961
11.149645
##ZVALUE=255
2.001524
1.864433
1.938939
2.102852
2.424717
2.176762
2.332926
2.702475
2.734661
7.219911
23.168921
74.038506
152.979493
316.551924
472.594500
723.246932
883.275867
1015.669703
1015.669703
1003.284454
883.044600
647.361875
460.604429
257.184505
163.379908
98.041892
94.752908
101.500750
128.600597
141.278505
148.933530
146.368742
130.786896
111.690760
82.743764
63.165426
39.937496
27.707815
17.824769
15.525818
12.888908
13.453960
14.321804
14.484525
14.256835
14.497638
14.849901
14.869571
15.399456
15.653968
15.909672
15.754700
16.491413
15.423894
15.813708
16.156435
14.624596
15.691519
15.542507
14.971495
14.791489
14.372468
14.507771
14.344454
13.752580
14.632940
14.002919
14.900565
13.831854
14.047623
14.871955
16.065836
16.667843
16.698837
16.160607
15.728474
16.874671
14.738441
13.811588
13.292432
12.577772
13.119578
12.514591
11.225939
10.593534
9.505749
9.618998
10.486841
9.923577
9.385943
8.616447
9.042621
9.519458
9.703636
8.826852
8.568764
9.078979
8.746982
8.830428
9.028912
8.875728
9.353757
9.000897
9.499788
8.344650
10.108948
9.578466
9.466410
9.589791
9.578466
9.389520
9.521842
9.128451
9.163618
9.253621
9.876490
##ZVALUE=260
1.959801
1.850724
1.772642
1.593828
1.964569
2.217889
2.195835
2.215505
2.380610
2.688766
3.170967
4.432797
13.683438
52.570701
109.260678
249.664783
409.319997
662.158728
858.530998
1015.669703
1015.669703
1015.669703
1015.669703
855.823755
570.668578
381.029844
216.263533
133.005977
84.805489
85.042715
108.509660
126.783848
148.584843
156.323910
152.395964
137.027502
113.679767
91.757774
64.050555
47.077537
30.761957
23.602843
18.321872
16.302466
15.871525
16.621947
15.097857
16.504526
16.629696
16.418695
17.365813
16.844869
17.200708
16.711950
16.554594
16.475916
16.587973
15.595555
15.732646
16.306639
15.887618
14.628768
14.697909
14.033914
14.728904
14.154911
13.454556
14.056563
14.024973
14.103651
14.137626
14.303923
15.023947
15.124679
14.359951
15.681982
14.218688
13.441443
12.400746
12.006760
11.442900
11.018515
10.461807
10.409951
9.749532
10.137558
8.744597
8.100867
8.508563
8.674860
8.539557
8.958578
8.324981
8.042455
8.419752
7.764697
8.455515
7.950664
8.386970
8.079410
8.480549
8.289814
8.214712
8.542538
8.055568
8.309484
8.687973
8.486509
8.217692
7.694960
7.879734
8.251667
8.366704
8.420944
7.898808
8.319616
##ZVALUE=265
1.810789
1.723766
1.525879
1.439452
1.811981
1.783967
1.934767
2.231598
1.963973
1.978874
1.961589
2.114773
2.080798
2.988577
6.772876
32.028556
74.463487
190.292001
325.467587
596.319437
823.814869
1015.669703
1015.669703
1015.669703
1015.669703
958.282948
751.018524
544.711947
302.352905
181.671977
95.337629
74.348450
88.686943
111.386776
140.755773
154.305696
161.417723
159.300566
141.223669
119.884610
97.087622
67.779422
50.353408
33.933520
25.482774
21.080971
17.859936
19.429922
19.381642
18.624663
19.496679
19.524693
20.096898
19.318461
18.801689
18.536448
17.993450
17.394423
17.466545
18.466711
16.786456
16.715527
16.381741
15.741587
15.711784
15.632510
14.719963
14.520884
14.587641
15.372634
15.243888
14.728904
15.503764
15.016794
14.982820
14.313459
13.486743
13.805628
11.900663
11.757612
10.968447
11.046529
9.814501
10.310411
9.437799
9.150505
9.013414
8.642673
8.573532
8.376837
8.184910
8.284450
7.769465
7.942915
7.391572
7.717609
8.212924
8.120537
7.514954
7.476807
7.638931
7.756948
7.718801
7.433891
7.629991
8.270741
7.872581
7.696748
8.276701
7.993579
7.816553
8.025765
7.674694
7.995963
7.504821
7.965565
##ZVALUE=270
1.674891
1.580715
1.613498
1.852512
1.790524
1.554489
1.836419
1.807809
1.961589
2.013445
1.941919
2.018809
2.102852
2.211928
2.588630
2.483726
3.564954
14.903545
43.390989
137.699842
261.087418
509.238839
753.840804
1015.669703
1015.669703
1015.669703
1015.669703
1015.669703
968.105793
724.020600
429.037809
265.978575
129.118562
79.180598
70.786476
88.453889
119.252801
141.380429
162.218809
169.323683
165.266991
149.364471
123.914480
101.910830
72.224736
55.993795
37.326813
29.861927
23.624897
21.985769
21.770597
22.060871
20.498633
20.329952
20.107627
21.202564
19.912720
19.439459
19.187927
18.893480
19.142628
17.947555
17.661452
17.946959
17.183423
16.905665
15.884638
15.692711
15.188456
15.757680
15.090704
14.949441
15.497804
15.523434
15.030503
14.888644
13.295412
12.949705
12.457967
12.173653
11.103749
11.127591
10.205507
10.366440
9.287000
9.127855
9.254813
8.827448
8.727908
8.724928
8.183718
7.709861
7.801652
8.143783
7.897615
8.016825
7.443428
7.360578
7.780790
7.073879
7.393956
7.393956
8.144975
7.403493
7.330775
7.639527
7.753968
7.094741
7.504821
6.907582
7.353425
7.156730
7.657409
7.298589
7.112622
7.035732
##ZVALUE=275
1.426935
1.404881
1.507998
1.451969
1.600981
1.332760
1.681447
1.673698
1.586676
1.828671
1.711845
1.608729
1.960993
1.879930
1.559854
2.046824
2.258420
2.414584
2.925992
7.432699
25.450587
91.253519
192.091465
420.117974
650.613904
978.039503
1015.669703
1015.669703
1015.669703
1015.669703
1015.669703
906.298757
578.763485
360.786915
171.249509
97.722411
61.614513
65.896511
95.287561
116.450787
146.075487
161.994696
168.694854
166.045427
148.403645
127.383471
99.110603
78.489780
53.450465
40.183663
30.393600
25.607944
22.440553
21.708608
21.135807
21.810532
20.594001
20.016432
20.995736
19.803643
19.372702
18.160939
18.712878
18.016696
17.173886
16.891956
16.282797
15.764832
15.440583
15.896559
15.625954
15.246868
15.533566
15.011430
15.011430
14.483929
14.422536
13.291836
12.463927
11.708736
11.688471
10.732412
10.500550
10.276437
10.259748
9.233952
9.043813
8.726716
8.936524
8.526444
7.775426
7.763505
7.682443
7.990599
7.709861
7.660985
7.549524
7.872581
7.066727
7.165670
7.779598
7.511973
7.278919
7.359982
7.617474
7.088780
7.167459
7.059574
7.243752
7.162690
7.244945
7.276535
6.898642
7.091761
7.014871
6.616712
##ZVALUE=280
1.391768
1.535416
1.315475
1.483560
1.393557
1.605749
1.492500
1.550913
1.480579
1.708865
1.489520
1.739860
1.578927
1.569986
1.725554
1.924634
2.020597
2.167821
2.174973
2.323985
2.526641
3.128648
15.522838
52.659512
162.366629
293.824673
542.681813
790.718794
1015.669703
1015.669703
1015.669703
1015.669703
1015.669703
999.100804
686.016679
454.099774
229.989886
125.587583
62.358975
52.642822
69.082975
88.739991
118.678808
139.313936
159.342885
165.888667
159.472823
149.039626
120.702982
98.754764
71.643591
54.028630
37.232637
29.979944
23.412704
20.425916
19.612908
19.232631
18.217564
18.689632
18.411875
17.621517
17.182827
16.586781
17.794967
16.485453
16.074777
15.569925
15.329719
16.189814
15.608668
15.401840
15.508533
15.152693
14.017820
13.911724
13.398528
13.162494
12.521744
11.328459
11.400580
11.210442
10.589957
10.370612
10.147691
10.075569
10.023713
9.230971
8.183718
8.407831
8.029938
8.027554
7.869601
8.297563
8.581877
8.097887
7.700920
7.153749
7.838607
7.522702
7.485747
7.248521
7.620454
7.684827
7.540584
7.679462
7.700920
7.049441
7.444620
7.036924
6.877780
6.895661
6.843805
7.055998
6.910563
6.486773
##ZVALUE=285
1.304746
1.211762
1.377463
1.363754
1.415610
1.297593
1.362562
1.317859
1.416802
1.486540
1.579523
1.433492
1.458526
1.523495
1.591444
1.579523
1.798868
1.826882
1.726747
1.803637
2.373457
2.318621
2.555847
2.979636
6.881952
35.559535
86.688995
178.146958
387.280583
612.218976
958.238840
1015.669703
1015.669703
1015.669703
1015.669703
1015.669703
870.561004
606.001616
322.994590
185.783505
81.559420
47.279000
44.803619
58.119893
85.281730
108.036995
133.119822
149.084926
157.060623
155.819654
141.026974
122.794509
94.851851
72.239637
49.902797
36.581755
24.566650
20.667911
17.230511
16.979575
15.715957
15.864968
15.564561
15.616417
15.510917
15.178919
14.842749
14.733672
14.725924
14.630556
14.842749
14.311671
14.337897
14.260411
13.627410
13.582706
12.441874
12.238622
12.042522
11.785626
11.703968
10.718703
10.434985
10.312796
9.748936
9.498000
9.475946
9.001493
9.037852
8.506775
8.059740
8.244514
8.010864
8.196831
8.269548
7.838607
8.070469
7.662773
7.896423
7.551908
7.268786
7.700920
7.939935
7.397532
7.465482
7.612705
7.173419
7.486939
6.849766
7.143617
7.234812
7.250905
7.451773
6.985664
6.917715
6.743670
##ZVALUE=290
1.243949
1.155734
1.191497
1.340508
1.165867
1.260638
1.322627
1.191497
1.332760
1.360774
1.370907
1.445413
1.422763
1.471639
1.500845
1.381636
1.506805
1.525879
1.444817
1.718998
1.773834
1.775622
1.856685
2.239943
2.422929
2.502799
3.358722
15.276670
46.749711
113.252401
278.306603
467.758775
799.106956
1015.669703
1015.669703
1015.669703
1015.669703
1015.669703
998.378396
758.669376
497.547984
243.915915
126.383901
49.547553
32.299757
38.548708
52.652955
77.061653
98.469853
120.033622
143.286586
150.355697
147.250891
138.265491
113.867521
92.520714
66.701770
48.667789
31.963587
24.047494
17.247796
14.450550
13.175607
13.165474
12.533665
12.460947
12.677908
12.689829
12.821555
12.773871
12.815595
12.926459
12.950897
12.850761
12.623668
12.237430
12.172461
12.183785
10.858774
10.837913
10.219812
10.559559
10.418892
9.832978
9.247661
9.532571
9.618998
8.931756
8.934736
8.532405
8.494854
8.378625
7.991791
7.861853
7.924438
7.990599
7.874966
7.782578
7.530451
7.466674
7.615685
7.949471
8.062720
7.838607
7.416606
7.441640
7.634759
7.712841
7.531643
7.485747
7.488728
7.392764
6.988645
7.027984
6.994605
6.938577
##ZVALUE=295
0.961423
1.155734
0.972748
1.037717
1.251698
1.159906
1.079440
1.148582
1.195669
1.187921
1.107454
1.473427
1.262426
1.323819
1.358986
1.367927
1.561642
1.475811
1.413822
1.552701
1.476407
1.623631
1.745820
1.916885
1.986623
2.096891
2.208948
2.377629
2.789497
4.734993
25.956631
70.341825
195.126534
364.033580
687.720776
959.766507
1015.669703
1015.669703
1015.669703
1015.669703
1015.669703
921.034813
564.277768
348.719954
155.676007
74.434876
29.532909
23.224950
34.045577
47.863722
71.308613
90.339780
116.317868
131.085515
140.167475
140.161514
126.625896
110.438466
84.282756
65.594912
43.113828
30.199885
19.954443
15.314817
11.994839
10.958910
10.494590
10.596514
10.560751
10.829568
10.872483
11.239648
11.289716
11.288524
11.303425
11.069775
11.135936
10.348558
10.497570
9.427667
9.741783
9.362698
9.104609
9.391904
9.042621
8.946657
9.170771
8.498430
8.501410
8.442998
8.621812
8.215904
7.849932
8.227825
7.799864
7.791519
7.425547
7.368922
7.983446
8.159876
7.390976
7.770658
7.877946
7.789731
7.456541
7.934570
7.643700
7.621646
7.979870
7.766485
7.692575
7.572770
7.263422
7.041693
7.212758
6.998777
##ZVALUE=300
1.006722
1.027584
1.041889
1.161695
1.209974
1.176596
1.145601
1.173615
1.136661
1.108646
1.244545
1.237988
1.215935
1.117587
1.141429
1.268983
1.329780
1.277924
1.443624
1.477599
1.374483
1.495481
1.539588
1.646876
1.856685
1.998544
2.050996
1.958609
2.011657
2.348423
2.637506
2.938509
10.973811
39.071441
133.053660
257.142782
524.520874
791.663527
1015.669703
1015.669703
1015.669703
1015.669703
1015.669703
1006.655097
764.434934
421.545506
251.392722
112.978816
51.296949
23.631454
20.191669
26.708841
43.344498
60.261488
84.043741
106.060505
125.114918
132.380724
129.649639
120.567679
102.108717
83.365440
59.904456
44.782758
27.266741
19.962788
13.414621
10.730624
9.894967
9.669662
9.428859
9.910464
9.961724
9.937882
9.949803
9.903908
10.027885
9.647608
9.416938
9.089708
9.042621
8.873940
8.867979
8.590817
8.518696
8.062720
8.136630
8.173585
8.886456
7.938743
8.027554
7.650852
7.923841
7.457733
7.783771
7.588863
7.511973
7.393956
7.537603
7.674694
7.263422
7.380843
7.570982
7.604957
7.567406
7.399917
7.918477
7.746816
7.576942
7.274747
7.337928
7.786751
7.214546
7.502437
7.496476
6.744862
##ZVALUE=305
1.041889
1.064539
1.101494
1.114607
1.082420
1.136661
0.999570
0.926852
1.256466
1.170635
1.133680
1.160502
1.285672
1.133680
1.144409
1.199841
1.174808
1.282692
1.399517
1.260638
1.373887
1.316667
1.477599
1.481771
1.498461
1.443624
1.682639
1.640916
1.831651
1.873970
2.201796
2.215505
2.350807
2.638698
6.150603
22.564530
86.936951
190.242529
423.142910
657.115579
992.403626
1015.669703
1015.669703
1015.669703
1015.669703
1015.669703
869.897604
600.275993
312.868953
172.451735
65.818429
28.379560
15.181899
17.926693
27.284622
39.820671
61.244965
78.933835
102.726817
114.904642
125.518441
123.406649
112.264752
100.141764
77.335835
60.414672
39.464831
28.251410
17.192960
12.924671
10.265708
9.902716
9.448528
8.900762
9.042621
8.404851
8.442998
8.414984
8.135438
8.139610
8.451939
8.072853
8.165836
8.040667
8.167624
7.776618
7.928610
7.717609
8.059740
7.521510
7.649660
7.474422
7.488728
7.296801
7.224679
7.445812
7.214546
7.211566
7.199645
7.227659
7.067919
7.259846
7.053614
7.592440
7.407665
7.570982
7.318854
7.224679
7.124543
7.264614
7.162690
7.306933
6.944537
6.888509
7.072687
7.084608
##ZVALUE=310
1.063943
0.920892
0.942945
0.933409
1.213551
1.151562
1.109838
1.011491
0.947714
1.133680
1.011491
1.061559
0.928640
1.185536
0.973940
1.113415
1.171827
1.130700
1.225471
1.138449
1.341701
1.174808
1.240969
1.442432
1.343489
1.412630
1.449585
1.423955
1.678467
1.876950
1.792908
1.881719
1.949668
1.929998
2.338886
2.435446
2.961755
9.650588
49.251914
116.780400
286.386013
487.135053
837.916732
1015.669703
1015.669703
1015.669703
1015.669703
1015.669703
1015.577912
788.859725
452.389717
269.322991
111.405849
49.717426
17.634630
12.833476
16.950965
23.299456
35.962462
49.225688
72.128773
89.429617
108.219981
116.304755
117.884874
111.642480
93.752742
77.915788
55.072904
39.540529
25.228858
18.173456
13.025999
10.182858
8.662939
8.425713
7.747412
7.654428
7.416606
7.297993
6.986856
7.293820
7.157922
7.180572
7.366538
7.102489
7.122755
7.327795
7.032752
7.270575
6.798506
6.702542
6.842613
6.962419
6.487966
6.749630
6.837845
6.810427
6.935596
6.921887
6.862879
6.579757
7.050633
6.790757
7.049441
7.094741
7.098913
6.796718
6.948709
6.974936
6.596446
6.530881
6.686449
6.361604
6.129742
6.414652
##ZVALUE=315
0.776649
0.820756
0.965595
0.839829
0.955462
0.998974
1.108646
0.848770
1.127720
1.260638
1.074672
0.835657
0.949502
1.091957
1.084805
1.078844
0.936985
1.045465
1.055598
1.089573
1.129508
1.131892
1.262426
1.373887
1.159906
1.367927
1.457930
1.493692
1.679659
1.389980
1.517534
1.577735
1.750588
1.602769
1.992583
2.021790
2.165437
2.485514
2.717972
4.499555
25.041699
70.578456
207.401514
375.754833
708.752871
983.072519
1015.669703
1015.669703
1015.669703
1015.669703
1015.669703
942.984819
577.631593
359.217525
165.367723
76.022744
22.228956
12.115836
11.738539
13.820529
21.886826
31.542778
48.969984
64.387918
85.439682
98.420978
109.823942
110.452771
103.182793
89.382529
69.327950
54.893494
37.160516
25.833845
16.453862
12.056828
9.018779
7.507801
6.700754
6.519556
6.721616
6.584525
6.435513
6.320477
6.376505
6.480813
6.193519
6.585717
6.354451
6.457567
6.288886
6.223917
6.174445
6.110668
6.130934
6.287694
6.358624
6.258488
6.233454
6.145835
6.240606
6.471872
6.212592
6.379485
6.398559
6.150603
6.501675
6.339550
6.381869
6.210804
6.263852
6.038547
5.724430
5.919933
5.884767
6.050467
##ZVALUE=320
1.004934
0.957847
0.905991
0.971556
0.867844
0.826716
0.953674
0.803471
0.919700
0.960827
0.965595
1.005530
1.003742
1.011491
0.877976
1.096725
1.006722
0.950694
0.969768
1.007915
1.035929
1.184940
1.129508
1.229644
1.051426
1.218915
1.176596
1.388788
1.202822
1.489520
1.609921
1.510978
1.456738
1.735687
1.750588
1.854897
1.758933
1.896620
1.953840
2.319813
2.462864
3.166795
9.471774
48.234463
119.792819
304.800868
513.208508
861.389637
1015.669703
1015.669703
1015.669703
1015.669703
1015.669703
1014.430523
772.596598
430.472493
245.728493
101.666451
45.346618
14.663935
9.989738
10.236502
13.189912
19.348860
27.787685
43.473840
58.774948
80.155730
93.382597
103.228688
104.924440
97.960830
87.073445
67.553520
51.705837
34.384727
24.297833
15.127659
10.705590
7.641912
6.720424
5.962849
5.855560
5.896688
5.844831
6.002784
5.720854
5.812645
5.553961
5.683899
5.635619
5.465746
6.023645
5.922914
5.418658
5.589724
5.808473
5.579591
5.861521
5.548596
5.648732
5.758405
5.504489
5.825758
6.148815
5.492568
5.647540
5.791783
5.973577
5.915761
5.695820
5.158782
5.574822
5.590916
5.378723
5.154610
##ZVALUE=325
0.920892
0.857711
0.856519
0.944734
1.069903
0.827909
0.776649
0.877976
0.810623
0.809431
0.933409
0.875592
0.967979
0.945926
0.924468
1.050830
0.874996
0.923872
1.103878
1.007915
1.064539
0.941753
0.960827
1.033545
1.192689
1.156926
1.164675
1.065731
1.217723
1.090765
1.209974
1.189709
1.284480
1.235604
1.458526
1.710653
1.431704
1.608729
1.811981
1.680851
1.964569
2.235770
2.397895
2.461672
6.122589
23.051500
90.065598
195.234418
435.281396
680.185556
1006.178856
1015.669703
1015.669703
1015.669703
1015.669703
1015.669703
822.666883
568.905473
299.750566
164.603591
58.131814
23.089647
9.414554
8.624792
9.460449
11.656880
17.790794
26.408434
42.599440
57.431459
77.420473
87.724924
96.670985
98.157525
91.066957
80.552697
63.115954
47.833920
31.503439
22.079945
13.122559
9.637475
7.184744
6.325841
5.346537
5.510449
5.265474
5.445480
5.282760
5.191565
5.214810
5.149841
5.153418
5.117655
5.114675
5.234480
5.360842
5.343556
5.105734
5.147457
5.409718
5.346537
5.473495
5.597472
5.558729
5.384684
5.748868
5.223751
5.108714
5.426407
5.355477
5.465746
5.156994
5.246997
5.198717
5.007982
##ZVALUE=330
0.819564
0.777841
0.828505
0.931621
0.843406
0.822544
0.941753
1.091957
1.023412
0.955462
0.797510
0.744462
0.875592
0.843406
0.869632
0.954866
0.992417
1.133680
1.018643
0.948906
1.117587
1.078844
0.925660
1.099706
1.050830
1.018643
1.124740
1.104474
1.051426
1.168847
1.174808
1.220703
1.318455
1.218915
1.416802
1.320839
1.379848
1.460910
1.566410
1.590848
1.653433
1.849532
1.713634
1.814961
2.285838
2.546906
3.007650
13.058782
43.613911
116.648674
299.305916
512.380004
879.535675
1015.669703
1015.669703
1015.669703
1015.669703
1015.669703
967.706442
708.917975
393.703580
222.670436
86.818933
37.359595
11.489987
8.136630
7.996559
8.607507
11.850595
16.066432
26.858449
37.606955
55.359602
69.098473
82.429647
89.488626
90.513825
85.791945
71.807504
59.095621
41.686893
31.112432
20.879507
14.653802
9.334683
7.117987
5.990863
5.379915
5.199909
5.102754
4.929900
5.068779
4.972816
4.917979
4.750490
4.850626
4.806519
4.798770
5.242825
5.122423
5.179644
4.980564
5.238652
5.187988
5.232692
5.149841
5.081892
5.213618
5.089641
5.014539
5.126595
4.679561
4.868507
4.787445
4.913807
4.716516
##ZVALUE=335
0.761747
0.953674
0.892878
0.776649
0.731945
0.620484
0.778437
0.640750
0.686646
0.771880
0.815988
0.864863
0.786781
0.839829
0.933409
1.018643
0.860691
0.903606
1.035929
0.957847
0.930429
0.811815
0.827909
0.902414
1.033545
1.049638
1.070499
1.242757
1.008511
0.932813
1.112819
1.231432
1.268983
1.064539
1.274943
1.349449
1.282692
1.269579
1.259446
1.433492
1.324415
1.358986
1.560450
1.459718
1.805425
1.962781
2.115965
2.301931
2.631545
5.116463
27.499795
75.924993
215.839744
387.401581
711.641908
986.153483
1015.669703
1015.669703
1015.669703
1015.669703
1015.669703
824.126601
478.726625
291.006565
126.696825
57.306886
16.416907
8.935928
7.295609
7.639527
8.471608
10.703802
16.138554
23.457408
36.666989
48.389435
65.767765
76.602697
84.714890
84.688663
78.656673
69.648623
55.842996
43.556690
30.240417
21.377802
13.637543
9.756684
7.048845
6.142855
5.329847
4.832745
4.759431
4.826784
4.818439
4.820824
4.696846
4.534721
4.822612
4.574656
4.770756
4.857779
4.656911
4.957914
5.048513
5.056858
4.845858
5.020499
5.021691
4.996657
4.781485
4.639626
4.934669
4.657507
4.511476
4.513860
##ZVALUE=340
0.824928
0.700951
0.767708
0.774860
0.795722
0.892878
0.804663
0.717640
0.732541
0.763535
0.927448
0.855923
0.881553
0.902414
0.671744
0.857711
0.865459
0.859499
0.788569
0.998974
1.078844
0.800490
0.774860
0.898838
0.929832
0.900626
0.862479
0.938773
1.092553
1.109838
1.088977
1.093745
1.034737
1.022816
1.269579
1.217723
1.222491
1.236796
1.201630
1.193881
1.395941
1.260638
1.437664
1.605749
1.494884
1.685619
1.626611
1.710653
1.908541
2.231598
2.275705
3.058910
14.327765
44.984818
146.579742
294.860005
599.550605
855.568647
1015.669703
1015.669703
1015.669703
1015.669703
1015.669703
936.306715
592.455864
369.653702
165.131688
77.766776
22.196770
9.751916
7.465482
7.176995
7.078648
8.164644
10.193586
14.435649
23.042560
33.075809
48.201680
59.873462
72.908998
78.062415
79.667568
74.808598
64.930916
55.150986
40.797591
31.200647
20.126700
14.235973
9.233952
6.965995
5.515814
5.235672
4.725456
4.828572
4.597902
4.513860
4.560947
4.569888
4.474521
4.560947
4.613996
4.578829
4.793406
5.024672
4.813671
4.866719
4.924536
4.728436
4.853606
4.593730
4.801750
4.493594
4.464984
4.549623
##ZVALUE=345
0.859499
0.787973
0.775456
0.700951
0.707507
0.669956
0.721812
0.645518
0.805855
0.812411
0.725985
0.809431
0.916719
0.835657
0.739694
0.962615
0.649691
0.808835
0.917912
0.746846
0.853539
0.941753
0.877976
0.814795
0.926852
0.940561
0.913739
0.847578
0.967979
1.111627
1.031756
0.987649
0.978708
1.076460
1.062751
1.093745
1.229644
1.256466
1.134872
1.291633
1.307726
1.231432
1.215935
1.324415
1.397729
1.398921
1.376867
1.545548
1.439452
1.950860
1.955628
1.949668
2.202988
2.324581
6.065965
23.625493
96.626878
199.846625
429.803729
659.141541
993.524790
1015.669703
1015.669703
1015.669703
1015.669703
1015.669703
707.957745
464.547873
212.533474
102.931857
33.257604
13.865829
8.020997
7.115602
6.615520
6.418824
7.247925
9.000897
14.092922
20.055771
31.579733
41.583776
55.350661
64.529777
71.111917
72.748661
69.898963
62.781572
51.102638
41.238666
29.242635
21.300912
13.711452
9.797812
6.691813
5.639791
4.887581
4.598498
4.563928
4.790425
4.447699
4.304647
4.517436
4.612803
4.592538
4.235506
4.691482
4.743934
4.786849
4.480481
4.430413
4.537702
4.501939
4.508495
4.211664
4.382730
##ZVALUE=350
0.842810
0.686646
0.705719
0.823736
0.892878
0.595450
0.713468
0.808835
1.004934
0.913739
0.694990
0.763535
0.714660
0.732541
0.778437
0.880957
0.819564
0.854731
0.957847
0.801682
0.960827
0.917912
0.896454
0.913739
0.899434
0.767708
0.753999
0.873804
0.895858
1.038909
0.881553
0.901818
1.096725
1.077652
0.966787
1.067519
0.942945
0.909567
1.098514
1.107454
1.189709
1.291633
1.368523
1.139641
1.260638
1.312494
1.089573
1.303554
1.422763
1.337528
1.588464
1.602769
1.752973
1.976490
2.109408
2.240539
3.540516
11.368990
53.594708
123.474598
305.535793
520.349741
863.530636
1015.669703
1015.669703
1015.669703
1015.669703
1015.669703
797.244906
532.484651
268.631577
146.097541
55.180788
21.504760
8.371472
7.077456
6.168485
5.824566
5.875826
6.678700
8.157492
11.384487
18.739700
25.498867
37.005544
46.793818
57.938695
63.799620
66.531897
64.391494
57.187676
48.700571
37.143826
28.644800
19.814968
14.690757
9.746552
7.484555
5.805492
4.784465
4.460812
4.592538
4.455447
4.568696
4.310608
4.473925
4.281998
4.298687
4.500747
4.518628
4.344583
4.426837
4.463792
4.143715
4.447699
4.126430
##ZVALUE=355
0.926852
0.675917
0.605583
0.755787
0.739694
0.747442
0.867844
0.952482
0.666976
0.724792
0.875592
0.749826
0.768900
0.896454
0.676513
0.752807
0.892878
0.906587
0.839829
0.705719
0.741482
0.843406
0.925660
0.905991
0.910759
0.759959
0.883937
1.024604
0.954866
0.970960
1.237988
0.947714
1.042485
0.994802
0.938773
0.839829
1.050830
0.925660
1.057982
1.112819
1.045465
1.110435
1.105666
1.339912
1.295805
1.254678
1.153946
1.302958
1.133680
1.517534
1.241565
1.519918
1.491904
1.520514
1.660585
1.637936
1.951456
2.062917
2.450943
5.197525
29.115677
80.427527
216.385722
383.374691
699.579716
951.137543
1015.669703
1015.669703
1015.669703
1015.669703
897.369385
645.375848
339.728594
185.928941
74.236989
30.626655
9.829998
6.706715
6.010532
5.722642
5.403757
5.125999
6.078482
7.381439
10.897517
15.509725
23.761988
31.565428
42.573810
50.818920
57.991743
60.626864
59.132576
54.314733
45.727491
37.570000
27.379990
20.775795
14.384985
10.583997
7.426739
5.722642
5.056858
4.764795
4.283786
4.609823
4.403591
4.153848
4.289746
4.392862
4.326701
4.084706
4.300475
4.119873
4.180670
3.866553
##ZVALUE=360
0.792742
0.852942
0.902414
0.764728
0.895858
0.740886
0.893474
0.573993
0.711679
0.808835
0.583529
1.072884
0.804663
0.762939
0.858903
0.848770
0.922680
0.891685
0.995994
0.928640
0.988841
0.823736
0.864863
0.877976
0.722408
0.837445
0.866652
0.962615
0.989437
0.972748
0.949502
0.964999
0.896454
1.119971
1.016855
1.083612
1.186728
1.125932
1.105666
1.108646
1.128912
1.069903
1.117587
1.117587
1.192689
1.273751
1.181960
1.216531
1.190901
1.388788
1.317859
1.166463
1.505613
1.540780
1.437664
1.606941
1.728535
1.796484
1.853704
2.209544
2.244711
3.270507
13.798475
42.348504
134.693980
266.072750
536.499619
790.454745
1015.669703
1015.669703
1015.669703
1015.669703
1012.590528
789.215565
463.125706
268.788934
104.851723
44.203997
12.628436
7.030964
6.041527
5.467534
5.355477
5.012751
4.950762
5.100965
6.567836
8.342862
13.169646
18.590689
28.239489
35.895705
45.180917
51.053762
54.584742
55.222511
51.183701
46.237707
36.764741
29.465556
20.651817
15.510917
10.717511
7.763505
6.021857
5.137920
4.681945
4.316568
4.284978
4.321933
4.248619
3.980994
4.127622
3.891587
4.034638
3.826618
##ZVALUE=365
0.725985
0.757575
0.636578
0.833869
0.801682
0.770688
0.788569
1.018643
0.746846
0.804663
0.715852
0.801682
0.853539
0.719428
0.828505
0.854731
0.859499
0.780821
0.702739
0.921488
0.729561
0.838637
0.839829
0.841618
1.016855
0.962615
0.924468
0.795722
0.982881
1.050830
1.001954
0.983477
0.939965
0.990629
0.975728
0.950694
0.868440
1.016855
1.108646
0.964999
1.249909
1.033545
0.985861
1.133680
1.120567
1.015663
1.010895
1.115799
1.230836
1.151562
1.070499
1.303554
1.268983
1.227856
1.289845
1.429915
1.463890
1.584888
1.844764
1.714826
2.067685
2.067685
2.287626
2.503991
6.037951
21.888614
84.448457
184.045434
421.220660
652.707815
962.238908
1015.669703
1015.669703
1015.669703
1015.669703
887.229443
561.089516
341.745615
147.695541
67.693591
19.296408
8.490682
5.949736
5.515814
5.013943
4.710555
4.646778
4.429817
4.424453
5.269647
7.485747
10.216832
16.192794
22.227764
31.185746
37.980676
45.813918
49.227476
51.203966
49.738884
44.253469
38.308501
28.911829
22.111535
15.801787
11.847615
8.387566
5.863905
4.935861
4.490614
4.281998
3.919601
3.969669
3.629923
3.638864
3.619790
##ZVALUE=370
0.816584
0.817776
0.699759
0.736713
0.891685
0.638962
0.815988
0.819564
0.657439
0.681877
0.809431
0.841618
0.739694
0.746846
0.803471
0.756979
0.821948
0.793934
0.817776
0.652671
0.960827
0.779629
0.876784
0.796914
1.025796
0.878572
0.949502
0.727773
0.835657
0.939965
0.890493
0.796914
0.926852
0.733733
0.886917
0.873804
1.001954
1.015663
1.138449
0.943542
0.910759
0.938773
0.994802
0.976920
1.047850
1.097918
1.194477
0.886917
1.079440
0.978708
1.225471
1.199841
1.282692
1.321435
1.358986
1.331568
1.286864
1.267791
1.466870
1.620650
1.506805
1.737475
1.843572
1.946688
1.905560
2.237558
3.413558
11.924505
60.079694
144.983530
341.341496
545.047522
860.036016
1015.669703
1015.669703
1015.669703
1015.669703
963.648558
629.564524
407.334566
196.325779
97.842813
33.661723
13.443828
5.946755
5.208850
4.885793
4.526973
4.278421
4.191995
4.239678
4.120469
5.011559
6.270409
9.612441
13.251901
19.679666
26.272535
34.901500
39.930940
46.285987
47.624707
46.412945
43.422580
35.944581
30.196905
22.388697
15.883446
12.042522
8.429885
6.633997
5.195737
4.550815
4.064441
3.712773
3.690720
##ZVALUE=375
0.824928
0.731945
0.815988
0.773668
0.690818
0.743866
0.727773
0.704527
0.792742
0.631809
0.579953
0.879765
0.778437
0.786781
0.715852
0.826716
0.902414
0.756979
0.675917
0.787973
0.862479
0.871420
0.989437
0.846982
0.743866
0.856519
0.817776
1.010895
0.757575
0.949502
0.604987
0.858903
0.839829
0.756979
1.028776
0.975728
0.890493
0.843406
0.812411
1.064539
0.838637
0.875592
0.834465
0.933409
0.939965
1.029968
1.054406
1.066923
0.989437
1.078844
0.947714
1.162887
0.848770
1.053810
1.108646
1.063943
1.154542
1.253486
1.278520
1.371503
1.384616
1.438856
1.456738
1.631975
1.703501
1.647472
1.943707
2.021790
2.586842
6.443858
34.526587
86.988807
226.011872
400.287509
708.812475
955.134034
1015.669703
1015.669703
1015.669703
1015.669703
790.520906
553.447008
298.689008
165.245533
62.034726
25.441647
7.625818
5.052686
4.384518
4.527569
4.160404
4.177690
4.021525
3.964901
4.194975
4.658699
5.571842
7.400513
11.448860
15.912652
23.264885
29.138923
36.736727
41.059852
45.371652
44.885874
42.022467
36.241412
31.484962
23.886561
18.839836
13.247728
10.066628
6.831884
5.421638
4.411936
##ZVALUE=380
0.701547
0.694990
0.728965
0.670552
0.728965
0.733733
0.826716
0.684857
0.648499
0.570416
0.789762
0.672936
0.606775
0.762939
0.822544
0.694990
0.855923
0.818968
0.769496
0.754595
0.811815
0.669956
0.811815
0.864863
0.853539
0.825524
0.919700
0.860691
0.797510
1.025796
0.820756
0.958443
0.817776
0.881553
0.932813
0.901818
0.864863
0.852942
0.822544
0.866652
0.825524
0.935793
0.975728
1.022816
1.002550
0.939965
1.226664
1.149774
1.153946
1.106858
1.082420
0.825524
1.205802
1.015663
1.086593
1.057982
0.968575
1.146793
1.211762
1.122952
1.176000
1.258850
1.452565
1.424551
1.454949
1.432896
1.660585
1.734495
2.012849
2.081990
2.415776
3.656745
20.050406
58.642626
164.938569
310.762525
593.703985
853.058696
1015.669703
1015.669703
1015.669703
1015.669703
914.607644
678.509474
389.529467
226.270556
91.444850
39.762855
11.182427
5.801916
4.877448
4.362464
4.438758
4.245639
4.165769
3.893971
3.782511
3.932714
4.411936
5.049706
6.838441
9.412766
15.206933
20.001531
27.501583
33.698678
39.171576
41.754842
43.266416
41.237473
37.057996
31.875968
24.787784
19.422770
13.632774
9.192824
##ZVALUE=385
0.775456
0.808835
0.653863
0.748634
0.707507
0.697970
0.605583
0.716448
0.834465
0.759959
0.699759
0.615716
0.716448
0.849962
0.623465
0.755787
0.783801
0.670552
0.655651
0.659823
0.568628
0.749826
0.665784
0.676513
0.681877
0.870824
0.680685
0.733733
0.856519
0.800490
0.712872
0.846982
0.984669
0.891685
0.939965
0.871420
0.918508
1.081824
0.995994
0.887513
0.804663
0.785589
0.790954
1.037717
1.123548
1.107454
0.978708
0.943542
0.807643
1.013875
0.930429
1.029968
1.171827
1.024604
1.132488
0.900626
0.908971
1.072884
0.978708
1.165867
1.093745
1.109838
1.191497
1.247525
1.278520
1.374483
1.305938
1.297593
1.664758
1.699924
1.914501
2.029538
2.196431
2.479553
8.401871
29.874444
110.330582
229.916573
482.524633
731.225014
1015.669703
1015.669703
1015.669703
1015.669703
1015.669703
829.041600
519.906878
326.429009
145.436525
70.097446
22.098422
8.429885
4.660487
4.508495
4.321933
4.208684
4.174709
4.080534
3.842711
3.751516
3.550649
3.826618
4.597902
5.586743
8.330941
11.636615
16.852617
23.165941
28.733611
32.982826
37.882924
39.264560
38.138628
36.289692
30.979514
24.278760
##ZVALUE=390
0.825524
0.650883
0.742674
0.647902
0.635982
0.717640
0.684857
0.764728
0.678897
0.761747
0.724792
0.746846
0.677705
0.679493
0.745654
0.674725
0.604987
0.644922
0.602603
0.665784
0.748634
0.844598
0.735521
0.761747
0.874996
0.592470
0.775456
0.848770
0.876784
0.753999
0.762939
0.866652
0.765920
0.919700
1.095533
0.842810
0.878572
0.927448
0.871420
0.967979
1.024604
1.060963
0.906587
0.981688
0.964999
0.920892
1.028776
1.085997
1.203418
1.091957
1.184940
1.054406
0.989437
1.178980
1.141429
1.048446
0.983477
1.061559
1.120567
1.089573
1.278520
1.152754
1.251698
1.098514
1.288652
1.192689
1.374483
1.356602
1.469851
1.749992
1.888871
1.809597
1.903772
2.045631
2.237558
2.126694
4.514456
18.945932
83.894730
180.620551
389.921665
610.963702
919.579864
1015.669703
1015.669703
1015.669703
1015.669703
984.537601
675.781965
444.318652
210.326910
105.772614
34.533739
13.358593
5.276799
4.532933
4.347563
4.394650
4.282594
4.356503
3.896952
3.790855
3.737807
3.548861
3.695488
4.318953
5.150437
7.419586
9.962916
13.999939
18.513799
24.526715
29.310584
34.322739
36.958456
37.364960
##ZVALUE=395
0.669956
0.545979
0.688434
0.776649
0.716448
0.504851
0.583529
0.507832
0.694990
0.614524
0.620484
0.751615
0.611544
0.509620
0.573993
0.783801
0.779629
0.679493
0.680685
0.758767
0.723600
0.842810
0.720620
0.817776
0.694990
0.905991
0.970960
0.674725
0.666976
0.806451
0.794530
0.955462
0.809431
0.932813
0.879765
0.872612
0.822544
1.038909
1.081824
1.020432
1.128912
1.031756
1.071692
1.106858
1.057982
0.972748
0.957847
0.970960
0.973940
0.980496
1.148582
1.025796
1.081824
1.152754
1.057982
1.121759
1.192689
1.103878
1.193881
1.030564
1.269579
0.968575
1.230836
1.238585
1.100898
1.226664
1.239777
1.271963
1.506805
1.458526
1.807809
1.578927
1.707673
1.854897
1.902580
1.963973
2.001524
2.248883
3.063679
10.159612
57.444572
134.267807
302.002430
492.170453
808.544755
1013.090611
1015.669703
1015.669703
1015.669703
1015.669703
832.999945
576.425791
300.328732
158.147812
56.869984
23.586750
7.467866
5.118847
4.585981
4.490614
4.344583
4.201531
4.177690
4.074574
3.898740
3.824830
3.429651
3.597736
3.891587
4.700422
5.840659
8.593798
11.275411
16.601682
21.249652
27.791858
##ZVALUE=400
0.948906
0.895858
0.759959
0.680685
0.760555
0.621676
0.600815
0.670552
0.593662
0.791550
0.612736
0.723600
0.744462
0.646710
0.673532
0.569820
0.693798
0.645518
0.616908
0.732541
0.729561
0.607967
0.777841
0.738502
0.836849
0.789762
0.836849
0.675917
1.023412
0.871420
0.723600
0.946522
0.892878
0.903606
1.066923
0.958443
0.995994
1.010895
0.836849
1.073480
0.913739
0.953674
1.079440
0.996590
1.022816
1.161695
1.207590
1.129508
1.210570
1.102686
1.173615
1.018643
1.158714
1.056790
1.139641
1.075864
1.275539
1.242757
1.034737
1.127720
1.125932
1.221895
1.177788
1.249909
1.288652
1.177788
1.386404
1.425743
1.483560
1.570582
1.483560
1.641512
1.666546
1.752973
1.723766
1.756549
1.858473
1.825690
2.015829
2.183914
2.582669
5.032420
32.634735
91.118813
239.592791
411.525965
721.604824
955.615640
1015.669703
1015.669703
1015.669703
1015.669703
924.298763
678.407550
403.115749
236.920714
99.086761
43.768883
12.606978
6.037951
4.556775
4.506707
4.327893
4.491806
4.362464
4.238486
4.244447
4.035830
3.831983
3.671646
3.482699
3.416538
3.813505
5.248785
6.674528
10.284781
##END
