##TITLE=7-2
##FORMAT=SPECTACLE-ASCII V-1.2
##DATA TYPE=ULTRAVIOLET SPECTRUM
##SECOND TYPE=ULTRAVIOLET SPECTRUM
##DATE=04/09/18
##TIME=12:25:11
##SPECTROMETER/DATA SYSTEM=SPECTACLE
##XUNITS=NM EM
##YUNITS=ENERGY
##YFACTOR=1
##FIRSTX=220
##LASTX=450
##NPOINTS=116
##3DDATA=Equidistant
##ZUNITS=NM EX
##FIRSTZ=210
##LASTZ=400
##ZPOINTS=39
##XYDATA=(Y..Y)
##ZVALUE=210
15.465617
16.365647
12.979507
12.663603
10.697842
10.727644
9.604692
8.460879
7.288456
5.914569
5.337000
4.014969
3.672838
3.427863
3.705621
3.287792
3.602505
3.372431
4.635453
4.411936
3.882647
4.720688
4.249811
4.101992
4.479885
4.639626
4.592538
5.766749
5.433559
5.364418
4.974604
6.514788
6.875992
6.609559
7.110834
6.083846
6.842613
6.989837
7.454753
6.973743
7.692575
7.711649
8.450747
8.861423
8.314848
8.361936
8.693933
8.003712
7.863641
8.837581
8.025765
8.481741
9.561777
8.617640
7.634759
8.163452
8.260608
7.247925
8.456707
9.574890
9.221435
8.347631
8.409619
8.775592
8.906722
9.142756
9.334683
9.204745
10.523796
11.244416
12.575984
14.469624
15.729666
16.704798
17.853975
17.651916
18.937588
18.434525
17.595887
18.167496
16.312599
14.964938
13.507605
11.195540
9.752512
9.292960
8.894801
7.879734
8.209944
9.697676
11.549592
15.290976
17.351508
23.303628
26.265979
34.122467
39.839745
44.387579
49.550533
53.371787
54.228902
59.298873
57.268739
51.619411
52.746534
51.299930
47.538877
42.345524
38.334727
34.842491
30.427575
24.138689
18.710494
16.205907
15.037656
14.973879
##ZVALUE=215
44.032931
44.212937
34.643412
27.546883
22.382736
18.063784
16.959906
16.259551
15.237927
15.259981
12.480617
10.171533
7.700920
6.166697
5.168915
4.515648
3.789663
3.731847
4.168749
4.131794
3.921986
4.082918
4.578829
4.514456
4.530549
5.225539
4.515648
5.617738
5.366802
6.270409
6.489754
5.671978
6.629825
7.552505
7.097721
7.812977
8.658767
7.439852
8.501410
9.186864
9.081960
9.913445
8.899570
8.996725
8.206964
9.834766
9.447932
9.229779
8.836985
8.380413
10.022521
10.246634
10.139942
10.607839
10.687709
10.297894
10.523796
10.896921
10.348558
10.169744
10.280609
10.466576
9.165406
8.906722
9.456873
10.046959
10.682940
10.181665
10.755658
11.354685
13.112426
13.734698
14.407635
15.187860
16.298890
16.717911
17.882586
18.039942
16.102791
15.550852
15.288591
12.384653
11.925697
11.152625
10.322928
9.361506
8.200407
6.976724
7.369518
6.862879
6.472468
6.634593
7.802844
8.306503
11.024475
13.115406
17.301440
21.366477
33.832788
39.291978
45.929551
51.600933
65.874457
68.522692
75.632930
78.301430
83.218813
82.910657
83.537698
82.900524
75.189471
66.796541
65.079927
54.335594
46.101809
36.275983
##ZVALUE=220
93.833804
97.604990
88.743567
80.383420
68.589449
52.211881
40.095448
29.189587
25.050640
25.604963
25.450587
24.544597
20.570755
18.270612
14.211535
10.733604
8.241534
7.023811
4.424453
4.311800
3.907681
3.627539
4.461408
5.491972
4.836917
5.353689
5.696416
4.955530
5.754828
5.816817
6.616712
7.526875
6.926656
7.885695
7.928610
8.945465
8.606911
9.715557
9.532571
9.883642
10.517836
10.302663
10.685921
10.849833
9.376407
10.939837
10.123849
11.275411
11.587739
10.717511
11.392832
13.337731
12.743473
13.871789
12.829900
12.237430
12.852550
12.919903
12.366772
13.317466
14.832616
13.534427
12.826920
13.506413
12.185574
11.536479
12.600422
12.446642
13.199449
12.729764
14.034510
16.269684
17.414689
16.971827
17.340779
17.427802
17.709732
17.360449
16.302466
15.337467
16.569495
14.588833
13.011694
12.865663
11.079907
9.620786
9.447932
8.555651
8.731484
8.485913
8.411407
7.221699
6.621480
7.049441
7.570982
7.970929
7.659793
8.306503
9.570718
12.368560
15.379786
22.842884
30.395985
41.535497
54.020882
65.930486
78.238845
92.628002
109.597445
114.460588
127.415657
125.996470
130.294561
126.911998
123.641491
119.458437
##ZVALUE=225
122.679472
123.803616
145.060420
160.769820
158.954859
142.238736
126.441717
91.229677
70.931911
49.849749
43.405890
38.428903
39.913654
39.507747
36.701560
33.969879
26.830435
19.750595
15.510917
9.862781
7.295609
5.844831
5.731583
5.026460
5.027652
5.787611
5.804896
6.226897
5.935431
6.091595
7.935762
7.498860
7.774830
7.946491
9.452701
10.063648
9.744763
11.153817
11.615753
11.255741
11.254549
11.463761
12.076497
12.952685
11.860728
12.178421
12.316704
13.192892
13.281703
12.793541
14.965534
15.939474
15.529990
14.626980
16.170740
16.262531
16.731620
16.659498
15.939474
15.262961
16.498566
15.869737
15.711784
15.370846
15.899539
15.150905
15.308857
14.226437
14.665723
15.900731
17.498732
17.266870
17.134547
18.965602
19.856691
17.814636
18.622875
18.212795
17.120838
15.522838
14.895797
14.406443
13.122559
11.930466
11.288524
11.377931
9.792447
9.075999
8.599758
9.338856
10.239482
9.202957
9.501576
8.574724
9.137988
8.948445
8.374453
8.714795
8.138418
8.441806
8.436441
8.277893
8.952618
12.083650
14.609694
21.148920
28.843880
42.856932
55.136681
70.416927
92.244744
117.601752
134.888887
161.275864
182.497501
188.333988
##ZVALUE=230
82.526803
87.239742
137.173533
183.564425
229.975581
262.859464
279.306769
254.333615
221.180916
165.050626
129.168630
83.963871
65.025687
56.010485
59.567690
61.112642
59.036613
57.244897
50.480962
39.049983
30.793548
19.930601
13.412833
7.841587
6.826520
6.417632
6.138682
6.700754
6.477833
7.152557
7.292628
8.206964
8.225441
8.804798
9.321570
9.606481
10.616779
11.423826
11.915565
12.222528
12.009740
12.948513
11.664629
12.934804
13.298988
13.960600
13.496876
12.665987
13.508797
15.233755
14.398694
14.309883
16.198754
15.885830
15.855432
16.441941
16.552806
17.855763
16.780496
16.403794
17.119646
18.005967
18.263459
17.108917
15.732646
17.274618
16.559958
16.479492
16.136765
17.535686
19.021630
18.977523
20.368695
19.709468
20.581484
21.876693
20.807981
19.996762
19.820929
18.457770
16.608834
17.176867
15.307665
14.714599
14.574528
12.751818
13.286471
12.340546
11.218786
10.883808
11.760592
11.560917
11.053681
11.625886
9.865761
10.409951
10.377765
10.707974
9.814501
10.224581
10.950565
10.343790
9.935498
10.618567
11.087656
9.520650
9.904504
11.432767
11.952519
19.866824
24.415851
39.437413
52.930713
79.596639
109.460950
135.059953
##ZVALUE=235
23.701787
25.181770
61.827898
108.660460
171.539783
267.971754
331.168771
404.583812
434.858799
407.966971
359.771848
281.688571
205.160975
136.261582
102.933645
82.545877
78.238845
82.356930
87.912679
85.027814
79.604983
67.021847
54.293871
40.324926
24.734735
17.869473
10.792613
8.971691
7.887483
7.646680
7.000566
7.645488
8.609891
8.463860
8.919835
9.606481
10.404587
10.464787
9.639859
11.646748
11.632442
12.130737
10.813475
13.294816
13.326406
12.853742
13.314486
13.233423
12.585521
13.597608
14.387965
14.498830
14.475584
16.042590
15.513897
16.903877
14.664531
17.070770
16.524792
16.693473
16.528964
17.478466
15.997887
15.899539
16.867518
17.159581
17.898679
17.797947
17.863512
17.428994
18.085837
19.866824
21.443963
22.889972
21.920800
21.957755
24.033785
23.549795
22.319555
20.776987
19.726753
17.687678
18.315911
17.431974
16.239882
15.591979
14.951825
14.599562
14.964938
12.565851
14.584661
13.150573
13.804436
13.258457
12.603998
12.742877
13.291836
13.655424
12.352467
12.422800
12.989640
11.745691
12.379885
11.543632
12.739897
12.929440
11.507869
11.930466
11.417866
12.098551
11.285543
11.642575
11.808872
14.067888
19.463897
33.147931
##ZVALUE=240
3.248453
3.542900
10.548830
28.580427
56.136847
126.660466
207.145810
349.063873
456.290841
572.356582
623.286963
607.923865
547.826886
438.748002
337.306857
217.000842
157.364607
113.686919
100.185871
104.733706
120.012760
119.369626
117.200613
106.441975
83.644986
68.353415
46.228766
33.938885
20.047426
14.586449
10.721684
9.038448
8.755922
8.674860
8.668900
9.165406
8.973479
9.849668
10.574460
10.642409
10.372996
10.609627
12.266636
12.275577
12.282729
12.694597
11.473894
11.363626
13.705492
12.309551
13.632774
14.029741
13.252497
14.461875
14.345646
12.664795
13.310909
14.182925
15.146732
15.415549
15.141964
15.316606
16.209483
16.364455
15.563965
16.507506
18.195510
18.190742
19.159913
19.914508
19.821525
21.681786
22.214651
24.008751
23.002625
24.813414
23.799539
23.953915
22.724867
21.868944
21.029711
20.290613
19.849539
17.812848
17.575622
17.206669
15.746951
16.738772
15.610456
15.421510
14.804602
14.198422
15.619993
14.187694
14.192462
14.686584
13.489723
13.584495
13.105869
14.599562
14.310479
12.950897
13.657808
14.169812
13.134480
13.716817
13.460517
12.322664
14.225841
13.097525
13.941526
12.198687
12.969971
12.658834
12.802482
13.141632
##ZVALUE=245
2.726912
2.348423
2.495646
2.741814
5.238652
19.359589
43.662786
113.395452
193.559527
341.966748
467.917919
631.897449
708.183646
733.730793
699.625611
578.288436
463.562012
310.781002
217.327476
133.200884
104.841590
102.587938
112.430453
127.832890
131.934881
124.655962
111.760497
101.750493
73.635578
54.956675
34.782887
23.225546
14.811754
11.492968
9.574890
9.177923
8.705854
9.429455
10.171533
9.939671
10.618567
10.444522
10.219812
11.783838
10.627508
12.095571
12.226701
12.387633
11.603832
12.035966
11.776686
12.104511
12.900829
11.504889
11.660457
12.924671
12.526512
12.795925
12.308955
12.243986
12.212992
13.099909
13.685822
13.752580
13.802648
13.424754
13.542771
13.516545
15.402436
15.880466
17.274618
18.443465
19.030571
19.459724
19.832850
20.277500
20.800829
19.386411
18.264651
17.908812
17.300844
16.433597
16.147494
15.406609
15.746951
14.647841
13.924837
15.114546
13.739467
14.180541
14.040470
12.659431
13.188720
14.596581
13.750792
13.992786
11.959672
12.994409
13.287663
12.028813
12.341738
13.184547
12.506843
12.436509
11.648536
13.070703
12.376904
13.341904
12.962818
12.831688
12.746453
12.186766
12.927651
11.951923
11.322498
10.701418
##ZVALUE=250
2.330542
2.499819
2.364516
2.239943
2.486706
2.383590
2.942681
12.630820
31.841993
85.662007
164.633989
313.320756
459.437966
642.623901
749.781728
831.511617
821.856856
724.954605
597.772002
420.629978
291.374922
173.121691
118.378997
98.071694
105.168819
123.766661
135.934949
138.123631
134.865642
126.666427
102.880597
81.577897
55.537820
38.774610
23.256540
15.785694
11.811852
10.336637
9.826422
8.917451
9.751916
10.046959
9.856820
11.185408
11.593699
11.730790
11.121631
10.563731
11.235476
10.842681
11.607409
13.436675
12.289882
12.402534
12.850761
11.892915
12.305975
11.899471
12.565851
11.027455
11.349916
12.093782
12.015700
11.710525
12.194514
11.492968
12.243986
12.427568
12.539625
13.074875
15.772581
15.338659
16.891956
15.853643
16.639829
17.456412
16.267896
15.428662
15.857816
14.978647
14.927983
14.313459
14.625788
12.703538
12.818575
11.460781
11.817813
12.630820
11.659861
11.389852
11.924505
12.362599
11.776686
11.022687
11.191964
10.892749
11.666417
10.423660
10.983944
11.156797
10.851622
10.893941
11.324883
12.139678
11.605620
11.477470
11.295676
11.049509
10.359883
10.794997
10.324717
11.396408
11.476874
10.754466
11.353493
10.634661
##ZVALUE=255
2.128482
2.058744
1.836419
2.082586
1.908541
2.145767
2.586842
2.676845
2.567768
5.743504
19.927621
67.223907
130.140781
273.172855
416.563749
624.008775
768.596530
901.961923
937.485695
880.296826
774.179697
615.926981
400.508642
256.322622
140.148997
101.895928
90.823770
102.849603
125.676990
141.676664
149.102807
142.226815
135.049820
104.699731
84.834695
57.553649
41.404963
24.462938
18.215775
12.522936
11.432767
11.779666
11.082888
11.463761
11.477470
11.774898
11.860728
12.443662
12.264848
12.279749
12.728572
12.511611
12.317896
12.038946
12.325644
12.195706
11.726618
11.255741
12.876987
11.582971
12.227893
11.283755
11.662841
12.114644
10.925531
11.712909
11.158586
11.471510
12.554526
12.458563
12.277961
14.429688
13.144612
13.846755
15.544891
14.204979
13.936758
14.380813
14.210939
13.360977
13.128519
11.818409
10.858774
11.227727
10.803938
11.333823
10.092854
10.164976
9.955764
10.010600
10.301471
9.854436
9.696484
10.140538
9.657741
9.796619
9.566545
10.353923
9.457469
9.411573
9.425879
10.494590
8.795857
9.399652
9.998679
10.019541
9.792447
9.959936
9.534955
10.086894
9.726882
9.081960
9.613633
9.296536
9.879470
9.599924
##ZVALUE=260
1.861453
1.709461
1.845956
1.911521
1.756549
2.191663
1.810789
2.107620
2.262592
2.291799
2.888441
3.913641
11.039972
44.913888
92.704892
214.586854
350.678563
573.265553
741.927624
955.902934
1015.669703
1015.669703
936.857462
770.365000
516.563654
355.878472
199.581981
126.765966
82.711577
86.406469
107.135773
126.350522
149.540901
154.835582
151.340961
138.549805
111.182928
88.519454
62.679648
44.110417
27.979612
21.012425
15.220642
14.182925
13.154745
13.308525
13.672709
12.941957
12.962818
13.572574
13.402700
12.899637
12.933612
13.633966
12.853742
13.382435
12.291670
12.096763
12.495518
12.324452
12.807846
12.686849
12.219548
10.919571
11.323690
12.204647
10.856986
11.499524
11.709929
12.310743
13.246536
13.392568
13.693571
13.493896
13.184547
13.505816
12.983680
12.530684
12.198687
11.327863
11.706948
11.010766
10.619760
10.530949
10.109544
9.991527
9.598732
9.790659
9.294748
9.164810
9.613633
9.056926
9.094477
8.659959
8.445978
8.534789
8.446574
8.526444
8.242726
8.879900
8.859634
8.811951
8.745790
8.938909
9.187460
8.705854
9.174943
8.054972
8.763671
8.558631
8.696914
8.520484
8.687973
9.006858
8.911490
8.762479
##ZVALUE=265
1.893640
1.610518
1.845956
1.774430
1.791716
1.864433
1.818538
2.146959
1.965761
1.923442
2.008677
2.161860
1.991987
2.694726
6.762743
28.102994
66.856742
167.979598
290.122628
535.375476
731.096864
977.161527
1015.669703
1015.669703
1015.669703
889.559984
703.992844
509.401560
289.636850
175.758004
93.789697
72.684884
85.321665
108.665824
136.670470
150.003433
158.559680
156.608820
138.605833
118.037462
90.080500
68.780780
45.049787
33.250451
22.247434
17.575622
15.239716
15.258789
16.072989
15.673637
14.972687
15.490651
15.757680
15.668869
15.291572
14.955997
14.528632
14.531612
13.958812
13.533831
13.274550
13.007522
13.183951
12.785792
12.402534
12.302995
12.173653
12.274981
12.847781
12.720823
12.393594
13.094544
14.185905
12.220740
13.897419
13.481975
12.977719
12.402534
11.905432
11.365414
10.819435
10.793805
10.778904
10.047555
10.043979
9.137988
8.597970
8.880496
8.538961
8.828640
7.941723
8.934736
8.585453
7.946491
8.323789
8.429885
8.509755
7.926822
8.227825
8.139610
8.214712
8.300543
8.113980
7.925630
7.905960
8.213520
7.755756
8.374453
7.790923
8.068681
8.506775
8.401871
8.413792
7.932782
7.818937
8.140802
##ZVALUE=270
1.547933
1.628995
1.593828
1.568794
1.805425
1.781583
1.574755
1.636744
1.790524
1.757741
1.669526
2.044439
1.893640
2.433658
2.144575
2.462864
3.330708
13.195872
37.396550
118.051767
227.911472
448.848605
674.240589
961.225629
1015.669703
1015.669703
1015.669703
1015.669703
870.925784
662.890673
397.771597
250.967741
124.716759
76.446533
66.851974
84.345937
115.855932
139.828920
158.878565
166.573524
162.445903
143.069625
123.816729
93.820691
72.003603
46.815872
34.136772
25.395751
20.681620
18.590689
17.681718
17.239451
17.524958
16.124845
16.468763
16.544461
16.250610
16.437769
15.349984
15.788674
15.244484
14.440417
14.253855
14.050603
13.884902
12.730956
12.619495
13.259649
12.777448
13.021827
12.840629
12.411475
13.388991
13.372898
13.046861
12.818575
12.145638
12.386441
11.981726
12.001991
10.755658
10.576844
10.634661
9.829998
9.786487
9.953976
9.212494
9.518862
9.065866
8.284450
8.744597
8.514524
8.032918
7.862449
7.772446
8.125901
8.028746
7.417798
7.921457
7.484555
7.656813
8.045435
8.025765
7.788539
7.751584
7.938743
7.335544
7.656813
7.775426
7.782578
7.681847
7.300973
7.970929
7.690787
7.193685
7.592440
##ZVALUE=275
1.362562
1.327991
1.527667
1.620650
1.671910
1.580715
1.508594
1.575947
1.319647
1.547933
1.646876
1.804829
1.747608
1.865625
1.966953
2.029538
2.009869
2.453923
2.555847
6.642938
22.144914
80.537796
170.727968
375.717878
583.601594
878.685713
1015.669703
1015.669703
1015.669703
1015.669703
1002.122760
820.070505
527.868867
335.103869
159.280896
90.991855
58.790445
63.950419
90.370774
113.514662
141.829848
155.141950
166.320801
160.466433
142.315626
122.564435
93.536973
72.318912
49.219728
35.847425
26.481748
21.418929
18.516779
18.469691
17.591715
17.342567
17.518997
16.138554
16.232729
15.893579
15.510917
15.286803
14.403462
14.128685
14.024973
13.868809
13.448000
12.884736
13.410449
12.911558
12.902617
13.520718
13.245940
13.267994
13.187528
13.127923
13.358593
12.886524
11.616945
11.830926
11.428595
10.774732
10.166764
10.061860
9.836555
9.378791
9.389520
9.171963
8.707643
8.827448
7.937551
8.230805
8.179545
8.137822
8.172989
7.783771
7.990599
7.552505
7.273555
7.689595
7.604957
7.872581
7.678866
7.871985
7.555485
7.711649
7.698536
7.527471
7.753968
7.366538
6.776452
7.171631
7.709861
6.771684
7.449985
7.069707
##ZVALUE=280
1.238585
1.237988
1.325607
1.601577
1.585484
1.287460
1.414418
1.563430
1.615882
1.552701
1.511574
1.599789
1.429915
1.707673
1.902580
1.746416
1.754761
1.785755
2.195835
2.234578
2.355576
3.841519
12.907982
57.979822
128.733516
292.687416
465.688705
693.006516
981.953740
1015.669703
1015.669703
1015.669703
1015.669703
949.384570
630.981922
421.031713
213.894844
115.055442
57.452917
48.850775
60.564876
88.662505
112.092495
139.306784
156.780481
161.960721
157.046914
142.153502
122.732520
98.218918
70.731640
50.400496
34.679770
25.836825
19.408464
16.822815
16.362667
15.801787
15.236735
15.144944
14.426708
14.476776
14.059544
13.521910
13.448596
13.326406
13.200641
12.811422
12.993813
12.677908
13.022423
12.961626
12.411475
13.190508
13.009906
12.236834
12.175441
12.081861
11.577606
11.067986
11.035800
10.631680
9.879470
9.928942
10.007620
9.722710
9.218454
9.180903
8.715987
8.594990
8.486509
7.983446
8.171797
7.654428
8.265972
7.865429
7.568598
7.741451
7.473826
7.409453
7.525682
7.772446
7.604957
7.406473
7.349849
7.531643
7.706881
7.323623
7.558465
7.538795
6.970763
7.481575
7.049441
7.137656
6.893873
6.529689
##ZVALUE=285
1.263618
1.148582
1.283884
1.237988
1.417994
1.522899
1.411438
1.589656
1.418591
1.248717
1.303554
1.438856
1.409650
1.377463
1.419783
1.469851
1.690984
1.511574
1.629591
2.068877
2.181530
2.256632
2.388954
2.852678
6.188750
31.319857
75.021982
192.964673
342.608690
546.004772
860.613585
1015.669703
1015.669703
1015.669703
1015.669703
1015.669703
795.338750
550.560951
292.553902
165.788531
87.354779
42.212605
40.815473
59.804916
79.985857
111.001730
128.871799
147.983432
157.359838
152.347684
137.256980
121.743679
91.863871
70.533752
46.620965
33.132434
21.528602
17.716885
14.253855
13.581514
13.514757
12.848973
12.495518
12.839437
12.589693
12.229681
11.308789
11.975765
12.171865
12.071729
12.043715
12.072921
11.811852
11.949539
11.750460
11.952519
11.568666
11.414886
10.600686
10.343790
10.771751
10.025501
9.816885
9.604692
9.081960
9.580851
8.949637
9.060502
8.893609
8.574724
8.461475
8.002520
8.048415
8.067489
8.249879
7.892847
7.607937
7.578731
7.809997
7.345676
7.937551
7.177591
7.178783
7.806420
7.131696
7.667542
7.572770
7.746816
7.217526
7.200837
7.151961
6.837845
7.085800
7.131696
6.733537
6.558895
##ZVALUE=290
1.242757
1.117587
1.216531
1.127720
1.082420
1.188517
1.240969
1.083612
1.217723
1.394749
1.259446
1.199841
1.509786
1.341701
1.408458
1.449585
1.505613
1.725554
1.465678
1.793504
1.787543
1.834631
2.151728
2.183914
2.161860
2.760887
3.131628
8.713603
41.675568
100.505948
244.712830
413.851738
712.179542
970.010757
1015.669703
1015.669703
1015.669703
1015.669703
940.249562
697.430968
403.292775
237.319469
101.662874
50.273538
29.552579
35.218596
52.937865
72.369576
100.229979
122.101903
143.141747
148.917437
146.453977
137.166977
112.293959
89.922547
61.690807
45.011640
29.378533
20.798445
15.290976
12.333989
10.960698
10.626912
10.850430
10.362864
10.644794
10.801554
10.553598
10.889769
11.260509
11.119843
11.078715
11.151433
11.350513
10.802746
10.922551
10.309815
10.365844
10.614991
9.536743
9.872913
9.667873
9.022951
9.149909
9.106994
9.121895
9.058714
8.420944
8.449554
8.564591
8.527637
8.250475
8.393526
8.059740
7.728934
7.866621
7.821918
7.501841
7.367730
7.462502
7.457733
7.695556
7.473826
8.022785
7.387996
7.820725
7.305741
7.460713
7.144809
7.062554
7.354617
7.119775
7.203817
7.425547
6.653666
##ZVALUE=295
1.100898
1.206994
1.138449
1.105666
1.248717
1.430511
1.258850
1.200438
1.182556
1.271963
1.269579
1.109838
1.385808
1.304746
1.462698
1.573563
1.350641
1.433492
1.559854
1.613498
1.460910
1.770854
1.555681
1.699924
1.835823
1.859665
2.193451
2.343655
2.535582
5.449653
19.250512
75.758696
160.414577
360.510945
563.215613
893.770456
1015.669703
1015.669703
1015.669703
1015.669703
1015.669703
795.688629
552.743673
292.972922
160.632730
59.773922
29.803514
23.337603
31.306744
48.706532
65.713525
92.561841
113.145709
132.470727
140.564442
136.453509
125.112534
104.826689
85.054636
60.337782
42.950511
27.041435
18.922687
12.514591
10.530949
9.738803
9.352565
8.901954
9.536743
9.667873
9.925961
10.403991
9.956956
10.407567
9.834766
10.415912
9.783506
10.144711
9.897947
9.310842
9.337664
8.914471
8.736849
9.124875
8.885860
8.663535
8.666515
8.792877
8.322597
8.512735
8.238554
7.991791
7.659793
7.944703
7.965565
7.835627
7.894635
7.575750
7.361770
7.549524
7.269979
7.854700
7.835627
7.872581
7.768869
7.610917
7.505417
7.621646
7.289648
7.328987
7.257462
7.370710
7.192492
6.955862
6.879568
6.872416
##ZVALUE=300
1.160502
0.993609
1.010895
1.104474
1.184940
1.157522
1.165867
1.166463
1.071692
1.076460
1.165867
1.296997
1.317859
1.155734
1.241565
1.351833
1.303554
1.265407
1.341701
1.433492
1.400709
1.433492
1.463890
1.597404
1.725554
1.862645
1.702905
1.757741
1.942515
2.062917
2.389550
2.750754
10.474920
36.216974
118.414760
228.954554
468.001962
703.608990
1005.777717
1015.669703
1015.669703
1015.669703
1015.669703
989.719629
665.512681
433.660746
214.963555
113.598704
41.091442
20.398498
20.028949
27.131438
43.408871
59.979558
83.897710
103.686452
123.373866
131.570697
128.896832
121.786594
102.422833
83.670616
59.196949
43.569803
26.986599
18.592477
12.727976
10.333657
8.789897
8.414984
8.975863
8.724928
9.338856
9.022951
9.220839
9.530783
9.185672
8.962750
9.008646
8.790493
8.976460
8.750558
8.370876
8.422732
8.478761
8.365512
8.138418
7.879734
8.097887
8.089542
7.292628
7.948875
7.630587
7.627606
7.398725
7.352829
7.460713
7.627606
7.688999
7.661581
7.145405
7.345676
7.353425
7.527471
7.687807
7.482767
7.453561
7.440448
7.137656
7.414818
7.285476
7.278919
7.221699
7.273555
7.390976
6.836653
##ZVALUE=305
0.997782
1.051426
1.009703
1.166463
1.107454
1.076460
1.108646
1.136661
1.053810
1.044869
1.288652
1.122952
1.152754
1.042485
1.157522
1.095533
1.170635
1.129508
1.255870
1.261830
1.332760
1.382828
1.343489
1.366735
1.579523
1.569986
1.455545
1.608729
1.621842
1.814961
1.892447
2.214909
2.545714
2.474785
5.277991
19.678473
77.333450
167.616606
368.960500
585.075617
827.234983
1015.669703
1015.669703
1015.669703
1015.669703
1011.833549
824.453831
524.007678
324.105620
175.179839
65.380931
28.567910
15.049577
17.350912
26.595592
39.480925
60.047507
77.316761
100.012422
115.583539
123.310685
123.880506
112.239718
99.589825
75.118542
58.918595
38.625598
26.551485
16.210675
12.193918
9.727478
8.624792
8.767843
8.602738
8.129478
8.578897
8.328557
8.071661
8.367896
8.069873
8.219481
8.142591
7.914901
7.657409
8.004904
7.995963
7.517934
7.690787
7.791519
7.654428
7.674694
7.459521
7.176995
7.507801
7.203817
7.640719
7.537603
7.553697
7.138848
7.586479
7.353425
7.401705
7.313490
7.313490
7.367730
7.137656
7.019639
7.271767
7.320642
7.257462
7.095933
6.791949
6.939769
6.983876
6.793737
6.557703
##ZVALUE=310
0.987649
0.934601
0.896454
0.993609
0.964999
1.015663
0.978708
1.076460
1.224875
1.103878
1.076460
1.040697
1.072884
1.044869
1.068711
1.116991
1.108646
1.154542
1.153946
0.988841
1.298785
1.284480
1.111627
1.308918
1.480579
1.434684
1.384616
1.561642
1.509786
1.647472
1.683831
1.523495
1.926422
2.016425
2.114773
2.243519
2.795458
8.578897
42.140484
99.738836
245.901942
420.181751
726.814866
976.006985
1015.669703
1015.669703
1015.669703
1015.669703
958.272815
710.833669
415.549874
245.896578
101.630688
46.141744
16.706586
12.068748
16.186833
22.186637
35.389662
48.821568
70.516467
87.899566
104.994774
114.957690
117.629766
111.388564
95.151663
77.022910
54.409504
39.579868
24.930835
17.922521
12.068748
9.926558
8.828640
8.027554
7.906556
7.609725
7.151961
7.547736
7.310510
7.280707
7.381439
7.214546
7.438660
7.177591
7.279515
7.161498
7.311702
7.390976
7.288456
6.993413
6.998777
6.964803
6.922483
7.074475
6.639957
6.474853
7.165670
7.050633
6.803870
6.884933
6.850958
6.759763
6.887913
6.784797
6.979704
6.611943
6.584525
7.128716
6.586909
6.965995
6.868839
6.596446
6.886721
6.209612
##ZVALUE=315
0.973940
1.034737
0.937581
0.924468
0.894666
0.926852
0.937581
0.932813
0.866652
1.137853
1.133680
1.005530
1.043677
0.942945
1.016855
1.144409
1.280904
1.252890
1.151562
1.054406
1.227856
1.299977
1.322627
1.344681
1.332760
1.339912
1.442432
1.247525
1.325607
1.337528
1.490712
1.434684
1.390576
1.599789
1.672506
1.822710
2.100468
2.227426
2.584457
4.348755
22.414923
64.169765
185.981989
336.265564
635.010004
891.532898
1015.669703
1015.669703
1015.669703
1015.669703
1015.669703
839.748979
519.438982
321.936011
148.764849
69.346428
20.867586
11.497736
11.448860
13.976693
21.368861
30.277967
47.923923
63.204765
85.474849
98.319650
109.092593
111.148953
102.417469
89.000463
68.730712
54.655671
36.681890
26.089549
16.185641
12.126565
8.893609
7.867813
7.371902
7.145405
6.772876
6.669760
6.670952
7.011890
6.942749
6.972551
6.759763
6.632805
6.737709
6.710887
6.692410
7.027984
6.563663
6.681681
6.498694
6.712675
6.269813
6.659627
6.555915
6.509423
6.350875
6.452799
6.316900
6.683469
6.827712
6.809831
6.566644
6.610751
6.477833
6.480813
6.096959
6.572604
6.270409
6.242990
6.282926
6.229877
##ZVALUE=320
0.819564
0.890493
0.925660
0.988841
0.952482
0.885725
1.092553
0.935793
1.027584
1.046658
0.934601
1.072884
0.989437
0.969768
1.017451
1.071692
1.046658
1.009703
1.166463
1.003742
1.181960
1.092553
1.149774
1.135468
1.152754
1.260638
1.437664
1.252890
1.236796
1.360774
1.398921
1.621842
1.478791
1.646876
1.773834
1.665950
1.917481
1.929998
2.185702
2.203584
2.633929
3.051758
11.001825
41.967630
158.358812
323.546529
639.469028
925.519466
1015.669703
1015.669703
1015.669703
1015.669703
1015.669703
990.730524
667.677522
423.522592
195.714831
99.772811
35.811663
16.054511
9.898543
10.119677
13.439655
18.278956
29.488802
41.923523
60.762763
76.682568
94.547868
102.862716
105.402470
98.775625
83.902478
70.432425
50.512552
36.875606
23.502707
16.216636
10.422468
8.384585
7.010698
6.605983
6.752610
6.447434
6.453991
6.671548
6.298423
6.298423
6.263852
6.213784
6.302595
6.369948
6.489754
6.764531
6.256700
6.286502
6.090999
6.418824
6.318688
6.351471
6.293654
6.212592
6.266832
6.373525
6.367564
6.514788
6.422997
6.448627
6.346703
6.073713
6.265640
6.225705
6.044507
5.914569
5.876422
5.955696
##ZVALUE=325
0.848770
0.854731
0.761747
0.854731
1.013875
0.996590
0.921488
0.961423
0.860691
0.899434
1.013875
1.007915
1.084805
0.983477
0.950694
1.002550
1.090765
1.058578
0.936985
1.118779
1.067519
1.101494
1.135468
1.089573
1.172423
1.231432
1.134872
1.247525
1.287460
1.483560
1.368523
1.317859
1.573563
1.547933
1.529455
1.411438
1.616478
1.886487
1.850724
1.961589
2.238750
2.361536
2.532601
2.842546
6.137490
27.299523
119.875669
269.764662
593.966842
906.330943
1015.669703
1015.669703
1015.669703
1015.669703
1015.669703
1015.669703
744.950771
504.426956
260.757804
140.938759
51.664710
21.313429
9.602904
8.999705
9.704828
11.910796
18.416643
26.523471
43.141842
58.005452
77.381730
88.139772
97.920895
98.788738
90.437531
79.598427
62.090755
47.789812
30.790567
22.096634
14.193654
10.557771
8.009672
7.027984
6.445646
6.344914
5.987883
6.362796
6.045699
6.148815
5.988479
5.854964
5.827546
5.988479
5.930662
5.979538
6.317496
5.796552
6.112456
6.353855
6.262660
6.442666
6.151795
5.973577
6.312728
6.380677
6.124973
6.026626
5.984902
5.798936
6.144643
5.914569
5.959868
5.623698
5.643964
5.603433
##ZVALUE=330
0.884533
0.950694
0.951886
0.960827
0.875592
0.846982
0.709891
0.912547
0.898838
0.935793
1.018643
1.058578
0.815988
0.961423
0.888705
1.005530
0.904799
1.055598
0.915527
1.020432
0.913739
1.005530
1.088977
1.127720
1.145601
1.035929
1.061559
1.155734
1.198649
1.274943
1.291633
1.463890
1.544952
1.384616
1.375675
1.574755
1.558661
1.665950
1.629591
1.665950
1.891851
2.069473
2.044439
2.350807
2.486706
2.849698
3.846884
19.251704
71.224570
249.856710
487.446785
937.665701
1015.669703
1015.669703
1015.669703
1015.669703
1015.669703
1015.669703
967.406631
600.946546
374.662876
167.840719
83.552003
29.999614
13.384819
8.858442
8.514524
9.625554
12.038946
18.300414
25.932789
39.892793
53.011775
72.037578
82.417727
91.638565
91.513991
84.726810
74.655414
58.315992
44.579506
29.553771
21.723509
14.252663
11.083484
7.596612
6.693602
6.308556
6.308556
6.142855
5.931854
5.957484
5.609989
5.779862
5.843639
5.820990
5.795956
5.773902
5.795956
6.004572
6.145835
6.105900
6.032586
5.739927
6.057620
5.920529
5.901456
5.744696
5.645752
5.820990
5.813837
5.558729
5.325675
5.497932
5.497932
5.542636
##ZVALUE=335
0.990629
0.886917
1.077652
1.029968
0.906587
0.863671
0.846982
0.860691
0.986457
0.909567
0.796914
0.895858
0.927448
1.063943
1.045465
0.965595
1.051426
1.081824
0.879765
1.002550
1.119971
1.030564
1.143813
1.100898
1.132488
1.307726
1.291633
1.285672
1.239777
1.282692
1.330972
1.252890
1.503825
1.387596
1.428723
1.286864
1.672506
1.572967
1.615882
1.805425
1.842976
1.930594
2.085567
2.251863
2.514720
2.767444
3.074408
3.222823
3.940463
8.558631
69.211721
215.660930
644.388795
1015.669703
1015.669703
1015.669703
1015.669703
1015.669703
1015.669703
1015.669703
1015.669703
808.516741
445.217490
265.867710
115.690827
52.134991
17.358661
10.636449
9.152889
9.410977
10.872483
12.992620
18.012524
24.950504
37.866831
49.801469
66.966414
77.816844
85.275769
85.577965
78.751445
69.798827
56.677461
44.126511
31.316876
22.884607
15.286803
11.383891
8.033514
6.816983
6.615520
5.930662
5.917549
6.039739
5.982518
5.565882
5.653501
5.639791
5.579591
5.677938
5.495548
5.711913
5.795956
5.883574
5.752444
5.859733
5.730987
5.902648
6.028414
5.772710
5.844831
5.533695
5.648732
5.306602
5.766749
5.337000
##ZVALUE=340
0.998974
0.859499
0.928640
0.957847
1.034737
0.867844
0.994802
0.887513
0.883937
0.985861
0.934601
0.916719
1.010895
1.109838
1.024604
1.003742
1.102686
1.038909
1.123548
1.149774
1.153946
1.181960
1.142621
1.194477
1.215935
1.425743
1.320839
1.350641
1.266599
1.332760
1.244545
1.278520
1.293421
1.607537
1.557469
1.583695
1.482964
1.619458
1.721978
1.985431
1.853704
1.959801
2.265573
2.160668
2.525449
2.649426
2.710819
2.941489
3.511906
4.088879
4.256964
5.860925
44.042468
186.896920
677.952766
1015.669703
1015.669703
1015.669703
1015.669703
1015.669703
1015.669703
1015.669703
1015.669703
978.135467
574.273467
345.638990
154.500604
74.477792
24.432540
12.613535
10.228753
9.969473
9.654760
10.344982
12.632608
16.671419
25.761724
35.774708
51.490664
62.507987
73.356628
79.626441
79.683661
76.323748
66.269636
56.196451
41.419864
32.031536
21.530986
15.390515
10.122657
8.221865
6.547570
6.198883
5.739927
5.983710
5.710721
5.769730
5.766749
5.954504
5.853772
5.702972
6.024837
5.650520
5.957484
5.834699
6.323457
5.649924
5.789995
5.811453
5.743504
6.043911
5.738735
5.834699
5.693436
5.561709
##ZVALUE=345
0.959635
1.041889
1.107454
0.793934
1.205802
1.043677
0.976920
1.031756
0.850558
1.107454
1.125932
1.187921
1.072884
1.084805
1.237988
1.019835
1.140833
1.152754
1.074672
1.332760
1.074672
1.254678
1.385808
1.293421
1.208782
1.217723
1.264811
1.206994
1.502633
1.585484
1.302958
1.329780
1.526475
1.621842
1.670718
1.745820
1.603961
1.720786
1.536608
1.794696
1.752973
1.987815
1.941919
2.155900
2.007484
2.161860
2.616644
2.742410
3.114939
3.122687
3.546476
3.791451
4.463792
5.060434
11.771917
77.139735
476.373434
1010.167003
1015.669703
1015.669703
1015.669703
1015.669703
1015.669703
1015.669703
1015.669703
1015.669703
746.495724
457.021594
205.877423
103.693604
39.832592
18.658638
11.213422
10.557771
9.667873
9.366870
9.716749
10.948777
15.830994
22.149682
33.478737
43.509603
56.014657
65.797567
73.014498
75.238943
70.665479
64.201951
52.079558
42.643547
30.805469
22.326708
14.941692
11.380911
8.007884
6.972551
6.346703
6.082654
5.725622
5.725622
5.923510
5.990863
5.652905
5.760789
6.024837
5.901456
5.917549
6.022453
5.675554
5.699992
5.807877
5.827546
5.757809
5.751848
5.620718
5.673766
##ZVALUE=350
1.062751
0.919700
1.083612
1.110435
1.022816
1.181960
1.125932
0.930429
1.001954
1.021624
1.018643
1.123548
1.045465
1.021624
1.074672
1.193881
1.145601
1.022816
1.137853
1.250505
1.135468
1.075864
1.347661
1.267791
1.117587
1.316667
1.523495
1.199841
1.463890
1.285672
1.380444
1.438856
1.308918
1.324415
1.293421
1.496673
1.562834
1.634955
1.521707
1.645684
1.727939
1.737475
1.632571
1.830459
1.987815
2.195835
2.075434
2.156496
2.467632
2.717972
2.669692
2.909899
3.014803
3.392696
3.843904
4.301667
6.392598
16.103983
141.311884
473.175645
1015.669703
1015.669703
1015.669703
1015.669703
1015.669703
1015.669703
1015.669703
1015.669703
827.175975
510.614514
249.627829
138.383508
54.035783
23.105741
10.938644
9.404421
8.543730
8.277893
7.927418
8.465648
10.439754
13.711452
20.506978
27.593970
39.432645
47.894716
58.949590
65.010786
68.737864
66.785812
58.153868
50.383806
37.914515
29.157996
20.859838
15.443563
10.571480
8.180737
6.712675
5.920529
5.517602
5.330443
5.363822
5.415678
5.109906
5.401969
5.319715
5.203485
5.257726
5.232692
5.066991
5.022883
5.142689
5.000830
5.014539
4.936457
##ZVALUE=355
0.869632
0.755787
0.866652
0.786781
0.979900
0.713468
0.860691
0.824928
0.957847
0.776649
0.717640
0.864863
0.741482
0.894666
0.950694
0.942945
0.982881
0.938773
1.035929
0.882745
1.009703
1.021624
0.950694
0.889897
1.000762
0.880957
1.075864
0.988841
1.094937
1.190901
1.028776
1.136661
1.014471
1.147985
1.158714
0.981688
1.097918
1.283884
1.425743
1.300573
1.268983
1.520514
1.416802
1.299977
1.519918
1.550913
1.505613
1.648664
1.579523
1.732707
2.032518
1.871586
2.252460
2.268553
2.491474
2.434850
2.685785
2.990961
3.748536
6.372929
27.299523
77.950954
243.671536
451.020002
803.002715
1015.669703
1015.669703
1015.669703
1015.669703
1015.669703
830.655694
595.601797
327.156782
178.247690
68.635941
29.837489
10.759830
7.588863
6.981492
6.746650
6.397963
6.375909
7.068515
8.420944
11.677742
15.877485
24.538636
31.845570
42.831898
50.691962
58.319569
61.110854
59.198737
54.553747
45.106411
38.138628
27.615428
21.217465
13.690591
10.333657
7.377863
5.936623
4.946589
4.567504
4.757643
4.476905
4.284978
4.634857
4.478693
4.448891
4.304647
4.120469
4.131794
4.294515
4.333854
3.928542
##ZVALUE=360
0.886917
0.888705
0.713468
0.778437
0.930429
0.745654
0.837445
0.719428
0.670552
0.684857
0.786781
0.841618
0.881553
0.718832
0.849962
0.840425
1.028776
0.829697
0.660419
0.872612
0.927448
0.848770
0.845790
0.861883
0.982881
0.920892
1.094937
0.923872
1.135468
1.152754
0.967979
0.855923
1.070499
0.779629
0.999570
1.079440
0.883937
1.112819
1.086593
1.034737
1.141429
1.086593
1.190901
1.259446
1.164675
1.241565
1.218915
1.303554
1.276731
1.218915
1.549721
1.225471
1.279712
1.378655
1.576543
1.513958
1.725554
1.701713
1.874566
2.133846
2.310872
3.012419
12.149811
35.877824
114.886761
226.991773
460.592508
681.293011
986.746550
1015.669703
1015.669703
1015.669703
922.938585
699.871778
412.920713
243.634582
95.628500
40.411949
11.704564
6.945729
6.013513
5.599856
5.121827
5.149841
5.053878
5.260706
6.347895
8.504987
13.111830
18.233657
27.282834
35.222769
44.636726
50.374866
54.763556
54.761767
50.975680
45.737624
36.662817
29.494762
20.924807
15.662909
10.398626
7.976890
5.713701
4.950762
4.335642
4.248619
4.223585
4.132986
4.031658
3.755689
3.828406
3.869534
4.031658
3.697872
##ZVALUE=365
0.798702
0.740886
0.738502
0.714660
0.558496
0.811815
0.755787
0.837445
0.719428
0.638962
0.774860
0.761747
0.761747
0.765920
0.786781
0.674725
0.678897
0.888705
0.933409
0.832677
0.961423
0.976920
0.861883
0.775456
0.987649
0.854731
0.702739
0.854731
0.871420
0.893474
0.906587
0.864863
0.839829
0.981688
0.894666
0.955462
0.959635
0.878572
0.887513
0.951886
0.861883
1.109838
0.961423
0.993609
1.076460
1.036525
1.092553
1.009703
1.068711
1.012683
1.159906
1.135468
1.208782
1.276731
1.306534
1.490712
1.418591
1.369715
1.666546
1.654625
1.686811
1.890659
2.140999
2.458692
5.169511
17.659664
69.922805
153.397918
357.932448
573.690534
871.070027
1015.669703
1015.669703
1015.669703
997.181535
805.609822
498.311520
301.469564
129.347444
61.184764
19.375682
8.456707
5.689859
5.343556
5.028844
4.682541
4.528761
4.691482
4.693866
5.400777
7.557869
10.366440
16.683936
22.114515
30.949712
37.713647
45.221448
49.137473
50.700903
49.395561
43.335557
37.052631
29.129982
23.105741
15.758872
10.447502
7.904768
5.740523
4.786849
4.294515
4.023910
3.987551
3.700852
3.571510
3.585815
3.441572
##ZVALUE=370
0.669956
0.682473
0.792742
0.725985
0.722408
0.755787
0.755787
0.880957
0.813603
0.890493
0.856519
0.758767
0.776649
0.755787
0.684857
0.760555
0.740886
0.834465
0.767708
0.770688
0.689626
0.836849
0.857711
0.740886
0.849962
0.792742
0.783801
0.843406
0.778437
0.907779
0.914931
0.821948
0.836849
0.846982
0.847578
0.928640
0.873804
0.942945
0.951886
0.885725
1.137853
0.901818
1.075864
1.073480
0.977516
1.060963
1.187921
1.160502
0.972748
1.189709
1.056790
1.170635
1.064539
1.057982
1.186728
1.025796
1.256466
1.142621
1.305938
1.331568
1.325607
1.596808
1.700521
1.802444
1.812577
2.138615
3.223419
9.886622
48.772693
115.655661
266.379714
447.396636
746.379495
959.350467
1015.669703
1015.669703
1015.669703
879.034996
580.995679
373.916626
170.045495
85.765719
29.893517
12.373924
5.770922
5.346537
4.889965
4.396439
4.102588
3.971457
4.057884
4.093647
4.684925
6.145835
9.369850
13.054609
19.730926
25.610924
33.195615
39.569736
45.377612
47.801733
46.561956
43.231845
35.505891
29.446483
21.856427
16.890764
11.838675
8.628964
6.360412
5.074739
4.068613
3.859997
3.586411
3.488660
##ZVALUE=375
0.703931
0.657439
0.574589
0.603795
0.695586
0.744462
0.606775
0.794530
0.751615
0.681877
0.793934
0.708699
0.752807
0.745654
0.689626
0.720620
0.706911
0.834465
0.784993
0.855923
0.790954
0.988841
0.943542
0.881553
0.777841
0.774860
0.728965
0.567436
0.760555
0.801682
0.944734
0.878572
0.913739
0.817776
0.885725
0.952482
0.883937
0.811815
0.966787
1.010895
0.908971
0.905991
0.886917
0.932813
0.997782
0.818968
0.965595
1.080632
1.146793
1.054406
1.101494
1.088977
1.030564
0.994802
0.959635
1.025796
1.092553
1.202822
1.123548
1.200438
1.056790
1.183748
1.471639
1.439452
1.502633
1.725554
1.536608
2.015829
2.309680
5.506873
27.661920
69.567561
184.662938
335.945487
613.496900
840.578675
1015.669703
1015.669703
1015.669703
985.691547
713.228583
493.779778
263.930559
147.105455
54.619908
22.454858
7.111430
5.185604
4.523993
4.370809
4.266500
3.901720
3.926754
3.859997
3.985763
4.084706
5.405545
7.192492
11.222959
15.646815
23.014545
28.955936
36.226511
41.428804
45.079589
43.993592
41.854978
35.759807
30.632615
23.897886
18.649697
13.053417
9.822845
6.553531
5.237460
4.043579
##ZVALUE=380
0.852942
0.806451
0.624657
0.681877
0.727773
0.745654
0.807643
0.755787
0.749826
0.682473
0.620484
0.636578
0.687838
0.785589
0.812411
0.756979
0.595450
0.649691
0.861883
0.793934
0.805855
0.722408
0.824928
0.652671
0.843406
0.844598
0.918508
0.761747
0.792742
0.828505
0.774860
0.702739
0.778437
0.808835
1.015663
0.868440
0.792742
0.755787
0.804663
0.934601
0.865459
0.909567
0.821948
0.848770
1.013875
0.824928
0.960827
0.902414
1.022816
0.920892
1.036525
0.982881
1.049638
0.809431
1.085997
0.958443
1.183748
1.065731
1.143813
1.086593
1.079440
1.159906
1.190901
1.217723
1.239777
1.591444
1.382828
1.687407
1.743436
1.971722
2.030730
3.110766
14.854670
45.007467
136.524439
264.136791
525.825620
764.588714
1015.669703
1015.669703
1015.669703
1015.669703
817.292929
604.566932
344.417691
200.542808
79.647899
35.039783
10.463595
5.507469
4.434586
4.413724
4.345775
3.945827
3.808737
3.505945
3.670454
3.520846
3.907681
4.715919
6.664991
8.997917
13.888478
19.112825
26.759505
34.293532
38.428903
42.172670
42.577982
40.439963
36.944747
31.317472
25.654435
18.243790
13.916492
9.368658
##ZVALUE=385
0.619888
0.651479
0.703931
0.674725
0.569820
0.553727
0.705719
0.823736
0.589490
0.609756
0.568628
0.818968
0.709891
0.655651
0.660419
0.684857
0.653863
0.564456
0.764728
0.798702
0.683665
0.740886
0.700951
0.702739
0.863671
0.838637
0.809431
0.697970
0.754595
0.947714
0.724792
0.950694
0.805855
0.755787
0.823736
0.879765
0.937581
0.836849
0.890493
0.984669
0.843406
0.786781
0.877976
1.042485
0.917912
0.936985
1.010895
0.945926
0.887513
1.113415
0.935793
0.866652
1.081824
0.875592
0.982881
0.906587
0.851750
0.957847
1.161695
1.129508
0.953674
1.063943
1.241565
1.181960
1.370907
1.184940
1.284480
1.490712
1.633763
1.793504
1.963973
1.992583
2.272725
2.363920
6.794930
23.199916
85.342526
184.851885
399.018526
618.023872
918.501019
1015.669703
1015.669703
1015.669703
952.837467
751.081705
467.027426
292.317867
129.077435
61.092973
19.692779
7.531643
4.626513
4.306436
3.987551
4.126430
3.886819
3.675818
3.605485
3.645420
3.489852
3.734827
4.192591
5.367994
7.888675
11.245608
16.784668
23.209453
28.082728
33.987761
36.850572
39.388537
38.720965
35.817623
31.433702
24.952888
##ZVALUE=390
0.622869
0.661612
0.604987
0.694990
0.713468
0.621676
0.775456
0.731945
0.696778
0.665784
0.745654
0.518560
0.491738
0.551939
0.697970
0.612736
0.663996
0.691414
0.814795
0.745654
0.770688
0.705719
0.659823
0.777841
0.650883
0.657439
0.701547
0.750422
0.812411
0.931621
0.633597
0.950694
0.707507
0.912547
0.790954
0.835657
0.905991
0.943542
0.935793
0.969768
0.891685
0.826716
1.041889
0.903606
0.998974
0.837445
0.843406
0.900626
0.971556
0.924468
0.950694
0.914931
0.993609
1.024604
1.028776
0.877976
0.943542
0.994802
1.072884
1.110435
0.970960
1.071692
1.118779
1.224875
1.020432
1.236796
1.240969
1.405478
1.423955
1.550913
1.691580
1.762509
1.564622
1.847744
1.831651
1.844764
3.990531
14.884472
62.431693
137.187839
306.770802
497.057438
776.659846
973.914862
1015.669703
1015.669703
1015.669703
885.891914
596.071482
394.696593
196.326971
98.297000
32.586455
12.093782
4.729629
4.199743
4.155636
3.913641
3.984571
3.916621
3.806949
3.619790
3.792644
3.494620
3.503561
3.961921
4.856586
7.220507
9.706616
13.844967
18.315911
24.269819
28.820634
34.342408
36.038756
36.643744
##ZVALUE=395
0.637770
0.761747
0.744462
0.740886
0.634789
0.592470
0.600815
0.629425
0.702739
0.631809
0.768900
0.658631
0.642538
0.788569
0.828505
0.789762
0.771880
0.709891
0.653863
0.693798
0.690818
0.678897
0.557899
0.876784
0.692606
0.678897
0.720620
0.642538
0.739694
0.712872
0.835657
0.860691
0.914931
0.867844
0.854731
0.865459
0.961423
0.899434
0.959635
1.011491
0.841618
0.876784
1.016855
0.953674
1.035929
1.173615
1.021624
1.097918
1.108646
1.083612
1.067519
1.047850
0.971556
0.987649
1.049638
0.970960
1.022816
1.092553
1.226664
1.056790
1.033545
1.067519
1.085997
1.058578
1.043677
1.163483
1.324415
1.261830
1.497865
1.491904
1.452565
1.730919
1.660585
1.622438
1.655817
1.665950
1.747608
1.800656
2.733469
7.754564
37.450790
92.258453
224.585533
381.672978
653.095841
876.218677
1015.669703
1015.669703
1015.669703
999.431610
715.268850
492.246747
252.714753
135.551691
52.518845
21.698475
6.609559
4.538894
4.200935
4.231930
4.205704
4.187822
3.987551
4.070997
3.769994
3.745556
3.538728
3.372431
3.633499
4.322529
5.267859
8.152723
11.013746
16.506910
21.033883
27.161837
##ZVALUE=400
0.748634
0.783801
0.737906
0.665784
0.797510
0.604987
0.739694
0.624657
0.808835
0.635982
0.711679
0.696778
0.630617
0.580549
0.557899
0.533462
0.620484
0.659823
0.639558
0.563860
0.544786
0.826716
0.715852
0.643730
0.789762
0.810623
0.711679
0.784993
0.830889
0.690818
0.826716
0.849962
0.736713
0.657439
0.817776
0.872612
0.735521
1.159906
0.992417
1.096725
0.998974
1.000762
1.039505
1.125932
1.002550
0.998974
1.132488
1.066923
1.072884
1.079440
0.997782
1.059771
0.938773
1.002550
0.933409
1.063943
1.115799
0.895858
1.025796
1.104474
1.232624
1.094937
1.108646
1.053810
1.123548
1.183748
1.290441
1.146793
1.385808
1.438856
1.576543
1.533628
1.478791
1.567602
1.552701
1.602769
1.662970
1.524687
1.685619
1.897812
2.200603
3.809929
19.592643
53.921938
153.242946
281.644464
528.858900
738.409758
998.942852
1015.669703
1015.669703
1015.669703
803.336501
591.858625
345.926881
201.560855
83.844662
36.756992
10.626912
5.271435
3.986955
3.843904
4.159808
4.176497
4.055500
4.261732
4.005432
3.566742
3.498793
3.324747
3.203750
3.251433
3.910661
5.034804
6.717443
9.823442
##END
