##TITLE=8-1
##FORMAT=SPECTACLE-ASCII V-1.2
##DATA TYPE=ULTRAVIOLET SPECTRUM
##SECOND TYPE=ULTRAVIOLET SPECTRUM
##DATE=04/09/18
##TIME=12:07:31
##SPECTROMETER/DATA SYSTEM=SPECTACLE
##XUNITS=NM EM
##YUNITS=ENERGY
##YFACTOR=1
##FIRSTX=220
##LASTX=450
##NPOINTS=116
##3DDATA=Equidistant
##ZUNITS=NM EX
##FIRSTZ=210
##LASTZ=400
##ZPOINTS=39
##XYDATA=(Y..Y)
##ZVALUE=210
15.252829
15.349984
12.521744
11.324883
11.906624
10.317564
9.375811
8.561611
6.651878
5.757809
4.398823
3.877878
3.678799
3.272891
3.215671
3.209710
3.018975
3.609657
3.272891
3.481507
3.646612
3.816485
4.283786
4.410744
4.519820
4.507899
4.742742
4.596710
5.047917
5.746484
4.622936
5.132556
5.557537
5.414486
6.283522
5.988479
6.214976
7.333755
7.207990
6.550550
6.993413
7.350445
7.354617
7.508993
7.890463
6.672740
7.507801
7.612705
7.071495
6.604791
7.754564
7.887483
7.733703
7.094741
7.409453
8.186698
7.162690
7.973909
7.880926
7.827878
6.920695
6.770492
7.064939
8.004904
7.559657
7.019639
7.935762
7.903576
9.437799
10.083914
10.761619
11.797547
12.628436
14.027953
14.845729
15.147924
15.260577
15.568733
14.573932
12.378693
12.714863
11.158586
11.864901
9.568930
8.682609
7.513762
8.718967
7.083416
9.108782
8.869767
10.315776
12.470484
16.309619
20.293593
24.863482
27.962923
37.101507
35.796762
44.641495
46.507716
47.698617
51.240921
49.176812
50.306916
47.748685
48.960447
42.613745
41.531920
36.506653
31.677485
26.081800
22.348762
16.308427
14.694929
15.089512
13.977885
##ZVALUE=215
38.803816
37.931800
31.477809
26.633739
20.919442
18.111467
15.738606
16.590953
15.776753
14.784932
11.611581
9.689927
7.764697
5.605817
4.396439
4.166961
3.942847
3.198981
3.276467
3.499985
3.325939
3.436804
3.950000
3.897548
3.788471
4.369617
4.094839
5.442500
4.772544
5.146861
5.577803
5.761981
5.876422
6.244779
6.825924
7.997751
7.352829
7.324815
7.141829
7.501841
8.069873
7.946491
7.337928
8.106828
7.747412
7.898808
8.499622
7.179976
8.792877
9.593964
9.476542
8.702874
8.415580
9.650588
9.028912
9.911656
9.539723
9.513497
10.377765
10.595918
8.026958
9.609461
9.563565
9.012818
8.447766
8.296967
9.021759
9.136796
9.663701
9.749532
11.032820
13.061762
13.555884
13.802648
15.980601
14.430881
14.218688
14.133453
13.476610
13.211966
12.368560
9.980798
10.250807
10.136962
8.196831
8.425713
7.463694
7.202625
6.668568
6.496906
6.613731
6.753802
7.345676
7.830858
10.600686
12.705922
16.218424
21.164417
27.269721
33.153892
41.203499
48.790574
57.018995
64.718723
68.671703
71.559548
72.728992
71.282983
71.915984
70.056915
68.458915
61.686635
58.390498
50.084591
42.766929
33.767819
##ZVALUE=220
86.019635
84.116459
83.326697
73.468685
63.962936
45.987964
37.310719
30.237436
26.824474
24.481416
25.838614
21.249652
22.083521
17.685890
13.222694
11.115670
8.260608
5.779862
4.553795
4.244447
4.702806
3.808737
3.630519
4.125834
4.421473
5.038977
5.050898
5.335808
4.877448
5.521774
6.239414
6.344914
6.262660
7.949471
8.047819
8.172989
7.997751
8.632541
9.001493
8.359551
8.940697
9.473562
9.151697
9.694695
9.422898
8.179545
9.458661
11.724830
9.026527
10.905862
11.278987
12.309551
12.841821
12.110472
13.520718
12.568831
12.368560
12.226701
13.307929
14.084578
13.002753
12.195706
12.068748
10.823607
11.670589
12.155771
11.701584
10.995865
11.356473
12.384653
13.760924
12.621880
14.441609
14.588833
16.040802
16.308427
15.509725
15.250444
14.986992
14.434457
13.936758
11.635423
11.837482
10.181665
9.572506
8.054972
9.216666
8.499622
7.004738
7.458925
8.223653
7.420778
7.499456
7.037520
7.904768
7.368922
6.962419
7.545948
9.236932
10.942817
14.230609
20.287633
29.764771
35.618544
50.405860
60.195923
70.248842
83.616972
93.487501
98.594427
107.890964
114.041567
115.809441
110.842586
108.851790
103.139877
##ZVALUE=225
115.326643
113.365650
135.970712
148.756504
151.910782
132.496953
115.752816
82.828999
67.108870
45.876503
41.323900
39.087534
35.710931
39.673448
38.173795
32.827854
26.843548
20.654798
15.499592
9.993911
7.274747
6.829500
4.422665
5.255938
5.133748
5.060434
4.980564
6.022453
6.063581
5.455613
6.460547
6.830692
6.808639
6.706715
8.627772
8.772612
9.120703
9.793639
9.750724
10.375977
9.340644
9.980798
10.858774
11.335611
10.087490
11.247993
10.305643
11.858940
11.969805
12.444854
12.507439
14.428496
14.260411
14.159679
13.508797
14.248490
15.561581
14.832616
14.700890
15.104413
14.064908
14.356971
14.705658
13.980865
13.839602
14.603734
13.589859
13.731718
13.907552
14.203787
14.933944
15.738606
15.506744
18.071532
17.041564
17.511845
17.990470
16.400814
15.516877
15.532970
13.235807
13.037920
11.728406
11.421442
10.888577
10.289550
11.274815
9.670854
9.750724
8.827448
9.240508
8.242726
7.970929
8.292794
8.019805
8.038878
8.442998
8.050799
8.860826
8.735657
8.419752
9.291768
8.224845
11.834502
14.438629
21.503568
28.655529
38.863420
50.351620
71.756840
82.583427
106.860995
117.845535
142.171979
152.944922
166.375637
##ZVALUE=230
79.943538
84.088445
135.296583
172.489882
210.935473
244.318843
243.228674
231.723785
204.091668
151.233673
115.454793
79.302788
61.615705
58.595538
56.779981
58.647990
60.812831
55.922866
47.868490
39.643645
30.439496
21.392703
11.605620
9.479523
5.935431
5.846620
6.661415
5.950928
5.822778
7.050633
6.617904
6.392598
7.210970
7.650852
8.293986
8.773804
8.695722
10.044575
9.429455
11.336803
10.883808
10.809898
10.834932
11.423826
11.888742
11.461973
11.555552
11.714697
11.772513
12.570620
12.951493
13.765693
15.533566
14.068484
14.479756
16.127825
15.532970
16.093850
15.691519
16.475916
16.225576
15.347600
15.005469
16.155839
14.486909
14.508963
15.106797
13.996959
14.358759
15.809536
17.193556
17.460585
17.720461
18.421412
17.668605
18.536448
19.404888
16.720891
17.306805
16.291738
16.329885
15.160441
14.101863
13.437867
12.437701
11.471510
12.356639
12.078881
11.922717
10.312796
10.859966
11.000633
11.090636
11.161566
10.242462
10.565519
10.057688
9.958744
10.094643
9.208918
9.645820
10.027885
9.628534
10.236502
9.396672
9.891987
10.512471
11.271834
13.860464
16.650558
23.806691
37.544966
48.919916
74.654818
96.406937
126.455426
##ZVALUE=235
24.421811
25.663972
63.948631
106.147528
159.093738
250.219703
307.662487
377.817750
401.681662
377.986431
326.329470
247.612596
188.344717
122.286677
93.737841
79.389811
78.328848
84.381700
87.118745
84.039569
77.827573
67.608953
50.925612
33.716559
23.375750
15.515685
10.986924
8.156896
6.902814
5.722642
7.025599
6.859899
7.151961
7.929802
8.359551
8.169413
8.786917
9.230971
9.121895
9.667873
9.932518
11.062622
11.115670
10.473728
10.960698
10.732412
9.974837
10.850430
12.380481
12.082458
12.580752
12.838840
12.655854
13.264418
12.969971
13.275743
13.633966
13.287663
15.588999
15.224814
14.813542
14.626980
16.001463
14.735460
14.324784
14.112592
14.602542
16.440749
16.424656
16.492605
17.880797
17.747879
18.787980
20.568967
19.389987
20.403862
20.436645
19.093752
17.639995
17.982721
16.343594
16.323924
16.143918
14.597774
14.164448
14.086962
13.849735
13.633966
13.170838
12.428761
13.137460
11.605620
13.145804
12.098551
12.646914
13.356805
12.441874
12.568831
12.248755
12.681484
11.648536
12.113452
11.988878
12.170672
10.846853
11.365414
11.417866
11.274815
12.149811
12.548566
11.536479
11.700988
13.209581
14.769435
19.891858
32.377839
##ZVALUE=240
2.876520
3.358722
10.196567
24.416447
56.133866
121.311545
199.685693
321.252942
425.349474
517.690778
569.897890
555.786490
493.744016
397.720933
305.150747
200.196505
145.910978
112.085938
99.920630
102.224946
116.971731
119.194984
117.206573
99.135637
82.832575
63.208938
47.619939
30.344725
20.548701
13.718605
9.026527
9.069443
8.036494
7.544756
9.629726
9.109974
9.774566
9.511709
8.502603
9.207726
9.547472
9.504557
11.143684
11.102557
11.082888
11.360645
12.396574
11.062622
11.277795
12.256503
12.499690
12.188554
13.211966
13.192892
11.735559
12.298822
12.294650
11.965632
12.966990
13.114810
14.503598
13.029575
12.815595
13.735890
12.915730
14.619827
15.159845
15.510917
15.851855
16.884804
17.261505
19.123554
20.012856
20.244718
21.294951
20.442605
20.747781
21.710992
19.642711
19.583702
20.166636
18.202662
18.946528
16.061664
17.056465
14.929771
15.378594
14.839768
15.353560
15.790462
14.786720
14.242530
13.969541
14.761686
14.195442
14.585853
14.401674
14.150739
14.322996
14.231801
15.106797
13.224483
14.611483
14.220476
13.851523
14.765859
13.671517
13.674498
13.562441
11.969805
13.477802
13.846755
12.785792
12.383461
12.491941
11.875629
##ZVALUE=245
2.390742
2.499819
2.659559
3.298521
4.701614
16.658902
41.939616
105.243921
180.346966
316.729546
421.317816
568.405986
641.080737
654.549599
618.911982
524.537563
412.379503
285.435915
198.987722
131.028891
105.189681
100.936890
116.543770
127.383471
132.234693
122.850537
112.499595
94.805956
73.441863
52.792430
34.941435
23.972988
14.403462
9.605885
8.022785
8.838773
8.656979
8.387566
9.144545
9.534955
9.960532
10.610819
9.798408
10.542870
10.131598
11.026859
10.561943
10.505915
10.473728
10.917783
10.754466
10.349751
11.601448
11.056662
9.955764
10.468960
10.176897
11.776686
11.515617
12.673736
11.666417
11.231899
11.525750
11.049509
12.421608
12.914538
12.545586
12.811422
13.612509
14.377832
15.875697
16.005635
17.136931
18.323660
17.733574
18.094778
17.995834
17.859936
17.604828
17.042756
14.840961
16.264915
15.016794
14.007688
13.710856
14.976859
14.779568
14.673471
12.781620
14.086962
13.079643
13.351440
12.620687
13.076663
12.507439
12.432933
12.736917
13.744831
12.460947
12.041926
12.935996
12.653470
13.243556
13.581514
12.606978
13.137460
12.556911
14.048815
12.699962
12.512803
12.768507
12.469888
13.645887
11.820793
12.359619
12.447834
##ZVALUE=250
2.038479
2.463460
2.129674
2.140999
2.399683
2.287626
3.388524
11.641979
29.662848
81.083775
153.519511
299.013853
424.583554
591.325760
678.930879
758.642554
738.918781
655.719638
556.136966
382.233858
268.554688
157.965422
113.257766
93.128681
105.326772
120.663643
130.376816
138.315558
131.857991
118.919611
99.998713
80.604553
53.154826
38.026571
23.038983
16.099811
10.690689
9.303689
9.373426
8.537769
9.150505
9.324551
9.543896
10.448694
9.945631
10.319948
10.928512
11.007786
11.345744
10.674000
10.465980
11.230707
11.818409
10.759830
11.014938
10.725856
10.981560
10.972619
11.025667
10.771751
10.072589
10.529757
11.169910
10.020733
10.839701
10.823607
11.317730
11.933446
11.897683
12.464523
13.457537
14.056563
14.976859
14.391541
15.274882
16.117692
14.509559
15.958548
13.764501
13.807416
13.355613
13.009906
12.005568
12.290478
12.131929
12.285709
10.868907
12.663603
11.246800
11.316538
11.268854
11.922717
11.694431
11.111498
11.296868
11.158586
12.119412
11.072755
11.229515
10.807514
11.866689
11.404753
11.520982
11.533499
11.625886
11.739731
11.228919
11.305809
10.453463
11.237860
11.769533
11.302829
11.788607
11.073947
10.287762
10.558963
##ZVALUE=255
1.799464
1.889467
1.857877
2.021790
2.087951
2.308488
2.269745
2.130866
2.334714
6.456971
20.068884
62.282681
125.453472
257.503986
386.196971
578.359962
709.298849
838.454962
865.615010
803.164840
688.740611
559.752584
352.711678
226.394534
124.664903
95.214844
90.089440
103.146434
125.663877
138.726830
148.811936
143.735409
122.906566
105.829835
79.444647
58.475733
37.062764
26.481748
15.992522
11.810660
10.443926
10.030866
10.832548
10.899901
10.190606
11.231899
10.635853
10.943413
11.972785
10.922551
11.156797
11.332631
11.489987
10.481477
11.438727
10.989904
11.433959
10.524988
10.245442
10.536909
10.568500
10.753870
10.874867
10.785460
9.400845
10.464787
10.732412
10.990500
11.453629
11.562705
12.429953
12.250543
13.058782
13.776422
13.237596
12.903810
12.919903
12.867451
11.535883
11.974573
11.263490
11.254549
11.455417
10.398626
9.712577
10.232925
10.141730
9.626746
10.613799
10.297894
9.883642
9.213686
9.174943
9.934902
9.421706
9.296536
9.731650
8.791685
9.502769
9.680986
9.831786
10.797977
10.199547
9.690523
10.855794
9.787679
9.810925
9.636879
9.980798
9.468794
10.359883
9.774566
10.245442
9.163618
9.925961
9.494424
##ZVALUE=260
1.671910
1.774430
1.766682
1.785755
1.881719
2.115965
1.848936
2.078414
2.191663
2.359748
2.294779
4.297495
10.340810
42.338967
88.992715
199.477673
329.622626
528.965592
692.700744
889.908671
956.665874
938.102603
845.575929
685.400963
458.688736
314.985514
177.584887
113.951564
80.068707
83.819628
103.556514
125.362873
144.547820
152.151585
147.857666
138.670802
109.880567
88.431835
60.362816
42.826533
27.089715
19.363761
14.054775
13.368726
11.401772
12.208819
12.176633
11.682510
12.152791
11.456609
12.134910
12.030602
12.755990
11.796951
11.802912
11.646748
11.214614
11.673570
11.412501
11.000633
11.300445
10.625720
10.161996
11.155605
10.437965
11.162758
10.567904
10.313988
11.518598
10.851622
11.503696
11.605620
11.531711
11.928678
12.898445
11.892915
11.947751
11.948943
11.451840
11.284947
10.828972
9.735823
9.722710
9.460449
9.126663
8.988976
8.870959
9.228587
9.211898
8.414984
8.732677
8.530617
8.686781
8.288622
8.670688
8.584857
8.462667
9.128451
8.389950
8.408427
8.688569
8.948445
8.729696
9.475946
8.832812
9.588599
8.970499
9.205937
9.392500
9.320974
8.850694
9.025931
9.037852
9.411573
8.671880
9.036660
##ZVALUE=265
1.595616
1.735687
1.717806
1.811981
1.633763
1.607537
1.791716
1.996756
2.000928
1.766682
1.846552
2.053976
2.406836
2.770424
5.946755
25.965571
62.870979
157.094598
276.253819
495.860577
678.308606
898.491740
1008.408666
1015.669703
969.063640
785.575509
621.571541
392.801762
254.008770
154.240727
84.352493
71.702600
84.932446
107.721686
136.134624
149.772763
159.507990
152.840614
132.247806
116.574764
94.097853
63.538551
45.747757
29.199719
20.716786
15.756488
14.172792
14.143586
13.132691
14.278889
13.450980
13.689995
14.010668
14.176965
13.471842
14.496446
12.808442
12.705922
12.709498
12.664795
11.843443
12.851954
11.939406
11.568666
11.472702
11.091828
10.510683
10.756850
11.605620
11.592507
11.819601
11.624694
11.958480
11.660457
11.388659
11.729598
11.665821
10.555983
11.458993
10.850430
9.837747
9.567738
9.289980
9.144545
9.444952
9.217858
8.930564
8.946657
8.824468
8.632541
8.472800
8.589625
8.481741
8.257627
8.376837
8.709431
7.617474
7.857680
7.933974
8.699894
8.269548
8.355975
8.153915
7.875562
8.827448
8.675456
8.298755
9.207726
8.544922
8.345842
9.041429
8.262992
8.763671
8.551478
8.355975
8.418560
##ZVALUE=270
1.410842
1.497865
1.587868
1.441836
1.566410
1.528859
1.614690
1.513958
1.393557
1.676679
1.878738
1.913905
1.951456
2.106428
2.052784
2.289414
3.106594
12.879968
35.306811
111.182928
214.302540
417.466760
618.952513
877.721906
1015.669703
1015.669703
1015.669703
998.931527
786.284804
587.832928
349.479914
218.021870
110.797882
72.034001
66.939592
85.075498
116.052628
139.272809
156.017542
164.095759
158.914924
145.660639
118.266940
95.411539
64.656734
48.061609
33.225417
24.152994
17.862916
16.283989
16.129613
16.042590
16.223788
15.825629
15.520453
15.180707
14.740825
14.443994
14.319420
14.279485
13.741851
13.410449
12.859702
12.794733
12.295842
11.564493
11.074543
11.517406
11.504889
11.512637
11.604428
11.773705
11.963844
12.330413
12.050867
11.451840
10.962486
11.483431
10.568500
10.885596
9.594560
10.345578
9.632707
9.570718
8.889437
8.842945
8.300543
8.580685
8.518696
8.281469
8.509755
8.552670
8.293986
8.128881
8.117557
7.567406
8.240938
8.073449
7.448792
7.576942
8.361936
8.767843
8.193851
7.858872
7.882714
8.079410
8.240938
8.100867
7.881522
8.064508
8.200407
7.789731
8.010864
7.931590
7.951856
7.494688
##ZVALUE=275
1.413822
1.469851
1.289845
1.305938
1.458526
1.480579
1.347661
1.350641
1.517534
1.410842
1.456738
1.416802
1.760721
1.901984
1.724958
2.118945
2.178550
2.258420
2.331734
6.046891
20.063519
74.633956
159.006715
343.899727
532.113910
795.711875
965.851545
1015.669703
1015.669703
1015.669703
927.186608
744.629502
486.781597
308.778882
153.845549
90.515614
59.518814
63.277483
90.198517
111.918449
135.844946
154.883862
164.464712
160.767436
145.884752
117.013454
95.341802
69.883466
51.664710
36.240816
24.585724
20.616651
17.295480
16.109943
15.157461
15.882850
15.078783
14.578700
14.908910
15.194416
14.393926
13.487935
13.187528
12.764931
12.597442
12.248755
11.857748
11.218786
11.560917
10.949969
11.784434
11.792779
11.542439
11.573434
11.603832
11.717677
11.919737
11.025667
11.343956
10.757446
10.347962
9.831786
9.154677
8.569956
8.987784
9.386539
8.991957
9.234548
8.350611
8.375645
7.997751
8.200407
7.563829
7.503629
7.931590
7.824898
7.867813
7.873774
8.175969
7.760525
7.867813
7.722974
7.716417
8.132458
7.585883
7.355809
7.842779
8.038878
7.885695
7.638931
7.933974
8.037686
7.840991
7.599592
7.482767
7.583499
##ZVALUE=280
1.253486
1.159906
1.353621
1.389980
1.387596
1.250505
1.373887
1.512766
1.309514
1.524687
1.554489
1.510978
1.340508
1.670718
1.491904
1.671910
1.594424
2.041459
2.115965
2.027750
2.186894
3.558993
12.129545
53.015947
118.116736
266.901851
425.207615
679.944754
880.192518
1015.669703
1015.669703
1015.669703
1009.733677
847.857594
572.718978
387.048721
202.315450
112.677813
57.247877
48.556924
59.426427
85.783601
109.873414
136.950612
153.351426
160.919428
156.558752
136.810541
118.666887
96.340775
67.604780
49.211979
33.406615
24.885535
19.124746
15.476942
14.881492
14.488697
14.015436
13.765693
13.251901
13.174415
12.763739
12.279749
12.615919
12.168884
11.583567
11.816621
11.599660
12.197495
11.661649
11.764765
11.342764
11.848807
11.010766
11.386871
11.357665
11.104941
10.937452
10.521412
9.748936
9.547472
9.849668
9.615421
9.532571
9.222627
8.862615
8.649826
8.338690
8.288622
8.368492
7.634759
8.032918
7.555485
7.953644
7.865429
7.316470
7.955432
8.228421
7.734895
7.451773
7.441640
7.157922
7.677674
7.551908
7.814765
7.579923
7.722974
7.454753
7.554889
7.549524
7.506609
7.717609
7.236600
7.170439
7.409453
##ZVALUE=285
1.132488
1.280904
1.312494
0.996590
1.130700
1.047850
1.261830
1.208782
1.295805
1.254678
1.587868
1.372695
1.123548
1.476407
1.423955
1.389980
1.625419
1.750588
1.547933
1.873970
1.736879
1.963973
1.928806
2.465844
6.781816
22.339821
74.136853
154.850483
328.350663
502.573848
767.202973
953.179002
1015.669703
1015.669703
1015.669703
973.515511
703.656673
499.393940
274.125934
159.840584
72.127581
41.731596
41.911602
54.980516
81.723928
104.152560
128.964782
144.987702
153.632760
149.832964
134.582520
118.246675
89.714527
68.786740
46.412945
32.067895
21.661520
16.902685
13.170838
12.465715
11.843443
11.480451
11.415482
11.584759
11.117458
11.073947
10.963678
11.246800
11.118650
10.715723
10.898709
10.945797
10.949969
10.841489
11.187792
10.995865
10.635853
10.702610
10.252595
9.719729
9.924769
9.657741
9.356737
9.049773
9.329915
9.117723
8.601546
8.896589
8.718967
8.619428
8.427501
8.509755
7.852912
8.147955
8.005500
7.837415
7.774830
8.415580
7.875562
7.579923
7.758737
7.966757
7.880926
7.356405
7.525682
7.570982
7.654428
7.504821
7.228851
7.479787
7.652640
7.786751
7.195473
7.550716
7.487535
7.025599
##ZVALUE=290
1.132488
1.252890
1.165867
1.103878
0.994802
1.211762
1.321435
1.147985
1.281500
1.262426
1.034737
1.282692
1.178980
1.377463
1.359582
1.328588
1.499653
1.454949
1.526475
1.524687
1.692772
1.647472
1.690984
1.888871
2.198815
2.373457
3.091693
8.497834
38.352609
93.080997
223.222971
375.533700
637.759566
860.932469
1015.669703
1015.669703
1015.669703
1015.669703
831.318498
624.074936
373.620987
224.683881
98.882914
49.270988
28.172731
35.070777
54.332614
70.794821
99.941492
120.104551
139.849782
147.483945
143.004656
131.566525
109.313726
88.555813
60.425997
44.353604
28.192997
20.336509
13.933778
11.486411
10.231733
9.795427
9.392500
9.412766
9.534955
9.556413
9.854436
9.919405
9.729862
10.691881
10.682940
10.721684
10.286570
10.509491
9.919405
9.977818
9.867549
9.362698
9.359717
9.259582
9.327531
8.979440
8.653998
8.614659
8.755922
8.722544
8.668900
8.356571
8.560419
8.351803
7.986426
8.177757
7.709861
7.738471
8.008480
8.143783
7.971525
8.026958
8.114576
7.956624
7.694960
8.284450
8.005500
7.725954
7.801652
7.909536
7.806420
7.772446
8.077621
7.580519
7.586479
7.652640
7.423759
7.040501
##ZVALUE=295
1.025796
1.117587
1.069903
1.146793
1.148582
1.022816
1.050830
1.107454
1.050830
1.243949
1.187921
1.031756
1.228452
1.235604
1.304746
1.437664
1.280904
1.346469
1.267791
1.375675
1.423955
1.377463
1.468658
1.604557
1.753569
2.024770
2.044439
2.169609
2.324581
3.944635
20.715594
56.059957
155.480504
290.628672
546.773672
757.465959
1003.882885
1015.669703
1015.669703
1015.669703
953.810811
748.037696
469.817519
293.264985
131.253600
64.583421
25.834441
21.861792
33.286810
44.956803
69.012642
89.601874
115.608573
130.004883
138.250589
135.755539
120.887756
105.126500
80.039501
61.915517
41.724443
28.431416
16.652942
12.741685
10.008812
8.999705
8.442998
8.827448
8.854866
8.882880
9.383559
9.022951
10.058880
9.371638
9.951591
10.088682
9.831786
9.329915
9.236932
9.167790
9.310842
9.375811
9.009838
9.004474
8.715987
8.817911
8.815527
8.824468
8.526444
8.735657
8.111596
8.190870
7.869601
8.029938
8.179545
8.024573
7.835627
8.118749
7.936954
8.183718
8.010864
7.756948
7.711649
7.977486
7.764697
8.143783
8.340478
7.765889
8.243918
7.620454
7.771850
7.769465
7.767677
7.918477
7.525682
7.140636
##ZVALUE=300
1.022816
1.064539
0.888705
0.952482
1.046658
1.136661
1.006722
1.059771
1.148582
0.985861
1.144409
1.013875
1.161695
1.144409
1.182556
1.231432
1.312494
1.227856
1.144409
1.235604
1.425743
1.337528
1.399517
1.504421
1.568794
1.583695
1.645684
1.739860
1.914501
2.200603
2.321601
2.474785
9.660721
32.432675
108.051896
208.477974
421.563983
630.005002
915.609002
1015.669703
1015.669703
1015.669703
1015.669703
874.483585
588.890910
387.852788
192.855000
102.253556
38.072467
19.034743
19.273758
26.926994
43.224692
58.884621
83.479881
103.919506
122.885704
130.174756
129.978657
120.943785
100.978613
81.479549
58.858991
42.612553
26.044846
18.199682
11.802912
9.811521
7.989407
8.263588
8.632541
8.684993
8.559823
9.145737
8.849502
9.502769
8.845925
8.891821
8.907914
8.530617
9.123683
9.055734
8.820891
8.973479
8.540750
8.484721
8.206964
8.442998
8.410811
8.402467
8.401871
8.477569
8.184910
8.397698
7.960796
8.366704
8.220673
7.985830
7.877946
7.839799
7.999539
8.184910
7.830858
7.729530
8.076429
7.958412
8.383989
8.235574
7.896423
8.088946
8.015633
7.941723
7.652640
7.820725
7.757545
7.778406
##ZVALUE=305
0.997782
0.938773
1.016855
0.992417
1.181960
1.034737
1.035929
1.004934
1.024604
1.016855
0.931621
1.013875
1.002550
1.074672
1.186728
1.179576
1.165867
1.209974
1.240969
1.254678
1.177788
1.222491
1.219511
1.408458
1.247525
1.409650
1.567602
1.591444
1.583695
1.690984
1.896620
1.812577
2.201796
2.316833
4.956722
17.369986
69.491863
149.482489
327.243805
511.146784
788.936019
989.038944
1015.669703
1015.669703
1015.669703
985.756516
707.824826
492.803454
258.501768
142.730474
54.936409
23.669600
14.324784
16.888976
26.880503
38.822889
60.141683
77.229738
99.692941
114.775896
122.684836
123.606920
113.114715
97.880960
74.290633
57.538748
38.075447
26.613474
16.136765
11.734962
8.881688
8.675456
8.449554
8.616447
8.293986
8.195639
8.261800
8.174777
8.238554
8.051991
8.355975
8.329749
8.178949
8.611679
8.242726
8.404851
8.553863
8.221865
8.185506
8.096695
8.253455
7.908940
7.866621
7.843971
7.821918
7.776618
7.755756
7.662773
7.594824
8.122921
7.897615
7.769465
8.219481
7.994771
7.787943
8.093715
7.804632
7.564425
7.916689
7.594824
7.788539
8.020997
7.209778
7.464886
7.189512
7.138848
##ZVALUE=310
1.031756
0.942945
0.923872
1.054406
0.965595
0.870824
0.736713
0.908971
1.088977
0.963807
0.932813
1.084805
0.980496
0.969768
1.082420
1.090765
1.032948
1.228452
1.118779
1.234412
1.088977
1.114607
1.248717
1.277924
1.245737
1.368523
1.271963
1.266599
1.529455
1.356602
1.748800
1.570582
1.720786
1.657605
2.083778
2.229810
2.661943
7.786751
37.915707
90.008974
219.574571
377.736688
648.635030
865.631700
1015.669703
1015.669703
1015.669703
1015.669703
862.939954
648.287535
377.335548
223.092437
93.006492
40.744543
15.289783
11.896491
16.115904
22.636652
35.849810
68.164468
73.061585
88.019967
106.947422
115.242600
115.723610
110.133886
93.233585
77.123642
53.788424
39.283633
24.642944
17.996430
12.408495
9.767413
8.286834
7.870793
7.854700
7.637739
7.525682
7.699728
7.910728
7.966757
8.067489
7.686615
7.806420
7.649660
7.880926
7.771850
8.025765
7.636547
7.713437
7.379651
7.478595
7.592440
7.951856
7.683635
7.688999
7.733703
7.363558
7.668734
7.569790
7.489920
7.834435
8.013844
7.715821
7.969737
7.832646
7.307529
7.613897
7.535815
7.869601
7.320642
7.381439
7.357597
7.340908
7.124543
##ZVALUE=315
0.905991
0.929832
1.000762
0.900626
0.818968
0.925660
1.018643
0.912547
0.997782
1.084805
0.988841
1.061559
1.049638
1.078844
1.143813
0.873804
1.018643
0.844598
1.040697
0.918508
1.089573
0.945926
1.088977
1.097918
1.300573
1.301765
1.347661
1.400709
1.122952
1.337528
1.532435
1.455545
1.410842
1.588464
1.681447
1.837611
1.832843
2.103448
2.373457
3.773570
19.634962
54.417849
154.693723
283.290744
535.416007
754.842758
1005.412936
1015.669703
1015.669703
1015.669703
983.953476
774.943829
484.275818
303.917527
138.134956
62.156916
18.562675
11.005998
10.919571
13.711452
21.427870
31.084418
48.213601
63.704848
85.363984
97.163916
109.130740
110.385418
101.560950
88.499784
68.396926
53.752661
36.819577
25.715828
16.922951
12.083650
8.802414
7.848740
7.253885
7.058978
6.860495
6.899834
7.331967
7.045865
7.178783
7.567406
7.253885
7.407665
7.374883
7.584691
7.315874
7.106662
7.369518
7.214546
7.462502
7.289648
7.495880
7.454753
7.058978
7.218719
6.961823
7.111430
7.231832
7.252693
7.352829
7.325411
7.502437
7.347465
7.088780
7.172823
6.990433
6.673932
6.843805
6.715655
6.693602
6.808639
##ZVALUE=320
0.847578
0.871420
0.883937
1.020432
0.963807
0.916719
0.951886
0.938773
0.775456
0.938773
1.019835
1.035929
0.949502
0.971556
1.066923
0.986457
0.912547
0.876784
0.929832
0.876784
0.993609
0.998974
1.023412
1.059771
1.133680
1.222491
1.261830
1.272559
1.098514
1.128912
1.236796
1.400709
1.458526
1.290441
1.548529
1.578927
1.622438
1.599789
1.782775
2.037883
2.053976
2.489686
8.894801
29.473901
101.489425
203.265548
410.347581
614.453554
899.043679
1015.669703
1015.669703
1015.669703
1015.669703
901.081562
609.836578
395.716429
181.920528
92.736483
31.633973
14.364719
9.359717
9.424686
12.806654
17.836690
28.398633
40.658712
60.198903
75.954795
93.861818
101.985931
102.998614
97.965598
84.120631
69.512725
50.897598
36.589503
22.805929
16.157627
10.667443
8.293986
7.380843
6.849766
6.885529
6.682873
7.005930
6.790757
6.713867
6.866455
6.847978
7.014871
6.657839
6.623864
6.481409
6.575584
6.825924
6.704926
6.478429
6.899834
6.930828
6.793737
7.066727
7.222891
6.792545
6.809831
6.696582
6.909966
6.756783
6.999969
6.743670
6.760955
6.778836
6.389618
6.589890
6.256700
5.993843
6.307960
##ZVALUE=325
0.831485
0.758767
0.847578
0.726581
0.936985
0.865459
0.869632
0.890493
0.891685
0.914931
0.952482
0.778437
0.726581
0.874996
1.028776
1.026988
0.815988
0.943542
1.058578
1.014471
1.037717
0.912547
1.018643
1.048446
1.180768
0.992417
1.093745
1.083612
0.973940
1.183748
1.196861
1.183748
1.259446
1.353621
1.281500
1.313686
1.248717
1.417994
1.663566
1.530647
1.838803
1.821518
1.967549
2.176762
4.885793
17.158985
66.474676
142.221451
318.413377
501.018763
782.266855
979.547501
1015.669703
1015.669703
1015.669703
986.281633
693.911910
478.768945
253.200531
137.573481
47.339797
19.511580
8.778572
8.287430
9.197593
11.235476
17.715693
25.929809
42.455792
57.813525
75.811744
87.489486
96.462965
98.466873
90.737939
79.938769
61.305761
47.170520
30.557513
22.215843
14.411807
10.611415
8.142591
7.069707
6.481409
6.508827
6.541610
6.403923
6.515980
6.624460
6.349683
6.331801
6.301999
6.142855
6.275773
6.331801
6.241798
6.518960
6.457567
6.134510
6.331801
6.288886
6.526709
6.470680
6.442666
6.312728
6.510615
6.544590
6.336570
6.188750
6.462932
6.369948
6.140471
5.967617
6.021857
5.885959
##ZVALUE=330
0.758767
0.864863
0.785589
0.908971
0.677705
0.825524
0.820756
0.773668
0.856519
0.697970
0.873804
0.875592
0.808835
0.976920
0.886917
0.945926
0.842810
0.896454
0.933409
1.017451
0.962615
0.923872
1.029968
0.841618
0.936985
1.031756
0.993609
0.983477
1.022816
1.128912
1.260638
1.073480
1.134872
1.198649
1.213551
1.109838
1.355410
1.429915
1.400709
1.488924
1.511574
1.588464
1.661777
1.730919
1.874566
2.231598
2.661943
8.261800
39.825439
94.605684
230.605602
384.880900
652.929544
863.739848
1015.669703
1015.669703
1015.669703
1015.669703
816.735625
597.530007
334.811807
185.775757
69.782734
29.835701
10.780692
7.919669
7.483959
8.562803
11.635423
16.818643
27.421713
37.970543
54.454803
67.578554
82.498789
89.280605
90.543628
85.081458
72.077513
59.056878
43.114424
31.282902
21.353960
15.527606
10.354519
8.749962
6.849766
6.343722
6.078482
6.065965
6.140471
5.761981
5.877614
5.858541
6.077886
5.939603
6.114841
5.948544
6.044507
5.975962
6.052852
6.045699
6.198883
6.114841
6.281734
5.889535
6.104708
6.074905
5.895495
5.988479
5.950928
5.900860
5.536675
5.781651
5.521774
5.440712
##ZVALUE=335
0.868440
0.832677
0.816584
0.820756
0.754595
0.855923
0.838637
0.818968
0.925660
0.745654
0.725985
0.955462
0.732541
0.801682
0.755787
1.031756
0.888705
0.871420
0.828505
0.764728
0.887513
0.859499
0.904799
0.914931
0.919700
0.951886
1.032948
0.974536
1.008511
0.989437
1.098514
1.203418
1.071692
1.142621
0.892878
1.176000
1.144409
1.166463
1.277924
1.314878
1.325607
1.296997
1.484752
1.383424
1.379848
1.697540
1.684427
1.856685
2.181530
4.094839
20.806789
56.449771
156.734586
280.993581
516.753793
734.806657
1000.745893
1015.669703
1015.669703
1015.669703
932.336450
706.820488
416.714549
251.867771
105.203986
45.754910
14.123917
8.456707
6.917715
7.326603
8.632541
10.714531
16.411543
23.275614
36.913753
48.661828
64.902902
75.510740
84.384680
84.518790
78.501701
69.110990
55.520535
44.450760
30.933619
22.513866
14.325976
10.709763
7.717609
6.994605
6.269813
5.742908
5.974770
5.776882
5.699992
5.574822
5.498528
5.736947
5.680919
5.829930
5.720854
5.916953
5.542636
5.837679
5.906820
5.692840
5.746484
6.040931
5.845428
5.735755
5.737543
5.584955
5.509853
5.505681
5.446672
5.264878
##ZVALUE=340
0.724792
0.817776
0.754595
0.705719
0.897646
0.758767
0.844598
0.882745
0.734925
0.795722
0.682473
0.742674
0.731945
0.749826
0.802875
0.798702
0.928640
0.793934
0.745654
0.786781
0.909567
0.970960
0.944734
0.861883
0.971556
0.864863
1.026988
0.895858
0.927448
1.081824
0.993609
1.043677
1.123548
1.134872
1.074672
1.179576
1.068711
1.123548
1.100898
1.188517
1.211762
1.233816
1.203418
1.355410
1.337528
1.436472
1.424551
1.529455
1.627803
1.885891
1.964569
2.616644
10.869503
34.426451
108.990669
215.698481
440.928936
634.713769
898.276567
1015.669703
1015.669703
1015.669703
990.786552
807.114840
520.872474
326.101780
143.037438
64.745545
18.096566
8.868575
7.058978
6.989837
7.085800
7.832646
10.616779
15.233755
24.011731
33.876896
49.478412
60.578585
72.433949
77.892542
79.142451
75.139999
65.354705
54.719448
41.047931
30.917525
21.058917
14.875531
10.475516
7.961988
6.442666
5.705953
5.802512
5.617738
5.444884
5.149841
5.447865
5.367994
5.334616
5.288720
5.389452
5.599856
5.565882
5.529523
5.275607
5.522966
5.701780
5.606413
5.741715
5.439520
5.449653
5.475879
5.409718
5.151629
##ZVALUE=345
0.650883
0.755787
0.686646
0.765920
0.827909
0.798702
0.818968
0.936985
0.935793
0.869632
0.976920
0.782609
0.920892
0.769496
0.954866
0.782609
0.896454
0.801682
0.779629
0.886917
1.034737
0.980496
1.056790
0.812411
0.891685
0.847578
0.782609
0.783801
0.911951
0.784993
0.902414
0.954866
0.992417
0.986457
1.001954
1.030564
0.953674
1.013875
0.993609
1.142621
1.362562
1.114607
1.218915
1.146793
1.289845
1.146793
1.403689
1.446605
1.469851
1.486540
1.580715
1.778603
1.848936
2.060533
4.770756
18.067956
72.086453
148.983598
320.230722
493.568778
767.085552
968.718529
1015.669703
1015.669703
1015.669703
920.452476
634.129643
419.309735
188.212991
86.574554
26.665926
12.000799
7.606745
7.098913
6.841421
6.716847
7.332563
9.387732
14.595985
20.267963
31.713843
41.943789
55.478811
64.196587
70.735812
73.125958
69.319606
63.446760
51.239729
41.403770
28.772950
21.250844
13.782978
10.157824
7.605553
6.203651
5.579591
5.671978
5.143881
5.306602
5.182624
5.203485
5.136728
5.226731
5.137920
5.226731
5.250573
5.029440
5.366802
5.407929
5.104542
4.878640
5.046725
4.890561
5.081892
4.916787
##ZVALUE=350
0.833869
0.712872
0.705719
0.728965
0.814795
0.681877
0.908971
0.807643
0.890493
0.832677
0.725985
0.854731
0.803471
0.641942
0.792742
0.861883
0.845790
0.812411
0.906587
0.825524
0.859499
0.964999
0.894666
0.875592
0.697970
0.935793
0.822544
0.520945
1.076460
0.988841
0.859499
1.071692
0.824928
0.970960
0.743866
0.930429
0.945926
0.938773
0.987649
1.111627
0.936985
0.999570
1.018643
1.189709
1.271963
1.172423
1.341701
1.204610
1.387596
1.436472
1.434684
1.477599
1.510978
1.613498
1.729727
1.894832
2.939701
8.987784
41.392446
96.427798
236.824751
395.727754
657.662749
855.962634
1015.669703
1015.669703
1015.669703
995.124578
719.513893
485.951900
242.638588
126.241446
43.902993
17.369986
7.766485
6.724596
6.109476
6.115437
6.024837
6.666780
8.995533
12.253523
19.210577
26.434660
37.483573
46.969652
58.817863
64.536929
66.978931
64.722896
57.739615
49.932599
37.679672
29.289722
19.899607
14.631748
10.019541
7.975698
6.324649
5.493760
5.106926
5.145669
5.049706
5.030632
4.882812
4.839897
5.132556
5.266666
4.943609
5.131960
4.979968
4.816651
5.074739
4.939437
4.943609
4.757643
##ZVALUE=355
0.851750
0.831485
0.823736
0.696778
0.771880
0.677705
0.670552
0.826716
0.660419
0.876784
0.749826
0.761747
0.783801
0.818968
0.757575
0.846982
0.700951
0.816584
0.752807
0.703931
0.849962
0.763535
0.820756
0.814795
1.031756
0.999570
0.897646
0.887513
0.891685
0.848770
0.984669
0.964999
1.001954
0.964999
0.892878
0.816584
0.941753
1.029968
0.957847
0.976920
0.983477
1.006722
1.036525
1.157522
1.088977
1.290441
1.210570
1.135468
1.276731
1.201630
1.151562
1.357794
1.398921
1.418591
1.487732
1.622438
1.681447
1.879930
2.157688
4.302859
22.523403
62.307715
167.740583
294.011831
523.898602
726.739764
982.296467
1015.669703
1015.669703
1015.669703
807.366967
595.527887
332.891941
177.082419
60.788989
25.346875
9.043813
6.631613
6.243587
5.900860
5.407929
5.636811
6.374717
7.658601
11.293888
15.491843
23.967624
32.018423
42.883754
50.867796
58.357716
60.440898
58.893561
54.692626
45.858622
37.755966
28.142929
21.287799
14.662743
10.828972
7.859468
6.143451
5.303621
5.239844
5.129576
4.750490
4.807711
4.770756
4.954934
4.698634
4.801750
4.696846
4.638433
4.887581
4.568696
4.536510
##ZVALUE=360
0.881553
0.841618
0.708699
0.834465
0.761747
0.759959
0.815988
0.619888
0.724792
0.817776
0.685453
0.944734
0.784993
0.679493
0.799894
0.745654
0.818968
0.856519
0.776649
0.854731
0.926852
0.872612
0.948906
0.855923
0.767708
0.829697
0.899434
0.954866
0.997782
1.069903
0.871420
0.826716
1.133680
0.930429
0.993609
0.902414
0.978708
0.866652
1.112819
1.156926
1.068711
1.087785
1.072884
1.150966
0.976920
1.054406
0.965595
0.994802
1.263618
1.179576
1.170635
1.235604
1.280904
1.265407
1.576543
1.346469
1.533628
1.664758
1.800656
1.934767
2.205968
2.760887
11.257529
32.633543
103.653669
205.159783
408.739448
602.921844
883.482695
1015.669703
1015.669703
1015.669703
935.762525
724.437833
432.525873
252.214670
92.845559
36.326647
11.206865
6.943941
5.937815
5.729795
5.430579
5.100965
5.232692
5.386472
6.774664
8.820891
13.295412
18.800497
27.891994
35.498738
45.358539
51.256418
54.090619
54.793954
51.888824
46.054721
36.885738
29.896498
21.339655
16.025901
10.990500
7.977486
6.323457
5.545616
4.923940
4.651546
4.580617
4.774928
4.261732
4.385710
4.519820
4.293919
4.109740
4.286766
##ZVALUE=365
0.679493
0.607967
0.880957
0.862479
0.850558
0.911951
0.798702
0.784993
0.809431
0.809431
0.791550
0.841618
0.722408
0.827909
0.707507
0.781417
0.852942
0.802875
0.884533
0.810623
0.864863
0.866652
0.885725
0.780821
0.865459
0.867844
0.825524
0.913739
0.867844
0.857711
0.774860
0.850558
0.952482
0.856519
0.797510
0.879765
0.934601
0.984669
0.950694
0.901818
0.875592
0.998974
1.006722
1.100898
0.861883
0.955462
0.941753
0.968575
1.107454
1.051426
1.307726
1.080632
1.272559
1.225471
1.383424
1.555681
1.497865
1.538992
1.560450
1.663566
1.912713
1.908541
2.175570
2.342463
5.061626
16.209483
64.092875
139.831901
321.206450
505.312681
769.089460
943.177938
1015.669703
1015.669703
1004.656553
840.775967
529.208779
318.678617
129.379630
57.593584
17.950535
8.209944
5.859733
5.419850
5.100965
4.927516
4.872680
4.815459
4.988909
5.461574
7.587671
10.867715
16.845465
22.465587
30.721426
37.723780
45.193434
49.306750
50.930977
48.849583
43.999553
37.811995
29.080510
23.437738
15.903711
12.030602
8.167624
6.219745
5.511642
4.908442
4.692674
4.368424
4.209876
4.174709
4.204512
3.998876
##ZVALUE=370
0.690818
0.748634
0.696778
0.788569
0.639558
0.776649
0.761747
0.755787
0.775456
0.724792
0.669956
0.790954
0.701547
0.793934
0.906587
0.781417
0.879765
0.820756
0.851750
0.808835
0.712872
0.680685
0.792742
0.866652
0.738502
0.834465
0.755787
0.888705
1.006722
0.964999
0.982881
0.919700
0.914931
0.758767
0.997782
0.833869
0.938773
0.929832
1.078844
1.040697
0.983477
0.976920
1.034737
0.793934
0.905991
1.141429
0.914931
0.994802
1.057982
1.099706
1.136661
1.110435
1.158714
1.133680
1.109838
1.176596
1.184940
1.189709
1.185536
1.367927
1.507998
1.606941
1.658797
1.865625
1.940727
2.267957
3.111959
9.042621
43.416619
106.011629
250.812769
402.444005
649.729967
848.546028
1015.669703
1015.669703
1015.669703
907.523632
617.476702
404.688716
187.471509
87.171793
28.455853
12.049675
5.731583
5.333424
4.960895
4.578829
4.389882
4.145503
4.279613
4.271865
5.034804
6.412864
9.514689
12.849569
19.126534
25.684834
34.711957
40.397644
45.299530
47.601461
46.660900
44.004917
36.499500
28.156638
22.463799
16.106963
12.569427
8.733869
6.992817
5.308986
4.757643
4.254580
4.086494
3.748536
##ZVALUE=375
0.750422
0.703931
0.627637
0.704527
0.643730
0.631809
0.576973
0.754595
0.647902
0.836849
0.729561
0.821948
0.843406
0.759959
0.685453
0.701547
0.703931
0.865459
0.732541
0.945926
0.811815
0.820756
0.770688
0.811815
0.780821
0.745654
0.858903
0.847578
0.856519
0.782609
0.766516
0.909567
0.900626
0.865459
0.875592
0.977516
0.904799
0.868440
0.759959
0.946522
0.930429
0.926852
0.868440
1.045465
1.008511
0.925660
1.060963
1.077652
1.041889
1.020432
1.046658
1.018643
0.943542
0.822544
1.106858
1.046658
1.137853
1.125932
1.126528
1.224875
1.109838
1.232624
1.433492
1.545548
1.575947
1.603961
1.755953
2.042651
2.478957
5.076528
23.708940
64.249635
182.840824
323.908925
557.586551
762.842894
1000.039577
1015.669703
1015.669703
1012.526751
766.100883
542.785525
291.418433
153.920650
52.951574
21.325946
7.302761
4.969835
4.760623
4.499555
4.133582
4.201531
4.102588
3.997684
4.099607
4.341602
5.545616
7.329583
10.788441
15.530586
22.574663
28.889775
37.596822
41.454434
44.639707
44.803619
41.844845
37.690997
31.002760
25.754571
18.396974
14.168620
9.747744
7.596612
5.147457
4.605651
##ZVALUE=380
0.729561
0.707507
0.657439
0.786781
0.621676
0.692606
0.866652
0.786781
0.773668
0.738502
0.664592
0.900626
0.810623
0.730753
0.763535
0.766516
0.670552
0.770688
0.558496
0.906587
0.784993
0.746846
0.761747
0.750422
0.714660
0.753999
0.625849
0.714660
0.833869
0.759959
0.857711
0.756979
0.748634
0.877976
0.896454
0.923872
0.763535
0.832677
0.789762
0.879765
0.970960
0.962615
0.912547
0.827909
0.837445
0.921488
1.021624
0.809431
1.017451
0.732541
1.081824
0.914931
0.979900
1.089573
1.027584
1.041889
0.993609
0.958443
1.016855
1.028776
1.116991
1.061559
1.257658
1.137853
1.293421
1.359582
1.493692
1.552701
1.618862
1.933575
2.069473
3.262758
13.874769
41.103959
125.287771
239.440799
470.273495
675.625801
942.130685
1015.669703
1015.669703
1015.669703
896.112919
685.184598
396.897793
223.444700
81.480742
34.003854
10.057688
5.664825
4.636645
4.605651
4.331470
4.223585
4.003644
3.928542
3.617406
3.921986
4.062653
4.928708
6.803870
9.582639
14.421940
19.251704
26.601553
32.404661
38.553476
42.139888
42.582750
40.475726
36.921501
31.071901
25.642514
18.436909
14.280677
10.082722
##ZVALUE=385
0.596642
0.583529
0.649691
0.621676
0.333786
0.716448
0.704527
0.779629
0.724792
0.728965
0.667572
0.631809
0.808835
0.668764
0.579953
0.699759
0.591874
0.732541
0.750422
0.662804
0.658631
0.780821
0.742674
0.761747
0.652671
0.759959
0.481606
0.883937
0.761747
0.766516
0.860691
0.751615
0.796914
0.794530
0.864863
0.763535
0.907779
0.937581
1.054406
0.959635
0.860691
0.877976
0.987649
0.973940
0.868440
0.819564
0.948906
0.824928
0.824928
1.010895
0.942945
1.160502
1.039505
0.840425
0.930429
0.958443
0.927448
1.098514
1.021624
1.115799
1.047850
1.087785
1.040697
1.121759
1.119971
1.032948
1.268983
1.430511
1.634955
1.425743
1.654625
1.813769
2.220869
2.171993
6.211996
21.336675
77.677965
166.417956
357.483625
548.668504
827.329755
994.728804
1015.669703
1015.669703
1010.491848
845.750570
543.660522
338.683724
140.610933
61.936975
18.479824
7.392764
4.768968
4.396439
4.398823
4.224777
3.869534
3.932714
3.936887
3.734827
3.894567
3.865957
4.370809
5.709529
8.255839
11.440516
17.231703
23.523569
28.209686
33.231974
38.177967
39.615631
38.506985
36.721826
30.951500
24.590492
##ZVALUE=390
0.749826
0.680685
0.495911
0.574589
0.625849
0.714660
0.638962
0.687838
0.627637
0.790954
0.641942
0.726581
0.616908
0.643730
0.726581
0.663996
0.658631
0.793934
0.715852
0.645518
0.864863
0.793934
0.667572
0.753999
0.850558
0.558496
0.801682
0.837445
0.773668
0.855923
0.873804
0.766516
0.703931
0.795722
0.985861
0.832677
0.861883
0.887513
0.923872
0.924468
0.849962
0.950694
0.988841
0.875592
1.058578
0.954866
0.870824
0.960827
0.870824
0.890493
0.826716
0.990629
1.136661
0.966787
1.029968
0.843406
1.040697
1.132488
0.974536
0.913739
1.039505
1.041889
1.036525
1.270771
1.197457
1.182556
1.122952
1.453757
1.458526
1.395941
1.615882
1.681447
1.813769
1.811981
1.923442
1.983643
3.444552
12.101531
54.233670
124.863982
295.375586
463.179946
719.111562
928.596854
1015.669703
1015.669703
1015.669703
1014.733911
739.202499
494.195819
237.689614
110.103488
32.676458
11.765957
5.174875
4.178882
4.303455
4.227757
4.473925
4.063845
4.167557
3.925562
3.737807
3.767610
3.768802
4.038811
4.980564
7.317662
9.636879
14.177561
18.338561
24.456978
28.987527
34.368634
36.729574
37.322640
##ZVALUE=395
0.654459
0.786781
0.668764
0.708699
0.707507
0.629425
0.711679
0.754595
0.759959
0.705719
0.728965
0.771880
0.790954
0.760555
0.741482
0.712872
0.828505
0.704527
0.735521
0.887513
0.699759
0.650883
0.667572
0.729561
0.778437
0.734925
0.732541
0.662804
0.858903
0.751615
0.775456
0.957847
0.902414
0.862479
0.795722
1.020432
0.956655
0.829697
0.662804
0.974536
0.915527
0.971556
0.953674
0.943542
0.972748
1.024604
0.995994
1.058578
0.961423
1.143813
1.044869
1.087785
1.034737
0.989437
0.949502
0.976920
0.947714
0.909567
1.003742
0.969768
1.034737
1.123548
1.127720
1.236796
1.147985
1.125932
1.236796
1.320839
1.374483
1.494884
1.553893
1.631975
1.647472
1.724958
1.817942
1.834631
1.801848
1.761913
2.609491
6.858706
35.178661
85.249543
204.873681
346.301794
598.855019
809.339881
1015.669703
1015.669703
1015.669703
1015.669703
902.526975
646.872520
334.922671
165.787935
52.550435
20.469427
6.627440
4.648566
4.620552
4.478693
4.416704
4.442930
4.294515
4.371405
4.020929
3.704429
3.513694
3.506541
3.728867
4.490614
5.921721
7.859468
11.763573
15.892982
21.667480
28.062463
##ZVALUE=400
0.854731
0.856519
0.701547
0.844598
0.615716
0.581741
0.559688
0.513792
0.541806
0.603795
0.735521
0.559688
0.642538
0.746846
0.748634
0.662804
0.742674
0.666976
0.641942
0.732541
0.624657
0.697970
0.655651
0.736713
0.757575
0.743866
0.673532
0.672936
0.791550
0.781417
0.861883
0.685453
0.868440
0.896454
0.925660
0.951886
0.963807
0.903606
1.076460
1.009703
0.950694
1.018643
1.008511
0.957847
1.168847
0.959635
0.982881
1.091957
1.011491
0.972748
0.958443
1.092553
0.905991
0.898838
0.868440
0.995994
1.024604
1.029968
0.954866
1.122952
0.993609
1.081824
1.041889
1.008511
1.122952
1.202822
1.266599
1.308918
1.436472
1.417994
1.404881
1.579523
1.718998
1.619458
1.713634
1.502633
1.666546
1.606941
1.639724
1.917481
2.146959
3.668666
17.536879
48.062801
137.018561
253.853798
479.941964
679.006577
962.098837
1015.669703
1015.669703
1015.669703
973.740816
736.286640
436.114669
248.871446
94.607472
37.838817
10.632873
5.442500
4.429817
4.479885
4.360676
4.535913
4.222989
4.335642
4.197955
4.039407
3.744960
3.734827
3.515482
3.814697
3.926754
5.230904
6.915927
10.271668
##END
