##TITLE=8-2
##FORMAT=SPECTACLE-ASCII V-1.2
##DATA TYPE=ULTRAVIOLET SPECTRUM
##SECOND TYPE=ULTRAVIOLET SPECTRUM
##DATE=04/09/18
##TIME=12:12:23
##SPECTROMETER/DATA SYSTEM=SPECTACLE
##XUNITS=NM EM
##YUNITS=ENERGY
##YFACTOR=1
##FIRSTX=220
##LASTX=450
##NPOINTS=116
##3DDATA=Equidistant
##ZUNITS=NM EX
##FIRSTZ=210
##LASTZ=400
##ZPOINTS=39
##XYDATA=(Y..Y)
##ZVALUE=210
15.969872
16.613603
14.798641
11.226535
9.957552
9.811521
10.117888
8.259416
7.209778
5.695820
4.769564
3.684759
3.079772
4.016757
3.097653
3.339648
3.969669
3.789663
4.191995
3.929734
4.205704
4.070997
3.959537
3.833771
4.564524
4.452467
4.791617
4.873872
5.791783
5.563498
5.525947
6.154776
6.301999
6.327629
6.345510
7.211566
7.041693
7.224679
7.242560
7.836819
7.886887
8.417964
8.141994
8.092523
7.371902
7.977486
7.835627
8.578897
8.773804
8.677840
8.659959
8.620620
8.473992
8.970499
8.947849
9.279847
8.254647
8.790493
9.037852
8.433461
8.310676
8.444786
8.720756
9.088516
8.466840
8.616447
8.951426
9.754896
10.343790
11.870861
13.311505
14.182925
14.790893
16.915798
17.887950
19.781590
18.900633
17.424822
16.304851
17.281771
15.193820
14.189482
14.631748
12.594461
11.225939
10.794997
8.381605
8.735657
8.547902
9.724498
12.043715
13.211966
18.214583
20.919442
25.537610
34.344792
35.859942
43.969750
46.017766
51.866770
56.352615
53.913593
55.192709
53.728819
53.735971
50.634742
47.468543
43.801665
37.068725
32.551885
27.338862
23.833513
19.849539
16.559958
15.405416
14.844537
##ZVALUE=215
42.033792
41.644573
34.537911
26.976466
22.414923
18.149614
16.960502
15.958548
17.416477
14.090538
13.350844
9.454489
7.231832
5.833507
4.656911
4.269481
3.845692
3.750920
4.148483
4.460812
4.054904
5.141497
4.261732
4.213452
4.762411
4.990697
5.171895
4.814863
5.527735
5.841851
6.162524
6.440878
6.522536
6.874800
6.989837
6.990433
8.573532
8.948445
8.576512
8.388758
7.668734
8.539557
8.889437
10.413527
9.439588
9.103417
9.480715
9.826422
10.248423
10.374784
9.791851
10.054708
10.959506
11.238456
10.705590
9.965897
10.009408
11.232495
10.609627
10.131598
10.029674
10.198951
9.874701
9.754896
10.453463
10.880828
10.015965
9.643435
10.078549
11.454821
12.272596
13.639927
15.545487
17.146468
16.369820
17.046928
17.465949
17.610788
16.671419
15.789866
16.093850
13.943911
12.598634
11.066794
10.208488
9.242892
9.082556
7.621646
7.736683
6.943941
7.843971
7.628798
7.740855
8.872747
11.262894
13.809800
19.410849
22.385716
29.301643
37.211776
45.258999
53.331852
58.289766
68.677664
74.295998
79.223514
82.046986
78.576803
80.112815
75.592995
73.020458
69.139600
65.089464
51.729679
48.080683
40.377975
##ZVALUE=220
88.822842
87.698698
79.986453
75.676441
64.037442
47.435760
40.822625
27.781725
26.009679
25.083423
25.149584
25.418997
22.075772
19.644499
14.509559
10.658503
7.907748
6.279945
4.672408
4.282594
3.867745
4.334450
4.764795
5.215406
4.388690
4.838705
5.431771
5.478859
6.272793
5.948544
6.401539
6.835461
7.907748
8.428693
8.702874
8.152723
8.858442
9.121895
9.477735
9.232759
9.941459
9.435415
10.412931
10.471940
9.846687
10.044575
10.598898
10.239482
12.112856
11.842847
12.622476
11.446476
12.774467
12.113452
13.510585
12.274981
12.912750
11.960864
13.520718
12.554526
12.394786
13.881922
12.297630
11.593699
12.990832
12.681484
12.080669
12.386441
13.112426
14.169812
15.233755
15.123487
17.474890
16.937852
18.671751
18.339753
18.072724
17.116666
15.795827
16.585588
14.901757
14.080405
12.990832
12.393594
10.444522
9.437799
9.340644
7.998943
9.083748
8.248687
7.349849
8.566976
7.651448
8.431673
6.800890
7.288456
7.916689
8.606911
9.268522
12.415648
16.807914
22.565722
27.790666
37.444830
51.506758
61.564445
74.114799
88.628531
94.634891
108.564496
116.040707
119.194984
123.477578
123.623610
117.243528
114.181638
##ZVALUE=225
104.003549
115.193725
139.595866
145.670772
146.370530
135.643482
119.729638
89.432597
64.546466
47.138929
42.903423
36.096573
38.242936
36.622882
35.488605
33.851862
28.533936
21.170974
16.569495
10.286570
7.344484
6.588697
4.671812
5.210638
5.063415
4.829764
5.893707
6.305575
5.986691
6.591678
7.349849
6.887913
8.777976
8.622408
8.998513
8.905530
10.740757
10.654926
9.986758
11.026859
11.187792
11.937618
11.667609
11.941791
11.214614
12.119412
11.856556
11.419654
14.282465
13.279915
12.181997
14.252663
15.834570
14.871955
14.977455
15.805960
15.917420
15.797615
15.786886
15.869737
14.933944
16.175508
15.852451
14.282465
13.495684
13.978481
14.952421
13.858676
14.116764
15.734434
15.258789
18.192530
18.105507
19.130707
16.388893
18.263459
18.577576
19.187927
16.278625
15.215874
15.648603
14.446974
13.496876
12.022853
11.721849
10.441542
11.304617
10.251999
9.635687
9.847879
9.373426
9.694695
9.216666
8.887649
9.569526
8.062720
9.710789
8.267760
8.360744
8.157492
8.817911
8.476973
9.256601
12.306571
14.421940
20.994544
28.114915
42.040944
56.802630
74.154735
90.936422
108.293891
132.083893
151.730776
166.502595
180.486441
##ZVALUE=230
79.102516
77.930689
132.116675
174.507499
209.200978
249.948502
250.552893
236.916542
204.949975
162.356496
120.081902
81.625581
63.943863
57.242513
58.254600
62.618852
60.289502
55.939555
50.271749
37.635565
29.961467
19.094944
12.875795
9.195805
7.438660
7.167459
5.701780
6.027818
6.169677
6.594658
6.829500
8.469820
8.783937
8.902550
8.689761
8.690953
10.554790
10.619760
10.430813
10.842681
11.259913
11.806488
12.300611
11.774898
12.504458
12.402534
13.550520
13.147593
13.036728
13.383627
14.311671
13.760924
14.313459
16.101599
15.329719
15.935898
16.451478
16.522408
16.831756
17.145872
15.924573
15.501976
15.911460
17.369986
16.218424
16.018748
16.938448
16.222000
16.028881
17.929673
16.691685
18.321872
18.057823
18.637776
19.658804
20.215511
18.924475
20.392537
18.701553
17.503500
16.717911
15.573502
14.987588
13.444424
13.925433
13.702512
12.091994
13.732910
12.344718
10.758638
10.983944
11.020899
10.707974
10.628700
10.999441
10.752678
11.115670
11.477470
9.789467
10.359883
11.249781
10.120869
10.138750
9.471774
10.791421
9.634495
10.466576
10.921955
12.109876
17.454624
22.861958
38.134456
49.793720
76.970458
100.502968
133.271813
##ZVALUE=235
23.012757
23.333430
58.831573
103.543997
155.195594
245.214701
307.130814
380.259752
408.102870
390.955806
345.430970
258.807540
199.044943
128.447413
100.319982
78.411698
78.223944
85.917711
86.855888
86.580515
79.965591
69.690943
53.339601
40.933490
24.674535
16.800761
10.678768
8.045435
6.819963
8.192658
7.491708
6.541610
7.996559
8.159876
8.512735
9.040833
10.060668
9.763837
10.342598
10.025501
10.142922
11.741519
10.149479
11.343956
12.188554
12.403727
12.087822
12.506843
13.599992
12.915730
13.123751
13.137460
14.131665
12.922883
14.209747
16.503930
15.264750
14.588833
14.713407
14.936924
16.114712
15.585423
16.920567
15.943646
15.693903
16.303658
16.552806
16.611814
17.325878
18.028617
18.323660
21.104813
21.751523
21.361709
22.322536
21.151900
21.556616
23.862720
20.510554
21.170974
18.112659
16.965866
17.660856
17.280579
15.400648
15.261769
14.443994
15.575886
13.233423
13.217926
13.246536
13.893843
13.841987
12.605786
10.831952
11.629462
12.419820
12.516975
11.640787
14.310479
12.369752
13.015866
12.095571
12.246966
12.628436
13.040900
11.545420
12.315512
12.286901
12.403727
11.926889
13.018847
12.197495
15.282631
19.566417
29.153824
##ZVALUE=240
3.056526
3.618598
8.966923
24.094582
49.458742
111.354589
189.545751
313.993692
417.264700
520.260930
571.615696
565.287471
509.780645
411.677957
324.761868
203.895569
144.739747
106.257796
95.866919
104.857683
113.444924
122.765899
113.302469
100.664496
87.183714
64.015985
47.567487
33.010840
20.441413
15.254617
9.197593
9.603500
8.481741
8.959770
9.951591
8.408427
9.938478
9.594560
10.330677
9.878874
10.680556
11.143684
10.821819
11.737943
10.851622
11.782646
11.788607
11.570454
12.712479
13.383627
12.078881
12.690425
12.527704
12.937784
13.665557
13.842583
13.174415
13.903975
13.246536
13.093948
15.390515
14.715791
14.638901
14.881492
14.883876
17.095804
15.818477
16.367435
17.736554
16.987920
18.451810
20.743608
21.559596
22.683740
22.782683
22.555590
22.242665
19.814968
21.608472
20.778775
19.817948
18.612742
18.150806
16.938448
17.565489
15.242696
16.749501
18.822551
15.903711
16.543865
14.808774
15.378594
13.486743
14.196634
15.579462
14.813542
13.190508
14.690757
13.908744
14.137626
14.686584
14.344454
14.864802
14.580488
15.740991
14.785528
12.874603
14.525652
13.655424
14.489889
13.129711
12.930632
13.403893
12.834668
13.790727
14.319420
##ZVALUE=245
2.262592
2.418756
2.843738
2.990961
4.094839
17.286539
39.873719
100.060701
181.519985
307.062864
435.973406
563.308001
640.384555
683.755875
630.984902
533.349514
441.161990
297.274590
204.730630
131.380558
105.397701
103.084445
109.068751
126.235485
129.361749
122.718811
117.659569
91.117620
73.003769
53.832531
35.067797
23.743510
14.355779
10.665655
8.836985
9.057522
8.558631
8.779764
10.556579
9.221435
10.589957
10.023713
10.416508
11.366606
10.633469
10.885000
10.716915
11.592507
11.709929
12.050867
11.724830
10.939837
11.467934
11.569858
12.964606
11.617541
12.188554
11.728406
12.080669
11.717677
13.144612
12.249947
12.729764
12.242794
12.286901
13.343692
13.144612
14.038682
14.654994
15.330911
16.923547
15.924573
19.664764
17.460585
18.073916
20.641685
20.002723
18.993616
17.701983
16.877651
17.550588
16.633868
14.939904
15.885830
15.790462
13.430715
14.340878
14.711618
12.959838
14.161468
13.944507
13.424754
13.961792
13.441443
12.349486
14.062524
13.374686
12.994409
14.345646
13.480783
13.301969
13.705492
14.098883
13.877749
13.463497
13.690591
12.457967
13.226867
13.314486
12.786984
13.842583
12.852550
12.506843
13.595819
12.751818
11.817813
##ZVALUE=250
2.228618
2.322793
2.210736
2.548695
2.476573
2.622604
2.932549
11.034608
28.722882
79.340935
151.983500
292.155743
429.419875
591.898561
687.171817
764.560699
748.831034
677.070618
566.976666
395.889878
274.212956
166.541934
111.957788
94.420910
102.530718
118.222833
136.438608
140.440464
133.917928
123.633742
101.847649
81.073642
54.250956
38.189888
23.026466
14.938712
11.445880
9.847879
9.193420
8.888841
9.904504
10.246634
9.565949
9.975433
10.827780
11.188984
11.564493
11.207461
10.308623
11.967421
11.188984
11.910796
10.949969
11.153817
10.955930
11.337996
11.873841
12.679696
11.434555
11.282563
11.257529
11.230707
11.520982
12.312531
11.742711
11.203885
11.642575
12.007952
13.050437
12.267828
13.987422
14.306903
14.974475
16.215444
16.528964
15.969872
15.296936
15.398860
14.180541
13.779998
15.179515
13.487935
12.867451
13.172626
13.185740
13.072491
12.020469
12.173653
11.897683
12.480617
11.301637
12.649894
12.547970
12.038946
12.121797
11.044741
11.208653
10.830760
11.970997
11.147857
10.815859
11.678934
11.551976
11.591911
11.806488
11.228919
11.733770
11.541843
12.057424
11.349916
11.756420
11.265874
11.475682
10.507703
11.578798
11.580586
##ZVALUE=255
1.743436
2.098680
2.040863
2.306700
2.015829
2.324581
2.140999
2.333522
2.544522
5.898476
17.023683
58.695674
119.130611
251.534581
380.652547
575.964451
706.636906
831.726789
868.422985
803.234577
705.175996
526.194572
367.881656
213.418603
135.410428
94.075799
89.335442
99.197626
124.294758
136.974454
146.011710
141.943693
128.222704
109.195709
79.221725
58.534741
38.797855
26.643872
15.980601
12.813807
10.225773
10.833740
11.130571
10.703802
11.640787
10.201931
10.783672
10.959506
12.083650
11.654496
12.285709
12.370944
11.520982
12.935996
11.790991
11.363626
11.749864
11.295676
11.161566
11.504889
10.675788
10.981560
10.648966
11.202693
11.227727
11.453629
10.544658
11.209846
10.904670
11.885762
12.492537
12.493730
13.433695
14.050603
13.947487
14.281869
13.781786
13.292432
12.750626
11.548996
12.744665
11.751652
11.978745
10.694861
10.755658
10.773540
10.683537
9.857416
9.663701
10.663867
9.847879
10.038614
9.957552
9.745955
9.414554
9.982586
10.431409
9.619594
9.743571
9.514689
10.280609
10.751486
9.805560
10.377765
10.219812
10.776520
10.955930
10.006428
9.498596
10.730624
9.896755
10.100603
10.475516
10.098815
11.083484
9.456873
##ZVALUE=260
1.842976
1.779795
1.810789
1.667738
1.812577
2.056956
2.048612
1.977682
2.155900
2.228618
2.395511
3.898740
9.770989
39.201975
83.852410
190.818906
314.028859
517.617464
672.541857
869.852901
951.291919
947.670937
854.994655
664.214492
492.320657
295.699835
193.388462
124.160647
82.263947
83.889961
104.804635
122.606754
144.847631
151.138902
150.656700
137.425661
110.510588
88.763833
61.852932
44.309497
27.842522
20.469427
14.181733
12.517571
11.920929
12.525916
12.223721
12.699962
13.635755
13.111830
13.191700
12.830496
13.676882
13.470650
12.641549
12.226701
12.391806
12.586713
12.217760
12.571812
11.737943
11.606812
11.849999
11.842847
11.520982
10.874867
11.052489
10.951757
11.142492
11.561513
11.766553
12.105703
11.784434
12.099743
13.211966
12.490749
12.262464
12.272000
12.206435
11.348724
10.956526
10.564923
10.297894
10.804534
10.322928
10.317564
9.406805
9.308457
9.771585
9.363890
9.312630
9.638667
8.995533
9.093881
8.769631
8.049607
8.242726
8.482933
9.178519
8.983612
9.539723
9.325743
9.318590
8.548498
9.237528
9.242892
9.637475
9.247661
9.639859
9.425879
9.287000
9.228587
9.197593
8.222461
9.371638
9.858608
##ZVALUE=265
1.500845
1.588464
1.617670
1.403689
1.765490
1.953840
1.690984
2.000928
1.785755
1.851916
2.046824
2.298951
2.259612
2.801418
5.005598
24.357438
57.483912
147.072673
260.370970
486.408472
666.890740
880.644917
1005.131006
1015.669703
967.145562
833.811760
617.743731
438.352823
245.035887
150.897503
87.116957
70.852637
86.166859
107.792616
139.877796
153.430700
158.156753
153.861642
137.212873
119.271874
88.669658
67.820549
44.506788
30.817986
21.858811
17.041564
15.287995
14.479756
14.505982
14.829636
14.922619
14.835596
15.015602
14.639497
14.358759
14.576912
14.017820
14.011860
12.343526
13.300776
12.837648
11.936426
12.622476
12.154579
11.602640
11.662841
11.411905
11.742711
11.508465
12.279749
11.679530
12.276769
12.875795
12.765527
11.914968
12.174845
12.429953
11.616945
11.306405
10.852814
11.042953
11.087656
9.885430
9.824634
9.754896
9.579659
9.597540
9.077787
8.914471
8.815527
8.284450
8.516908
8.575916
8.975863
8.621812
8.705854
8.055568
8.222461
8.167624
8.733869
8.818507
8.845925
8.653998
8.183718
8.747578
8.824468
9.154677
8.675456
9.169579
8.378625
8.580685
8.751750
8.755922
8.464456
8.154511
8.292794
##ZVALUE=270
1.385808
1.371503
1.595616
1.558661
1.581907
1.651645
1.807809
1.347661
1.736879
1.760721
1.950860
1.799464
2.116561
2.053976
2.165437
2.821684
3.042817
12.067556
33.955574
107.437968
203.700662
407.166481
601.493716
863.014460
1012.312770
1015.669703
1015.669703
1002.112031
797.140002
606.165528
362.207890
227.395892
112.105608
72.606802
67.696571
85.572600
114.449859
137.665868
158.772469
163.174868
159.633756
144.148469
120.262504
96.776485
68.798661
49.868822
33.350587
24.054646
19.540787
17.373562
17.368793
16.951561
16.615987
16.499758
16.343594
15.783906
15.438795
15.785694
15.166998
15.260577
14.444590
14.047623
13.320446
13.300776
12.971759
12.446642
12.854934
11.681914
12.152791
12.806654
12.373924
12.601614
12.725592
12.536645
12.602806
13.163686
12.524724
11.851788
11.372566
11.267662
10.117888
10.223985
10.031462
10.133982
9.364486
10.047555
9.102821
9.020567
8.869767
9.327531
8.823872
8.855462
8.403659
8.575916
8.131862
8.093715
8.489490
8.576512
7.751584
7.695556
8.616447
8.174777
8.506775
8.397698
8.318424
8.296967
7.963777
8.461475
8.273721
8.280873
8.871555
7.990599
8.020997
7.889867
7.919669
7.243752
##ZVALUE=275
1.255870
1.256466
1.372695
1.259446
1.193881
1.401901
1.453757
1.601577
1.675487
1.528859
1.517534
1.801848
1.599789
1.751781
1.707673
2.047420
2.226830
2.494454
2.443790
5.526543
19.966960
72.471499
153.280497
334.789753
519.610643
785.762668
958.889723
1015.669703
1015.669703
1015.669703
938.642025
757.805705
492.262840
309.458971
149.080753
84.031820
55.494905
63.192844
89.340806
112.306476
139.228702
155.843496
163.486600
159.513950
143.528581
123.983622
94.454885
72.755814
50.377846
36.584735
25.789738
21.402836
18.476844
17.539859
17.505884
16.548634
15.866756
15.537739
15.411973
14.610887
14.787912
13.733506
13.835430
14.005899
13.547540
12.882948
12.821555
11.886954
12.646914
12.759566
12.349486
12.735724
12.545586
12.810826
12.932420
11.985898
11.567473
11.816621
11.689663
11.105537
10.837913
10.440946
10.074973
9.753704
9.360909
9.519458
9.308457
9.590983
9.093881
8.450747
8.586645
8.149743
8.676648
8.587837
8.125901
8.190870
8.119941
7.902980
8.205771
7.970929
8.406639
7.998943
7.631779
8.273721
7.932782
8.419752
7.796884
8.129478
8.144975
8.208752
7.661581
7.998943
7.853508
8.045435
7.583499
7.392764
##ZVALUE=280
1.344681
1.289845
1.183748
1.218915
1.321435
1.409650
1.220703
1.502633
1.284480
1.350641
1.456738
1.639724
1.535416
1.682639
1.692772
1.771450
1.780987
2.043843
2.031922
2.158880
2.403855
3.424883
11.748672
51.054955
114.088655
261.934996
414.548516
603.559017
876.166821
1015.669703
1015.669703
1015.669703
1015.669703
860.583782
579.659939
387.346745
199.243426
110.287666
55.843592
47.913790
63.831806
83.618760
112.428665
135.488510
153.968930
159.772635
156.989694
142.467618
115.468502
95.643997
67.779422
50.184727
33.697486
25.878549
19.533634
16.989708
15.686750
14.732480
14.987588
14.957786
14.171600
14.357567
13.053417
13.540983
13.718605
13.127923
12.360811
12.538433
12.723804
12.244582
12.125969
12.404919
12.654662
12.406707
12.542605
12.092590
11.822581
11.680722
11.156797
10.813475
10.662675
10.313988
10.217428
9.617805
9.871721
9.750724
9.256601
8.952618
9.137988
9.077787
8.790493
8.519888
8.549690
8.485913
7.900000
8.192658
8.419752
7.705688
8.199811
8.140802
8.042455
8.206964
8.626580
8.145571
7.882714
7.975698
7.594824
8.070469
8.047819
7.648468
7.971525
7.307529
7.927418
7.705688
7.473826
7.648468
##ZVALUE=285
1.200438
1.198649
1.071692
1.234412
1.270771
1.205802
1.336932
1.299977
1.176596
1.421571
1.379848
1.428723
1.260638
1.530647
1.326799
1.551509
1.552701
1.676679
1.882911
2.035499
1.859665
2.152920
2.075434
2.363920
6.392598
20.525455
70.405006
146.887898
319.736004
497.116446
764.333606
973.065495
1015.669703
1015.669703
1015.669703
1014.248729
772.268772
544.453859
299.496651
171.350837
74.680448
44.030547
41.622519
55.196881
81.633925
104.620457
129.367709
146.280527
154.593587
154.701471
138.218999
120.386481
92.310905
72.419643
47.866702
35.456419
23.845434
19.409657
16.122460
15.596747
14.936924
14.323592
14.428496
14.652610
14.444590
14.713407
14.516711
14.580488
14.467835
14.763474
14.478564
15.524626
15.435815
14.486909
14.335513
14.259815
14.201999
13.560653
13.339520
12.348890
12.293458
12.165904
11.593699
11.165738
10.749698
11.068583
11.001825
9.915829
10.276437
9.919405
9.345412
9.654760
9.598732
9.345412
9.701848
8.861423
9.452701
9.054542
9.179711
8.977652
9.140968
8.824468
9.235740
9.180903
9.108782
9.176731
9.300709
8.909702
9.363890
8.960962
9.377599
9.403825
9.196997
8.611679
9.059906
8.286834
##ZVALUE=290
1.164675
1.039505
1.304746
1.092553
1.095533
1.229644
1.197457
1.265407
1.290441
1.309514
1.433492
1.243949
1.348853
1.244545
1.322627
1.345873
1.586676
1.610518
1.475811
1.639724
1.605749
1.827478
1.785755
1.992583
2.076626
2.385974
3.090501
9.602904
40.933490
95.594525
222.955942
381.449461
593.299866
904.436707
1015.669703
1015.669703
1015.669703
1015.669703
983.738899
693.663955
471.284986
241.245627
126.167536
47.161579
29.553771
37.077665
51.357746
75.544715
95.050931
123.896003
139.030814
149.252415
147.733688
133.376718
113.717914
86.265802
65.923929
42.975545
30.614734
20.583868
15.892982
13.287663
12.405515
12.028813
12.246966
12.140870
12.357831
11.687875
12.168884
12.920499
12.484789
12.927651
13.019443
13.150573
12.493730
12.659431
11.981726
12.138486
11.653900
11.032820
10.926723
10.581613
11.019707
10.031462
10.281801
10.010600
10.276437
9.630919
9.719729
9.464622
9.605885
9.362698
8.841753
8.906722
8.667707
9.317994
9.063482
8.875728
9.219646
8.832812
9.227991
8.798838
8.762479
8.751750
8.988976
8.844733
9.124875
8.782744
9.047985
9.026527
8.818507
8.638501
8.710623
8.948445
8.594990
8.174777
##ZVALUE=295
1.080632
1.139641
1.192689
1.151562
1.118779
1.243949
1.204610
1.066923
1.321435
1.264811
1.145601
1.287460
1.200438
1.206994
1.306534
1.231432
1.337528
1.262426
1.338720
1.483560
1.514554
1.424551
1.509786
1.781583
1.836419
2.103448
1.885891
2.084970
2.405643
3.795624
18.757582
52.341819
147.563815
282.543898
538.199544
755.558014
1010.415554
1015.669703
1015.669703
1015.669703
1005.854607
818.254948
523.249507
333.771706
152.984858
75.061917
29.180646
23.101568
32.307506
46.645999
69.226623
89.119673
114.410520
130.593777
140.485764
136.754513
123.787522
107.702613
83.070993
64.496994
41.920543
30.530691
18.959641
14.308691
10.718703
9.975433
9.860992
9.764433
9.897947
10.474920
10.380745
10.815859
11.221766
11.053681
11.464953
11.220574
11.532903
10.787845
10.491610
10.163784
9.994507
9.832978
9.879470
9.522438
9.660721
9.911656
9.520650
9.330511
9.736419
9.127855
8.899570
9.554625
8.958578
9.137988
8.715987
8.678436
8.547902
8.583665
8.771420
8.900762
9.196997
8.764863
8.857846
9.199977
8.982420
8.849502
8.821487
9.019971
9.033680
8.575916
8.510947
8.778572
8.900762
8.370876
8.574724
8.400679
##ZVALUE=300
1.047850
1.146793
1.056790
1.122952
1.106858
1.137853
1.056790
1.214743
1.098514
1.112819
1.102686
1.153946
1.128912
1.216531
1.294613
1.169443
1.163483
1.204610
1.259446
1.132488
1.336932
1.352429
1.506805
1.365542
1.766682
1.673698
1.649857
1.897812
1.896620
2.025962
2.221465
2.643466
9.055734
30.394793
100.750923
200.079679
410.320759
629.128814
930.927992
1015.669703
1015.669703
1015.669703
1015.669703
923.016667
626.619458
412.516594
213.787556
115.857720
43.798685
21.997690
19.495487
25.980473
42.480826
58.916807
82.846880
104.802847
123.550892
129.718781
130.065680
123.244524
102.101564
84.241629
59.911609
44.093728
27.869940
19.145608
12.831688
10.138750
9.206533
8.950830
9.235740
9.024739
9.448528
9.606481
10.346770
9.797812
9.764433
9.603500
9.511709
9.381771
9.048581
9.266734
9.096861
8.957982
9.151697
9.105802
9.089708
9.049773
9.039640
8.331537
8.925796
8.476973
8.689761
8.842945
8.442998
8.219481
8.462667
8.763671
8.311868
8.498430
8.440614
8.437634
8.570552
8.395910
8.237958
8.529425
8.875728
8.275509
8.688569
8.306503
8.207560
8.160472
8.140802
7.698536
7.615685
7.564425
##ZVALUE=305
1.066923
0.992417
0.781417
0.910759
1.152754
1.034737
0.924468
0.956655
0.929832
1.085997
1.066923
1.240969
1.073480
1.062751
1.111627
0.988841
1.286864
1.083612
1.173615
1.385808
1.228452
1.325607
1.493692
1.398921
1.374483
1.414418
1.576543
1.651645
1.729727
1.828671
1.784563
2.011657
2.039671
2.397895
4.856586
15.983582
65.299869
142.973661
321.792960
511.692762
804.229975
1000.120640
1015.669703
1015.669703
1015.669703
994.469523
720.247030
503.353477
265.764594
149.256587
59.160590
26.379824
13.939738
16.444921
26.531816
38.035512
59.350729
77.392459
99.659562
113.293529
124.193430
122.940540
111.427903
98.953843
75.698495
58.694482
39.284825
27.147532
16.701818
12.083650
9.671450
9.011626
8.444786
9.064674
8.471608
8.487701
8.936524
8.564591
8.596778
8.601546
8.678436
8.944869
8.571744
8.843541
8.674860
8.434653
8.376837
8.274913
8.450747
8.245707
8.274913
8.401871
7.793903
8.118749
7.960796
8.121729
7.834435
8.600950
7.847548
8.006692
8.363724
8.421540
8.078814
7.933974
7.907748
8.304715
8.472800
8.240938
8.380413
8.077621
7.850528
7.770658
7.935762
7.425547
7.406473
7.319450
##ZVALUE=310
0.901818
0.936985
0.979900
1.093745
0.898838
0.933409
0.972748
0.971556
1.032948
1.050830
1.026988
0.933409
1.089573
1.032948
1.078844
1.264811
0.974536
1.155734
1.069903
0.967979
1.242757
1.274943
1.408458
1.278520
1.409650
1.290441
1.371503
1.550913
1.303554
1.507998
1.613498
1.923442
1.658797
1.858473
2.075434
2.179742
2.874732
6.962419
36.439896
88.412762
184.490681
395.846963
611.711740
923.699737
1015.669703
1015.669703
1015.669703
1015.669703
911.949873
683.279634
394.334793
234.497786
99.195838
45.966506
15.317798
11.609793
15.344620
22.244453
34.863949
47.904849
70.755482
87.558627
106.215477
114.335418
117.342472
110.902786
94.362497
77.848434
53.803921
39.609671
25.919676
18.389821
11.931658
9.973645
8.719563
8.549690
7.831454
7.872581
8.123517
8.043647
8.002520
7.652640
7.778406
8.029938
7.964969
8.218884
8.135438
7.929802
7.816553
8.073449
7.902980
7.913709
7.490516
7.725954
7.536411
7.533431
7.849932
7.878542
7.811785
7.496476
7.973909
7.600784
8.152723
7.767677
8.223653
7.962584
7.776618
8.138418
7.623434
7.572770
7.499456
7.378459
7.440448
7.434487
7.308722
7.185936
##ZVALUE=315
0.859499
0.950694
0.959635
0.792742
1.078844
1.100898
1.011491
1.075864
1.020432
0.839829
1.017451
0.891685
0.865459
0.914931
1.081824
1.007915
1.085997
0.994802
1.056790
1.050830
1.227856
1.038909
1.032948
1.196861
1.245737
1.124740
1.288652
1.222491
1.523495
1.430511
1.347661
1.370907
1.635551
1.566410
1.881719
1.803637
2.027750
2.103448
2.396703
3.911853
12.935996
57.827830
132.435560
308.192968
506.438613
820.263028
1007.191539
1015.669703
1015.669703
1015.669703
1001.867652
805.670619
500.353575
310.314894
139.010549
67.776442
22.840500
11.530519
10.795593
13.029575
21.205544
30.410886
47.491789
62.610507
84.965825
97.717643
110.279918
110.877752
102.005601
89.668632
72.418451
55.631995
35.791993
25.660992
16.857982
12.310743
8.895993
8.007884
7.456541
7.512569
7.462502
7.374883
7.072687
7.270575
7.394552
7.399917
7.638931
7.284880
7.357597
7.187724
7.450581
7.410645
7.222891
7.356405
7.619858
7.161498
7.220507
7.284880
7.597804
7.488728
7.689595
7.255673
7.265806
7.275939
7.558465
7.665753
7.544756
7.575750
7.646680
7.337928
7.588863
7.285476
7.068515
6.960630
6.788969
6.737709
##ZVALUE=320
0.830889
0.894666
0.627637
0.914931
0.875592
0.943542
0.826716
0.862479
0.925660
0.969768
0.964999
0.944734
0.913739
0.900626
0.968575
0.997782
1.126528
1.100898
1.008511
0.974536
0.971556
1.165867
1.276731
1.064539
1.151562
1.074672
1.039505
1.176596
1.108646
1.376867
1.363754
1.281500
1.450777
1.404881
1.532435
1.606941
1.677871
1.609921
1.902580
1.886487
1.984835
2.640486
7.309914
37.656426
92.989802
234.705806
392.134786
660.052896
877.988935
1015.669703
1015.669703
1015.669703
1015.669703
881.105661
647.338033
359.780788
204.152465
83.420873
38.071871
13.916492
9.246469
9.704828
12.354851
18.780828
27.327538
43.662786
58.043599
77.134967
91.084838
103.024840
104.399920
97.693801
86.257458
67.109466
52.034855
34.131408
24.792552
15.380979
11.701584
8.692741
7.340908
6.933808
6.972551
7.033944
6.714463
6.819963
7.172823
6.660819
6.725788
6.846786
6.905794
6.761551
6.694794
6.923676
7.058978
7.248521
6.869435
6.774664
7.106662
7.003546
6.897449
6.985664
7.111430
7.043481
6.857514
6.820560
6.787777
6.939769
7.042885
6.934404
6.583929
6.776452
6.348491
6.599426
6.445646
6.234646
##ZVALUE=325
0.827909
0.911951
0.983477
0.909567
0.858903
1.078844
1.027584
0.822544
0.884533
0.964999
0.913739
0.812411
0.901818
1.012683
0.884533
0.803471
0.935793
0.889897
0.916719
0.957847
0.968575
0.982881
1.238585
1.138449
1.232624
1.003742
1.059771
1.225471
1.205802
1.223683
1.219511
1.269579
1.274943
1.178980
1.256466
1.331568
1.470447
1.563430
1.508594
1.645684
1.617670
1.827478
1.957417
2.318621
4.883409
17.783642
69.102645
146.556497
329.685807
523.003936
812.109709
1001.874804
1015.669703
1015.669703
1015.669703
983.106494
680.161715
470.960736
250.865817
139.358640
52.290559
20.943880
9.211898
8.225441
8.878708
11.551976
17.662644
26.156902
42.791963
56.964755
76.102614
87.502599
95.969439
97.457767
89.869499
79.314709
61.655641
47.410727
31.008720
22.692680
14.453530
10.906458
8.662939
7.385612
6.775856
6.372929
6.442666
6.478429
6.231666
6.408691
6.528497
6.464720
6.546974
6.294847
6.301999
6.280541
6.590486
6.648898
6.815791
6.456971
6.547570
6.761551
6.603599
6.750822
6.739497
6.633997
6.598830
6.674528
6.596446
6.664991
6.205440
6.519556
6.288886
6.200671
5.955696
6.121993
##ZVALUE=330
0.882745
0.844598
0.948906
0.815988
0.831485
0.908971
0.803471
0.813603
0.896454
0.976920
0.984669
0.856519
1.007915
1.046658
0.908971
0.939965
0.889897
0.914931
0.792742
0.898838
0.992417
0.977516
1.173615
0.985861
1.078844
0.935793
0.968575
1.095533
0.992417
0.919700
1.093745
1.156926
1.219511
1.185536
1.364946
1.365542
1.353621
1.390576
1.282692
1.459718
1.452565
1.633763
1.642704
1.893640
1.895428
2.022982
2.631545
9.947419
33.164620
85.711479
220.886469
383.219719
669.507980
911.023021
1015.669703
1015.669703
1015.669703
1015.669703
806.978941
592.651963
327.015519
185.563564
74.794888
32.568574
10.967851
7.944703
7.963777
8.494854
11.249781
16.495585
26.670694
36.677718
55.338740
68.236589
82.988739
89.651942
91.219544
85.291862
73.393583
59.945583
42.715669
31.970739
21.273494
15.908480
10.638833
8.537769
6.595850
6.582737
6.353855
6.189942
5.945563
6.313920
6.019473
6.260872
6.045699
6.120801
5.967617
6.151795
6.239414
6.226897
6.199479
6.145835
6.374717
6.182790
6.228685
6.119609
6.350875
6.134510
5.923510
6.110668
5.827546
6.079674
5.978942
5.742908
5.928874
5.722642
##ZVALUE=335
0.761747
0.684857
0.875592
0.914931
0.820756
0.775456
0.856519
0.801682
0.725985
0.817776
0.725985
0.930429
0.914931
0.849962
0.864863
0.852942
0.946522
0.879765
0.662804
0.990629
0.886917
0.976920
0.868440
0.939965
1.026988
1.076460
1.058578
1.220703
1.192689
1.098514
0.882745
1.027584
1.055598
1.116991
1.159906
1.272559
1.207590
1.184940
1.266599
1.257658
1.360774
1.477599
1.507998
1.418591
1.589656
1.677871
1.869798
1.862645
2.302527
4.070997
21.173954
58.096647
165.606737
302.680731
559.647679
787.197948
1015.669703
1015.669703
1015.669703
1015.669703
913.960934
689.165592
404.886603
247.687697
107.356906
48.935413
15.333891
8.492470
7.178783
7.572770
8.307695
10.526776
16.328692
23.579597
36.627650
48.360825
65.975785
76.916814
84.618926
85.412860
78.664422
69.199800
55.712461
44.694543
31.426549
22.876859
14.719963
10.971427
7.985830
6.881952
6.171465
5.905628
5.821586
5.843639
5.616546
5.622506
5.855560
5.694628
5.825758
5.798936
5.891919
5.847812
5.834699
5.951524
6.100535
5.877614
5.994439
5.995631
5.890727
5.987883
5.803704
5.628467
5.860925
5.542636
5.609989
5.453825
##ZVALUE=340
1.016855
0.912547
0.870824
0.764728
0.794530
0.794530
0.889897
0.842810
0.749826
0.739694
0.768900
0.710487
0.712872
0.856519
0.772476
0.925660
0.858903
1.008511
0.934601
0.892878
0.890493
0.867844
0.817776
0.953674
1.121759
1.064539
1.068711
0.782609
1.109838
0.926852
0.936985
0.948906
0.968575
0.916719
0.965595
1.088977
1.106858
1.079440
1.113415
1.417994
1.293421
1.328588
1.283884
1.186728
1.343489
1.402497
1.388788
1.442432
1.699924
1.937747
2.064705
2.632737
11.365414
35.224557
112.867951
227.963924
471.135974
678.572655
954.994559
1015.669703
1015.669703
1015.669703
978.328586
776.903629
493.244529
305.963755
137.818456
66.052675
19.436479
9.054542
7.169843
6.967783
7.151961
7.950664
10.745525
14.534593
23.223758
33.012629
48.834682
60.015917
72.879791
78.639984
78.817606
75.178742
65.707564
55.672526
41.078925
31.704903
20.822883
14.986992
10.257959
7.729530
6.256700
5.506873
5.919933
5.668998
5.367994
5.435944
5.459785
5.495548
5.704761
5.371571
5.654693
5.634427
5.452633
5.586743
5.760789
5.724430
5.657673
5.375743
5.477667
5.781651
5.547404
5.633831
5.423427
5.091429
##ZVALUE=345
0.717640
0.748634
0.724792
0.917912
0.888705
0.824928
0.781417
0.683665
0.864863
0.711679
0.754595
0.816584
0.844598
0.769496
0.844598
0.868440
0.823736
0.854731
0.822544
0.877976
0.640750
0.807643
0.965595
0.891685
0.979900
0.943542
1.001954
0.885725
1.043677
0.985861
0.979900
1.081824
0.918508
0.961423
1.115799
0.999570
0.968575
1.029968
1.112819
1.000762
1.097918
1.137853
1.308918
1.208782
1.251698
1.322627
1.235604
1.440644
1.437664
1.419783
1.608729
1.597404
1.860857
2.072453
5.081892
18.383861
74.853897
154.767632
333.731771
518.671870
806.480646
999.854803
1015.669703
1015.669703
1015.669703
885.299444
596.452951
391.478539
180.189610
87.514520
27.972460
12.690425
7.457733
7.004738
6.794930
6.813407
7.611513
9.552836
14.713407
20.393729
31.640530
41.636825
55.266619
64.003468
72.083473
72.783828
69.814920
63.717961
51.211715
41.934848
30.055642
21.551847
14.086962
10.488629
7.720590
6.509423
5.845428
5.623698
5.179644
5.148649
5.192757
5.276799
5.486608
5.300641
5.274415
5.071759
5.450845
5.341768
5.384684
5.002618
5.274415
5.136728
5.357862
5.540848
5.105734
5.172491
##ZVALUE=350
0.763535
0.834465
0.937581
0.772476
0.766516
0.769496
0.760555
0.764728
0.911951
0.736713
0.781417
0.684857
0.825524
0.710487
0.885725
0.791550
0.831485
0.873804
0.846982
0.739694
0.837445
0.797510
0.861883
0.830889
0.757575
0.835657
0.792742
0.848770
1.008511
0.986457
1.027584
1.004934
0.863671
1.120567
1.040697
0.962615
0.999570
0.975728
0.950694
1.110435
1.058578
1.062751
0.945926
1.208782
1.169443
1.163483
1.222491
1.239777
1.365542
1.275539
1.479983
1.292825
1.457930
1.563430
1.735687
1.924634
2.833605
9.497404
44.402480
101.887584
247.352719
413.416624
691.688657
899.121761
1015.669703
1015.669703
1015.669703
956.330895
662.312508
446.656942
236.572623
124.454498
43.027997
17.840862
8.005500
6.432533
6.011724
5.996823
6.212592
6.735921
9.037852
12.433529
18.932819
26.301742
38.285851
47.102571
58.360696
64.294934
66.955686
64.447522
57.919621
49.867630
38.454533
29.251575
20.109415
15.171766
9.963512
7.947683
6.361604
5.830526
5.338788
5.253553
5.208850
5.140901
4.993677
5.002618
4.998446
5.054474
5.141497
5.011559
5.029440
5.164742
4.971623
4.994869
5.106926
4.852414
##ZVALUE=355
0.676513
0.737906
0.736713
0.697970
0.763535
0.790954
0.720620
0.800490
0.832677
0.863671
0.852942
0.786781
1.007915
0.830889
0.859499
0.833869
0.822544
0.806451
0.883937
0.914931
0.829697
0.772476
0.897646
0.904799
0.877976
0.994802
0.868440
0.883937
0.813603
0.820756
0.910759
0.916719
0.967979
0.882745
0.937581
1.045465
1.120567
1.087785
0.862479
0.920892
1.075864
1.119971
1.056790
1.095533
1.011491
1.108646
1.156926
1.136661
1.307726
1.305938
1.279712
1.464486
1.414418
1.395941
1.622438
1.710653
1.747608
1.794696
2.306700
4.485846
24.514794
66.374540
180.173516
321.107507
581.506491
797.007680
1015.669703
1015.669703
1015.669703
1000.070572
748.388767
545.419455
304.187536
164.712667
63.546896
27.019978
9.645820
6.529689
5.837679
5.531907
5.620718
5.852580
6.278753
7.697940
11.170506
15.668869
23.848414
31.642914
42.478442
50.722957
58.620572
60.187578
59.446692
54.720640
45.955777
37.695765
27.285814
21.329522
14.423728
10.672808
7.798672
6.248951
5.725622
5.289912
4.871488
4.877448
5.044937
4.781485
4.605651
4.707575
4.924536
4.648566
4.662871
4.663467
4.646778
4.714727
##ZVALUE=360
0.711679
0.848770
0.727773
0.750422
0.812411
0.662804
0.765920
0.811815
0.808835
0.751615
0.775456
0.770688
0.815988
0.761747
0.805855
0.845790
0.868440
0.800490
1.008511
0.876784
0.853539
0.988841
0.895858
0.922680
0.853539
0.880957
0.829697
0.909567
0.820756
0.724792
0.981688
0.906587
0.906587
0.969768
0.900626
0.906587
0.993609
1.007915
0.746846
0.869632
0.923872
1.002550
1.115799
0.955462
1.037717
1.070499
1.100898
1.346469
1.129508
1.186728
1.383424
1.350641
1.391768
1.294613
1.413822
1.535416
1.385808
1.728535
1.641512
1.867414
2.101660
2.620816
10.945797
33.705831
111.138821
217.290521
439.736843
649.242997
935.262442
1015.669703
1015.669703
1015.669703
875.376463
663.066506
390.544534
230.833888
91.022849
39.061904
11.612773
7.006526
5.957484
5.793571
5.373955
5.365610
5.164742
5.521774
6.737709
8.674860
13.154745
18.772483
28.391480
35.847425
44.784546
50.676465
54.847598
55.150986
51.996708
46.509504
37.155747
29.706955
21.329522
16.115904
11.246800
8.512735
6.576777
5.418658
5.050898
4.796982
4.530549
4.352927
4.577637
4.706979
4.415512
4.348755
4.090667
4.363656
##ZVALUE=365
0.759959
0.712872
0.740886
0.746846
0.709891
0.851750
0.742674
0.857711
0.852942
0.905991
0.718832
0.838637
0.918508
0.825524
0.782609
0.752807
0.710487
0.629425
0.809431
0.784993
0.789762
0.772476
0.841618
0.880957
0.800490
0.845790
0.897646
0.899434
0.928640
0.957847
0.879765
0.919700
1.007915
1.002550
1.028776
0.997782
0.956655
0.915527
0.923872
1.052618
0.906587
1.107454
1.078844
0.978708
1.126528
1.195669
1.040697
1.180768
1.135468
1.169443
1.098514
1.171827
1.137853
1.195669
1.167655
1.311898
1.354814
1.360774
1.533628
1.494884
1.648664
1.857877
2.026558
2.340674
5.062819
16.753674
69.805980
155.247450
358.638763
565.485954
845.991969
1003.150940
1015.669703
1015.669703
954.189897
757.355690
468.876958
284.054875
123.918653
58.790445
19.352436
8.794665
5.901456
5.506873
5.128980
4.971623
4.427433
4.587770
4.801750
5.667806
7.606745
10.341406
15.772581
21.761656
30.812621
37.497878
44.989586
49.543977
50.924420
49.236417
43.563843
37.592649
29.502511
23.469925
16.144514
12.019873
8.509755
6.245971
5.522966
4.845858
4.523993
4.290938
4.324913
4.104972
4.191995
4.138947
##ZVALUE=370
0.702739
0.704527
0.771880
0.661612
0.769496
0.677705
0.676513
0.791550
0.809431
0.796914
0.651479
0.758767
0.809431
0.895858
0.793934
0.740886
0.768900
0.825524
0.769496
0.731945
0.881553
0.805855
0.790954
0.856519
0.882745
0.858903
0.883937
0.757575
0.691414
0.910759
0.888705
0.849962
0.963807
0.966787
1.038909
0.891685
0.903606
1.075864
0.875592
0.907779
0.792742
0.889897
1.068711
0.979900
1.016855
0.938773
1.057982
1.066923
1.176000
1.089573
1.153946
1.083612
1.065731
1.126528
1.097918
1.195669
1.274943
1.223683
1.413822
1.407862
1.563430
1.602769
1.601577
1.990795
1.796484
2.119541
2.993941
9.135604
46.794415
113.942623
265.536904
443.900824
741.978884
938.483477
1015.669703
1015.669703
1006.752849
839.175582
551.928878
356.104970
164.555907
82.930923
29.725432
12.605786
6.041527
5.306602
4.771948
4.648566
4.259944
4.396439
4.150867
4.177690
5.007982
6.343722
9.716749
13.246536
19.859672
25.545955
33.803582
39.808750
45.311451
47.731996
46.076775
42.755604
36.212802
30.444860
22.319555
16.070604
12.123585
9.469986
6.601810
5.547404
4.679561
4.164577
4.167557
3.961921
##ZVALUE=375
0.752807
0.802875
0.785589
0.962615
0.883937
0.779629
0.783801
0.706911
0.495911
0.783801
0.592470
0.701547
0.658631
0.922680
0.816584
0.721812
0.690818
0.706911
0.680685
0.749826
0.683665
0.689626
0.853539
0.607967
0.780821
0.856519
0.807643
0.753999
0.847578
0.791550
0.808835
0.768900
0.796914
0.876784
0.805855
0.954866
0.880957
0.795722
0.895858
0.989437
0.795722
0.886917
1.015663
0.945926
0.798702
0.902414
1.013875
0.833869
1.065731
0.917912
0.980496
1.014471
1.089573
0.991821
1.103878
1.030564
1.035929
1.001954
1.195669
1.217723
1.244545
1.236796
1.369715
1.368523
1.415610
1.543760
1.708865
1.873970
2.217889
5.162954
27.152896
68.190694
182.187557
331.181884
593.778491
799.911618
1011.070013
1015.669703
1015.669703
926.935673
656.651855
459.953547
252.201557
140.106678
52.947998
22.412539
7.372499
5.271435
4.837513
4.353523
4.121661
4.227757
4.156828
3.980994
4.075766
4.321933
5.548596
7.338524
11.272430
15.560985
22.659898
28.684735
36.384463
41.371584
44.782758
45.028925
42.136908
36.395788
31.559467
24.924874
19.091964
13.569593
10.403991
7.040501
5.771518
4.797578
##ZVALUE=380
0.703931
0.709891
0.814795
0.672936
0.708699
0.709891
0.723600
0.700951
0.575781
0.682473
0.692606
0.649691
0.532866
0.729561
0.599623
0.704527
0.629425
0.726581
0.699759
0.830889
0.760555
0.803471
0.811815
0.836849
0.678897
0.810623
0.786781
0.691414
0.731945
0.735521
0.843406
0.760555
0.900626
0.900626
0.768900
0.825524
0.789762
0.752807
0.840425
0.834465
0.839829
0.947714
0.951886
0.935793
0.942945
0.887513
0.929832
0.803471
0.863671
0.880957
0.997782
1.025796
0.842810
0.907779
1.092553
0.999570
1.032948
0.948906
1.154542
1.190901
1.113415
1.032948
1.269579
1.214743
1.278520
1.369715
1.502633
1.570582
1.658797
1.988411
2.255440
3.131628
13.668537
41.243434
130.584836
249.397755
498.594046
720.061660
976.215005
1015.669703
1015.669703
995.966792
772.742033
575.664639
332.438946
194.000006
79.004765
35.198927
10.315776
5.415678
4.656911
4.267693
4.229546
4.193783
4.069805
3.921986
3.701448
3.953576
4.257560
5.016923
6.935596
9.572506
14.706850
19.599795
26.880503
32.312870
39.027929
42.273998
42.792559
40.721893
37.100911
31.219721
26.346445
18.814802
14.636517
10.079741
##ZVALUE=385
0.695586
0.582933
0.685453
0.837445
0.690818
0.613928
0.618696
0.671744
0.636578
0.680685
0.717640
0.578761
0.597835
0.700951
0.517964
0.780821
0.668764
0.699759
0.605583
0.642538
0.781417
0.778437
0.655651
0.840425
0.806451
0.705719
0.933409
0.855923
0.683665
0.819564
0.802875
0.650883
0.677705
0.745654
1.044869
0.868440
0.890493
0.815988
0.883937
0.831485
0.857711
0.811815
0.850558
1.051426
0.869632
0.994802
1.034737
0.984669
0.973940
0.847578
0.922680
0.883937
0.843406
1.042485
0.858903
0.920892
1.026988
0.871420
0.993609
1.110435
1.044869
1.173615
1.139641
0.972748
1.087785
1.322627
1.317859
1.268983
1.359582
1.653433
1.774430
1.754761
2.022982
2.194643
6.297827
21.733642
84.574819
180.555582
389.098525
584.849715
839.902759
998.829603
1015.669703
1015.669703
885.179639
701.243877
438.816547
276.405811
124.152899
57.440996
16.551614
6.893873
4.440546
4.250407
3.992915
4.139543
4.037619
3.853440
3.612638
3.775954
3.586411
3.744960
4.435778
5.452633
8.118749
11.141896
16.688704
23.195744
28.033853
33.454895
37.051439
39.398670
38.764477
35.534501
31.622648
25.753975
##ZVALUE=390
0.676513
0.640750
0.442863
0.661612
0.739694
0.670552
0.602603
0.603795
0.741482
0.618696
0.739694
0.636578
0.809431
0.698566
0.640750
0.869632
0.693798
0.724792
0.656843
0.695586
0.611544
0.726581
0.762939
0.614524
0.676513
0.682473
0.692606
0.863671
0.784993
0.945926
0.810623
0.894666
1.031756
0.889897
0.750422
0.969768
0.992417
0.825524
0.802875
0.945926
0.829697
0.959635
0.873804
0.834465
0.723600
1.055598
1.046658
0.915527
1.016855
0.916719
1.014471
0.723600
0.924468
0.831485
0.987649
0.989437
1.048446
0.911951
0.990629
0.917912
0.908971
0.983477
0.997782
1.049638
1.075864
1.177788
1.365542
1.329780
1.411438
1.532435
1.494884
1.778603
1.869798
1.696944
1.782775
1.744628
3.616810
13.191700
56.467652
126.072764
286.733508
461.768508
721.689463
904.072523
1015.669703
1015.669703
989.488959
828.657746
562.174916
369.376540
174.171925
87.644458
28.950572
11.575818
5.073547
4.198551
4.051924
4.096627
4.085898
3.877878
3.926754
3.892779
3.550649
3.670454
3.494620
3.891587
4.970431
7.214546
9.539723
13.905764
18.415451
24.738908
29.315948
34.694672
37.004948
37.660599
##ZVALUE=395
0.735521
0.719428
0.704527
0.720620
0.696778
0.574589
0.631809
0.607967
0.653863
0.716448
0.749826
0.659823
0.729561
0.835657
0.640750
0.637770
0.692606
0.628829
0.642538
0.676513
0.659823
0.848770
0.753999
0.878572
0.683665
0.664592
0.732541
0.676513
0.697970
0.788569
0.957847
0.797510
0.883937
1.023412
1.016855
0.898838
0.844598
0.835657
0.925660
0.932813
0.969768
0.920892
0.955462
1.000762
0.915527
1.103878
1.048446
1.132488
1.082420
1.068711
0.862479
0.910759
1.143813
0.957847
0.990629
1.014471
1.072884
0.981688
1.140833
0.977516
1.019835
1.044869
1.031756
0.937581
1.070499
1.142621
1.311898
1.293421
1.338720
1.425743
1.494884
1.650453
1.464486
1.530647
1.568794
1.576543
1.689792
1.842976
2.241731
6.744862
35.643578
84.863901
205.992460
352.351665
608.840585
816.546679
1015.669703
1015.669703
1015.669703
953.440666
696.184635
484.376550
253.283978
132.044554
47.556758
20.335913
6.538630
4.534721
4.191995
4.310608
4.267693
4.261732
4.232526
4.072785
4.020929
3.906488
3.526807
3.661513
3.878474
4.516840
5.737543
8.249879
11.007786
16.682744
21.248460
27.197599
##ZVALUE=400
0.860691
0.836849
0.808835
0.748634
0.598431
0.748634
0.779629
0.669956
0.742674
0.629425
0.696778
0.585914
0.706911
0.682473
0.661612
0.503659
0.723600
0.727773
0.647902
0.682473
0.649691
0.823736
0.712872
0.835657
0.749826
0.793934
0.890493
0.750422
0.678897
0.830889
0.845790
0.755787
0.924468
0.927448
0.958443
0.912547
0.907779
0.954866
0.980496
0.949502
1.110435
0.915527
0.898838
0.986457
0.917912
1.056790
0.939965
1.160502
1.003742
1.080632
0.856519
0.930429
0.949502
0.877976
1.028776
0.939965
1.032948
1.017451
1.086593
1.024604
1.003742
1.010895
1.086593
1.145601
1.058578
1.058578
1.247525
1.110435
1.404881
1.355410
1.411438
1.580715
1.517534
1.583695
1.331568
1.296997
1.387596
1.671910
1.519918
1.756549
2.066493
3.772974
17.573833
49.116611
139.193535
257.440805
482.038856
678.528547
924.998522
1015.669703
1015.669703
990.241766
767.630935
564.399958
318.218470
186.288953
78.012943
34.828782
10.193586
5.285740
4.019737
4.117489
4.226565
4.163980
4.042983
4.174709
4.119873
4.002452
3.882647
3.344417
3.477931
3.486872
3.842711
4.963875
6.910563
10.245442
##END
