##TITLE=9-3
##FORMAT=SPECTACLE-ASCII V-1.2
##DATA TYPE=ULTRAVIOLET SPECTRUM
##SECOND TYPE=ULTRAVIOLET SPECTRUM
##DATE=04/09/18
##TIME=12:03:41
##SPECTROMETER/DATA SYSTEM=SPECTACLE
##XUNITS=NM EM
##YUNITS=ENERGY
##YFACTOR=1
##FIRSTX=220
##LASTX=450
##NPOINTS=116
##3DDATA=Equidistant
##ZUNITS=NM EX
##FIRSTZ=210
##LASTZ=400
##ZPOINTS=39
##XYDATA=(Y..Y)
##ZVALUE=210
14.392734
15.185475
12.576580
11.799932
10.496974
10.933876
9.820461
9.034872
7.860661
6.060600
5.598664
3.944635
3.483891
3.395677
2.903938
4.041791
2.865791
3.163815
3.661513
3.337860
3.613830
3.538728
3.970861
4.420877
3.727674
4.395843
5.243421
4.696846
4.573464
5.392432
5.243421
6.113648
5.625486
6.875992
6.240606
7.217526
7.179976
7.558465
7.405877
8.063912
7.601976
8.724928
7.893443
8.037686
7.646680
8.369684
8.674860
8.169413
8.011460
8.434653
8.286834
8.522868
9.206533
9.157658
8.715987
8.754730
8.975863
7.550716
9.309649
8.601546
8.291602
9.151697
9.529591
8.543730
8.533597
8.235574
9.250641
8.790493
10.728836
11.343956
12.450814
13.066530
14.115572
16.122460
18.259883
17.469525
17.220974
17.972589
16.270876
16.126633
14.306903
13.233423
11.823773
10.894537
9.165406
9.192824
8.122921
7.622838
8.700490
8.781552
10.219812
14.081597
15.658736
20.257831
27.406812
31.134486
36.367774
42.355657
45.476556
46.354532
50.650835
51.055551
46.703815
49.811602
47.299862
45.295954
45.331717
39.725900
40.361881
31.852722
27.517676
22.890568
19.330978
17.045736
14.940500
15.150905
##ZVALUE=215
41.696429
40.166974
29.103756
25.858879
22.425652
17.265677
15.808940
15.318990
16.161799
13.303757
12.411475
9.863973
8.668900
5.683899
4.828572
3.978610
4.048944
3.581643
3.990531
4.028678
3.841519
4.488826
4.113913
4.269481
5.192757
4.565716
4.990697
5.636811
5.472898
5.411506
6.688833
6.612539
7.702708
7.986426
7.446408
8.199811
8.532405
9.480715
9.830594
9.176731
9.619594
9.764433
9.652972
10.277629
10.057688
10.275841
9.898543
10.170937
10.190606
10.866523
10.551810
10.426641
12.039542
12.061596
11.689663
11.585951
12.471676
11.425614
13.455749
11.544824
10.968447
11.210442
12.368560
11.850595
10.600686
9.905696
10.397434
11.374950
11.584759
11.252761
15.055537
14.579892
15.747547
15.890598
18.491745
18.605590
17.221570
17.936826
16.846657
15.327930
15.781522
14.750957
12.188554
11.930466
11.500716
9.061694
9.301901
8.124709
8.041859
7.070899
6.669760
7.797480
7.777810
8.876920
10.730624
14.042854
17.214417
21.539927
28.741956
35.921931
43.037534
49.601793
55.621862
64.000487
72.120428
72.412491
73.640943
75.141788
71.324706
73.162913
70.958734
65.533519
58.858991
51.804781
45.790672
35.679936
##ZVALUE=220
88.607669
88.324547
82.245469
72.438717
62.488914
48.350692
38.862824
28.964877
25.654435
24.042726
23.654699
25.100708
21.583438
17.539859
14.465451
10.135770
7.652640
5.849600
5.170703
4.367828
4.179478
4.468560
4.665852
5.138516
4.888773
5.299449
5.534887
5.570650
6.179810
6.542802
6.391406
7.211566
8.562803
9.094477
9.070635
10.052919
10.240674
11.162758
11.063814
11.248589
13.283491
11.766553
11.719465
13.141632
12.742877
11.337996
12.256503
13.377666
12.558699
12.046695
13.915896
15.420914
14.466643
14.501810
16.141534
14.952421
15.358925
14.179945
13.049841
15.327930
14.707446
14.576912
13.329983
13.287663
13.761520
14.482737
13.178587
13.722777
14.511943
14.923811
15.766621
15.911460
16.730428
19.155741
17.616749
19.515753
19.127727
18.646717
16.711950
17.570853
15.697479
14.627576
13.589859
11.916757
11.495948
11.170506
11.605620
9.819865
8.615851
8.555651
8.498430
8.659959
7.217526
7.736683
7.250905
8.014441
8.267760
8.498430
10.054708
10.015965
14.935732
21.017790
29.727817
37.323833
50.570965
61.595440
73.153973
88.549852
96.293688
110.360980
113.685727
118.900537
116.621852
115.456581
115.572810
106.239915
##ZVALUE=225
109.412670
115.290880
135.033727
145.781636
146.050453
132.022500
117.055774
86.074471
66.022873
49.356818
39.436817
37.153959
36.927462
40.141940
35.090446
34.297705
26.248693
21.584630
14.446974
9.903908
7.470846
5.924702
5.341768
5.104542
4.623532
5.269647
5.898476
5.743504
5.873442
7.183552
7.570982
9.527802
9.383559
9.035468
10.336637
11.681914
11.535883
12.888908
13.170838
12.446642
13.279915
13.441443
13.632774
12.725592
13.866425
14.258623
14.156699
13.863444
15.114546
15.235543
16.076565
16.404986
17.482638
17.711520
17.538667
18.526912
18.299818
17.489791
17.904639
17.606616
16.670823
17.786622
18.038750
16.503930
17.147660
16.484857
15.754700
14.838576
17.127991
17.459989
17.355680
17.071962
17.700791
19.031763
18.970966
19.550920
18.585920
17.825961
18.702745
16.038418
16.295910
15.382767
13.800859
12.097955
12.136698
11.258721
10.835528
10.431409
11.112690
10.176897
9.641647
10.109544
8.689761
9.301901
8.949637
9.465814
8.743405
9.156466
9.853840
8.240938
8.251667
8.889437
10.194778
11.289716
13.377666
20.166636
30.312538
41.712523
54.165721
69.598556
85.327625
109.905005
121.983886
144.765973
163.528919
176.424980
##ZVALUE=230
74.793696
82.260966
135.634542
172.490478
203.338861
241.235495
247.693658
238.899589
204.162598
153.243542
115.144849
80.230832
63.317418
54.084659
58.328509
57.607889
58.927536
56.906939
50.740838
39.238930
29.082894
19.098520
12.170672
8.875728
6.772876
5.886555
6.763935
7.109642
7.099509
8.399487
7.366538
7.897615
9.039640
9.457469
10.447502
10.821819
13.075471
12.783408
12.893677
14.197826
15.445948
15.192628
13.990998
15.818477
15.596747
15.406609
15.608668
14.512539
14.986992
16.714931
16.073585
18.308759
18.069744
18.987656
18.501878
17.830729
21.463633
19.281507
17.110705
19.717813
19.695759
19.273758
17.738938
19.116998
17.758608
18.245578
18.431544
17.449856
18.252730
19.051433
19.579530
19.614697
20.626783
21.189451
21.334887
20.781755
21.921992
20.777583
19.781590
17.811656
17.375946
17.208457
15.858412
14.058948
14.779568
14.333725
12.175441
12.322664
12.123585
12.121797
11.742711
11.204481
11.919737
11.533499
11.427999
11.204481
10.183454
11.191964
11.020899
10.767579
10.453463
10.742545
10.987520
10.832548
11.409521
9.837747
11.526942
11.322498
12.294650
18.034577
24.445653
37.783980
48.002601
77.157617
99.267960
131.551623
##ZVALUE=235
22.829771
26.582479
64.191818
106.430650
164.687634
256.534815
319.620967
393.759012
414.540768
388.406515
334.520936
260.040760
192.837715
123.092532
95.404983
76.043606
76.736808
83.590746
87.452531
84.295869
80.378652
72.943568
53.865910
37.867427
24.259686
17.172694
10.431409
9.270906
7.308722
7.100701
8.393526
9.634495
8.853674
8.626580
9.972453
10.618567
12.240410
11.556745
12.861490
13.406873
12.912750
12.993813
13.871789
15.882850
13.886690
15.313625
14.063716
16.412735
15.179515
15.428662
15.157461
15.801787
16.533732
17.953515
17.220974
17.770529
16.552806
17.779469
17.674565
18.239617
16.607642
18.015504
17.776489
17.996430
17.972589
20.341873
19.728541
18.468499
18.351674
21.486878
20.207763
23.733974
23.562908
26.029944
24.833679
25.519729
24.599433
24.363995
22.881627
20.536780
20.116568
19.872785
17.764568
17.877817
17.435551
16.057491
14.906526
16.124845
14.600754
15.377998
14.824867
15.308857
14.029741
13.684630
13.173819
13.736486
13.084412
13.803840
13.137460
14.618635
12.484789
13.758540
12.667775
13.486743
13.151765
12.752414
13.271570
12.317896
11.508465
13.637543
13.885498
12.403727
13.928413
16.424656
20.485520
34.072995
##ZVALUE=240
2.929568
3.673434
10.462999
25.928617
58.020949
127.582550
206.872821
345.559716
440.410972
546.516776
604.017973
573.999882
514.224768
407.498479
317.865610
205.406547
145.746469
107.099414
98.066926
103.120804
116.744637
123.808980
117.341876
104.987621
82.870722
66.338778
46.760440
31.879544
18.420815
13.089776
9.725690
8.790493
9.103417
8.837581
10.818839
9.115934
10.538697
10.547638
11.749864
11.611581
12.696981
12.489557
12.208819
13.528466
13.912916
14.172792
14.357567
14.809966
14.635921
16.077757
15.371442
15.314817
14.762878
15.816689
17.319918
15.949607
16.416907
15.770793
16.396642
15.650988
16.655922
16.644597
16.870499
16.663671
18.061996
17.901659
17.978549
18.139482
21.308661
22.030473
22.420883
23.701787
24.002790
25.798678
25.656819
26.756525
26.088953
25.858879
24.313927
23.926497
21.018982
21.861792
19.239783
19.086599
18.462539
17.736554
16.995668
16.792417
17.629862
14.413595
14.773607
15.854836
16.867518
15.176535
15.841722
15.138984
13.834834
15.191436
15.015602
14.467835
14.858842
14.929771
14.761686
15.756488
15.361905
16.093850
15.475750
13.803840
14.820695
14.177561
14.350414
14.620423
14.315844
14.426708
14.231801
14.607906
##ZVALUE=245
2.550483
2.738833
2.617836
3.000498
4.551411
18.134713
42.995811
114.557743
202.624798
347.532630
477.894545
618.689656
699.687004
716.176629
665.486455
547.400713
433.825850
287.443995
201.837420
126.706958
104.553699
101.081729
115.544796
123.339891
128.219724
126.485825
110.259652
93.902946
72.558522
53.442717
33.510923
22.124648
15.312433
11.111498
9.447932
9.162426
10.170937
9.179711
9.705424
10.593534
12.512803
11.387467
11.892915
12.716651
12.881756
12.107491
14.356971
13.639927
13.566613
13.228655
14.352798
15.175939
13.990998
14.245510
14.570951
14.969707
15.849471
14.018416
14.692545
15.533566
14.589429
15.980601
15.653968
16.497970
16.619563
15.924573
16.418695
17.717481
18.057823
19.126534
19.693971
19.558668
20.730495
20.750761
21.109581
22.909641
22.986531
20.573735
21.128654
20.255446
20.778775
18.786788
17.792583
17.560720
17.654896
16.583800
16.799569
14.738441
14.264584
16.251802
13.774633
15.018582
15.036464
14.671683
13.797879
13.648868
14.233589
13.368726
14.147758
14.062524
14.387965
14.272928
13.568997
13.460517
12.899637
13.187528
14.624596
12.725592
13.151765
13.037920
14.079809
13.000965
13.781786
13.773441
13.132691
12.814999
##ZVALUE=250
2.258420
2.372861
1.853704
2.111793
2.266765
2.465844
3.231764
11.963844
32.288432
90.447664
174.282789
337.860584
487.498641
675.292015
771.826506
834.639668
818.924904
709.120631
582.846999
397.313833
269.218683
161.921978
109.674931
94.072819
102.949739
121.556520
133.691430
138.265491
132.544637
120.756626
101.808906
82.241893
54.115653
39.647818
24.687648
16.957521
11.947751
11.383891
10.515451
11.116862
11.132956
12.437701
12.996793
11.101961
13.254881
12.187958
13.460517
13.546944
14.514923
13.591647
15.178919
14.416575
14.683604
14.677644
16.340613
15.145540
14.449954
15.294552
15.282631
14.753938
14.224648
14.607906
14.551878
14.344454
14.745593
14.933944
16.042590
15.742779
15.359521
16.485453
17.503500
18.530488
19.242764
19.369721
19.335747
19.094944
18.996596
19.099712
17.709732
17.502904
17.258525
16.153455
15.006661
15.549660
13.846755
13.499856
13.079643
13.530850
13.355613
13.652444
13.148785
11.779666
12.980700
12.821555
11.246800
11.341572
11.062622
11.527538
12.049675
11.320710
12.144446
12.956858
12.307763
11.684895
12.072921
12.624860
12.149811
12.007952
12.541413
12.868643
12.203455
12.440681
12.493730
12.034774
12.004972
12.621880
##ZVALUE=255
1.795888
1.918674
1.792908
2.093911
2.284646
2.373457
1.964569
2.400875
2.625585
6.966591
19.935966
69.496632
143.284798
300.496817
454.420447
688.993931
837.672949
972.917676
999.317765
905.798674
773.629546
600.861907
374.706984
237.171650
132.330656
91.287494
88.636875
101.857781
125.231743
140.983462
149.644613
143.126845
132.366419
106.037855
85.124969
60.177445
43.235421
26.113987
19.316673
13.975501
12.902617
13.120770
13.227463
13.264418
14.208555
14.272928
14.163852
14.713407
14.791489
15.105605
14.811754
16.154647
15.665889
15.317798
16.165972
16.248822
15.779734
15.988946
16.301870
15.616417
15.501976
16.761422
15.752912
15.168786
14.881492
14.972687
15.046597
15.407801
15.104413
16.251802
16.887784
17.277598
17.821789
17.933846
18.124580
17.758608
16.725659
16.426444
16.168952
15.122890
15.153885
14.252663
14.870763
13.130903
13.160706
12.041926
12.451410
11.973977
12.371540
11.735559
11.647940
10.613799
11.077523
11.761785
10.620952
10.853410
11.593699
12.131929
11.040568
11.442900
12.259483
12.158751
12.335777
11.689663
11.089444
11.468530
11.102557
11.617541
10.872483
11.495948
10.790825
10.463595
11.244416
11.083484
10.715723
10.973811
##ZVALUE=260
1.777411
1.945496
1.646876
1.988411
1.930594
2.285838
2.100468
1.922846
2.162457
2.182722
2.253652
3.680587
10.244846
41.954517
92.826486
231.872797
395.531654
648.736954
860.083699
1015.669703
1015.669703
1015.669703
1004.260778
748.000741
539.475679
310.809612
195.022821
109.195709
82.716942
84.715486
106.126666
124.291778
145.282745
155.437589
149.940848
138.762593
113.501549
91.938972
64.422488
48.057437
35.261512
22.717714
19.116998
18.049479
16.952753
15.924573
17.363429
16.823411
17.865896
18.472672
17.984509
18.347502
18.687844
17.775893
18.786788
18.668771
18.681884
18.348694
18.166900
19.177794
17.394423
17.990470
17.049909
17.513633
16.629696
16.865730
17.145872
16.339421
18.082857
17.283559
17.829537
17.774701
18.866658
18.711686
17.331839
17.950535
17.891526
17.227530
15.612841
15.225410
14.956594
14.513731
13.376474
13.399720
12.754798
12.347698
11.881590
11.747479
11.722445
11.728406
10.635853
10.828972
10.283589
10.023713
10.668635
10.301471
10.196567
9.903908
10.695457
10.030866
10.448694
10.719895
10.487437
11.124611
10.938644
10.636449
11.225939
10.716915
10.412931
11.105537
11.562705
10.381937
10.295510
10.521412
10.519624
9.563565
##ZVALUE=265
1.658797
1.715422
1.713634
1.573563
1.538992
1.885891
1.903772
1.926422
2.233982
2.214909
2.314448
2.140999
2.662539
2.864599
5.633831
26.542544
65.804720
174.520016
332.872868
642.495751
901.732445
1015.669703
1015.669703
1015.669703
1015.669703
973.510742
738.294721
433.912873
268.206596
160.782933
87.467432
73.443651
88.155866
109.786987
138.269663
152.631998
162.667632
158.439875
142.807961
121.881962
98.187923
68.455935
51.791668
34.951568
27.145743
21.935701
21.198988
21.173954
20.569563
20.741820
20.882487
21.177530
21.602511
21.624565
20.744801
20.813942
20.778775
20.907521
20.435452
20.807981
20.051599
20.158887
19.208789
18.813610
18.259883
19.225478
18.303990
16.989708
18.635988
18.296838
18.750429
18.346906
18.906593
18.568635
18.688440
17.198920
16.520619
16.555786
15.685558
15.138984
13.744831
13.906956
13.388991
12.724996
12.103915
11.856556
10.995865
11.600852
10.751486
10.957718
10.718703
11.075735
10.074973
9.633899
10.225773
10.252595
9.771585
10.757446
9.662509
9.787679
9.741783
9.976625
9.205937
9.898543
9.546876
10.981560
10.205507
10.170937
10.059476
9.855628
9.501576
9.768605
10.245442
9.976625
10.010600
9.344816
##ZVALUE=270
1.602769
1.621842
1.702905
1.790524
1.527667
1.563430
1.779795
1.752973
1.833439
1.970530
1.909733
1.907945
2.066493
2.171993
2.211928
2.530813
3.443956
12.830496
36.777854
119.740963
243.937969
537.075996
861.795545
1015.669703
1015.669703
1015.669703
1015.669703
1015.669703
968.009830
686.311722
388.584733
230.180621
111.445785
72.595477
70.299506
89.324713
122.119784
142.057538
164.194703
169.025660
163.620710
152.031779
126.097798
103.663802
74.072480
56.550503
40.252805
31.066537
26.281476
24.883747
24.544597
23.327470
23.853779
23.602843
23.185611
23.755431
22.294521
21.140575
22.373796
22.822618
21.276474
19.920468
20.182729
20.210743
20.085573
19.530654
19.051433
18.387437
19.017458
18.241405
18.739700
18.968582
18.908978
18.418431
19.211769
17.605424
17.181635
16.190410
15.298724
15.651584
14.329553
13.199449
13.470650
12.761950
12.673736
11.473894
11.351705
11.297464
11.032820
10.296702
10.635853
10.232925
10.058880
9.947419
10.276437
9.757876
9.559989
9.552836
10.239482
9.813905
9.944439
9.716749
9.532571
9.931922
10.262728
9.125471
10.053515
8.956790
9.584427
9.960532
9.198785
9.219646
9.653568
9.361506
9.588599
8.959770
##ZVALUE=275
1.533628
1.395941
1.491904
1.485944
1.563430
1.579523
1.790524
1.612902
1.773834
1.906753
1.754761
1.884699
1.868606
2.099872
2.103448
2.244711
2.351999
2.460480
2.776980
6.553531
21.851659
77.241659
169.370770
412.863493
699.270964
1015.669703
1015.669703
1015.669703
1015.669703
1015.669703
1015.669703
988.754034
598.909855
344.325900
157.441497
90.734959
61.077476
68.213940
96.269846
119.018555
146.479607
162.106752
172.309875
168.891549
149.980783
129.514933
101.075768
78.451633
55.782795
44.275522
33.195615
28.227568
25.154948
24.113655
25.154948
23.450851
22.961497
22.731423
22.405982
22.955537
22.761822
21.775961
21.809936
21.584630
20.274520
20.677447
19.696951
19.481778
18.593669
18.886924
19.345880
18.344522
18.880963
19.724965
18.634796
17.946959
17.585754
17.099977
16.118884
15.635490
14.346838
13.991594
13.032556
13.148785
12.740493
12.450814
11.863708
11.508465
11.012554
11.178851
10.324717
10.084510
10.426641
9.989738
9.702444
10.145903
9.924769
9.984970
10.400414
9.802580
9.936690
9.963512
9.260774
9.761453
9.183884
9.569526
9.474754
9.493828
9.913445
10.075569
9.439588
9.118915
8.897781
9.188652
9.074807
8.618832
##ZVALUE=280
1.464486
1.663566
1.335740
1.256466
1.627803
1.704693
1.515746
1.658797
1.597404
1.657605
1.629591
1.631975
1.573563
1.805425
1.900792
1.600981
2.060533
2.291799
2.206564
2.497435
2.575517
3.874898
12.284517
55.960417
124.435425
296.757817
510.751009
825.035572
1015.669703
1015.669703
1015.669703
1015.669703
1015.669703
1015.669703
850.177407
515.036583
231.483579
120.769739
61.747432
56.165457
70.765615
91.437697
122.667551
143.050551
163.091421
167.755485
162.336826
149.616599
124.176741
101.927519
74.928999
58.216453
41.237473
32.870770
26.730895
24.462938
23.196936
22.386909
22.180676
21.461844
20.981431
21.525621
20.773411
20.219684
19.547939
19.071698
19.394755
19.734502
19.294620
18.675923
18.891692
19.095540
18.821955
18.944740
18.481612
18.057823
17.603636
16.726851
15.992522
15.374422
14.459491
14.355779
13.824701
13.290644
12.435913
12.482405
12.347698
12.001991
11.748672
10.665655
11.062622
9.992719
10.545850
10.031462
10.160804
10.388494
10.454655
9.967685
9.855628
9.739995
9.421706
10.012984
9.622574
9.663701
9.490848
9.500980
9.570718
9.218454
9.550452
9.774566
9.284616
9.305477
9.332895
9.198785
9.464622
9.060502
##ZVALUE=285
1.309514
1.242757
1.423955
1.397729
1.153946
1.405478
1.484752
1.654625
1.626611
1.517534
1.502633
1.651645
1.735687
1.754761
1.665950
1.798868
1.852512
1.812577
1.933575
2.020597
2.138615
2.499819
2.879500
3.145933
6.013513
28.395653
69.430470
184.213519
331.013799
653.993487
974.571705
1015.669703
1015.669703
1015.669703
1015.669703
1015.669703
1015.669703
760.641694
436.055660
180.699825
90.315938
46.640635
45.693517
63.506961
82.880855
113.572478
133.753419
154.734850
158.833861
154.103637
144.632459
120.469928
98.559856
71.269870
53.837895
36.903620
29.108524
22.499561
20.332932
19.683838
19.186735
18.531680
18.882751
17.880797
17.632842
17.604828
18.159747
17.310977
18.592477
17.952919
17.600656
17.979741
18.135905
17.828941
17.465949
16.761422
15.798807
15.886426
14.749765
14.543533
14.125705
13.771653
13.595819
13.012886
12.509823
12.220740
11.893511
11.497736
11.690855
11.352897
10.987520
10.605454
10.745525
10.413527
10.566711
10.229945
9.759665
10.260940
10.299683
10.196567
10.393858
10.438561
10.092854
9.919405
9.902716
9.650588
9.986758
9.958744
9.442568
9.428859
9.672642
9.339452
9.357929
9.034872
9.158850
8.831620
##ZVALUE=290
1.291633
1.265407
1.287460
1.102686
1.466870
1.407862
1.298785
1.375675
1.372695
1.620650
1.396537
1.551509
1.582503
1.450777
1.345873
1.595616
1.646876
1.702905
1.672506
1.744628
1.739860
1.991987
2.208948
2.272725
2.461672
2.576709
3.579855
9.727478
43.737888
103.217959
243.923664
421.052575
786.582828
1015.669703
1015.669703
1015.669703
1015.669703
1015.669703
1015.669703
1015.669703
641.694665
342.005491
122.956634
53.704977
32.107830
37.508607
56.544542
75.309873
103.245974
123.582482
142.160654
150.142908
149.941444
135.872960
114.765763
93.666911
66.263676
49.307942
34.514666
25.455952
19.474626
17.500520
15.510917
14.817715
15.123487
15.693903
14.968514
15.050769
15.369654
15.187860
15.888810
16.268492
16.207695
16.149879
15.977621
15.250444
15.690923
14.526844
13.869405
13.685822
13.174415
13.395548
12.387633
12.170672
12.437701
11.501908
11.671782
11.323690
11.316538
11.245608
10.528564
11.012554
10.671616
9.896755
10.291934
10.122657
10.238886
9.754896
10.152459
9.712577
10.076761
9.348989
9.780526
9.970665
9.981990
9.743571
9.603500
10.142922
9.553432
9.506941
9.071827
9.144545
9.235740
9.374619
8.874536
8.878708
##ZVALUE=295
1.157522
1.082420
1.212955
1.331568
1.105666
1.212955
1.336932
1.246929
1.449585
1.239777
1.438856
1.292825
1.361966
1.533628
1.467466
1.443624
1.341701
1.418591
1.315475
1.533628
1.679659
1.653433
1.895428
1.940727
2.008677
2.134442
2.248883
2.455711
2.720952
4.747510
20.857453
57.457685
171.038508
318.971872
609.936714
886.465907
1015.669703
1015.669703
1015.669703
1015.669703
1015.669703
1015.669703
904.459953
554.272532
223.649740
93.824863
30.763745
24.472475
35.057664
47.439933
71.827769
91.671944
117.307901
131.459832
140.998960
139.304996
125.363469
109.427571
84.650517
67.093968
44.230819
32.072663
21.601915
17.391443
13.186932
12.811422
12.373924
11.895895
12.794733
12.674928
12.868643
13.593435
13.265610
14.026761
13.775826
13.386607
12.938976
12.445450
12.579560
11.815429
11.744499
11.737943
11.278987
11.580586
11.232495
10.593534
10.998845
11.068583
10.372996
10.011792
10.349751
10.315776
9.794831
9.672642
9.751916
10.044575
9.685755
9.681582
9.694695
9.723902
9.709597
9.402633
9.534955
9.509921
9.570718
9.632707
9.621978
9.341836
9.461641
9.499788
9.211898
8.857846
9.415746
8.616447
8.764863
8.675456
##ZVALUE=300
1.031756
1.016855
1.233816
1.096725
1.042485
1.152754
1.169443
1.177788
1.114607
1.258850
1.225471
1.138449
1.307726
1.091957
1.179576
1.411438
1.236796
1.311898
1.275539
1.469851
1.398921
1.582503
1.479983
1.634955
1.630783
1.654625
1.909733
1.831651
2.103448
2.087951
2.267957
2.778769
9.547472
31.215549
107.630491
217.607617
452.588797
693.725944
1005.868912
1015.669703
1015.669703
1015.669703
1015.669703
1015.669703
959.529877
667.487979
345.607996
176.703930
57.541728
23.587942
20.563602
27.928948
44.285655
60.194731
85.163713
104.415417
125.566721
131.469965
130.266547
122.213960
102.079511
84.820986
60.607791
45.317411
29.133558
20.575523
13.952851
11.924505
10.970831
10.322928
10.636449
11.028647
11.594892
11.831522
11.632442
11.228919
11.105537
11.241436
10.852814
10.769963
10.531545
10.661483
10.560751
10.514855
10.242462
10.402799
9.744763
9.702444
9.187460
9.906888
9.044409
9.225607
9.349585
9.140968
9.168983
9.114742
9.148717
9.553432
8.991957
9.351969
9.178519
9.118915
8.955598
8.783937
9.352565
9.049773
9.681582
8.945465
8.941889
8.883476
9.087920
9.216666
8.678436
8.749962
8.535981
8.188486
##ZVALUE=305
1.050830
1.026988
1.030564
1.013875
1.020432
1.124740
1.160502
0.903606
1.138449
0.994802
1.141429
1.216531
1.098514
1.150966
1.146793
1.054406
0.874996
1.237988
1.172423
1.163483
1.379848
1.370907
1.351833
1.499653
1.466870
1.602769
1.600981
1.665950
1.731515
1.904964
2.049804
2.105832
2.206564
2.491474
5.043745
16.651750
67.285895
152.895451
346.288681
549.345613
866.249800
1015.669703
1015.669703
1015.669703
1015.669703
1015.669703
920.668840
681.404471
396.547914
222.005844
81.445575
33.470988
15.444756
17.400980
26.410818
38.781762
61.298609
78.139901
99.999905
113.766789
123.218894
124.026537
112.440586
98.267794
76.054931
59.979558
40.662885
28.288960
17.964840
13.526678
10.965466
10.400414
10.202527
10.124445
10.159612
10.171533
9.565949
9.736419
9.779930
9.323955
9.434819
9.299517
9.477735
9.644628
9.187460
9.257793
9.299517
8.937716
9.259582
8.867979
9.079576
8.812547
9.001493
8.833408
8.486509
8.217692
8.420944
8.433461
8.740425
8.781552
8.758903
9.093881
9.069443
9.104609
8.670688
8.537769
8.991957
8.367896
8.877516
8.568764
8.067489
8.262992
8.270741
8.198619
8.118749
8.081794
##ZVALUE=310
1.058578
0.949502
1.025796
1.049638
0.899434
0.848770
0.908971
1.016855
1.144409
1.005530
1.028776
0.912547
1.094937
0.957847
1.052618
1.110435
1.173615
1.101494
1.114607
1.134872
1.045465
1.252890
1.105666
1.439452
1.369715
1.377463
1.454949
1.515746
1.612902
1.628995
1.606941
1.774430
1.799464
2.014637
2.160668
1.973510
2.837777
7.051826
36.366582
87.488890
223.149657
389.753580
696.401596
950.222015
1015.669703
1015.669703
1015.669703
1015.669703
978.787541
743.755698
451.925993
279.005766
124.471784
57.404637
19.005537
12.448430
16.488433
22.235513
35.179853
48.810840
70.898533
87.990761
105.663538
115.887523
117.200613
110.586882
94.151497
77.238679
54.790974
40.333867
25.767684
18.518567
13.122559
10.985732
9.793639
9.168983
9.023547
8.516908
8.454919
8.250475
8.635521
8.213520
8.392930
8.507967
8.375645
8.467436
8.655787
8.581877
8.472800
8.586645
8.597970
8.413792
8.066893
8.000731
8.186698
8.014441
8.058548
8.145571
8.304715
8.200407
8.256435
8.367896
8.324981
8.699894
8.354783
8.388758
8.527637
7.806420
8.103848
8.288622
8.219481
7.949471
8.129478
7.488728
7.502437
7.442832
##ZVALUE=315
1.039505
0.921488
0.973940
1.024604
0.864863
0.757575
0.985861
0.820756
0.845790
1.052618
1.041889
1.102686
1.008511
1.030564
1.034737
0.886917
1.084805
1.065731
0.901818
1.156926
1.211762
1.078844
1.146793
1.199841
1.246929
1.248717
1.294613
1.201630
1.465678
1.611710
1.479983
1.538992
1.551509
1.657605
1.973510
1.901984
2.010465
2.146959
2.589822
3.936887
18.714666
53.149462
155.078769
292.457938
579.673648
838.688016
1015.669703
1015.669703
1015.669703
1015.669703
1015.669703
852.317810
531.518459
337.781906
160.944462
77.949762
24.386644
12.635589
11.321902
13.817549
21.069646
31.216741
48.987865
64.315796
84.913969
98.581910
109.604001
112.247467
102.610588
89.683533
70.424676
54.758787
37.781596
27.026534
17.443895
12.945533
9.316802
8.696914
8.028746
7.931590
7.727742
7.554889
7.556677
7.145405
7.745624
7.529855
7.891655
7.781982
7.641912
7.979870
7.903576
7.952452
7.375479
7.781982
7.394552
7.564425
7.612705
7.781982
7.689595
7.652640
7.845759
7.772446
7.880926
7.631779
7.766485
7.835627
7.593632
7.554889
7.939935
7.808805
7.496476
7.422566
7.218719
7.502437
7.330775
7.175803
##ZVALUE=320
0.901818
0.890493
1.038909
0.833869
0.953674
0.964999
0.813603
0.831485
1.029968
0.938773
0.839829
0.941753
0.953674
0.945926
1.034737
0.895858
0.970960
1.010895
0.918508
1.153946
1.138449
1.156926
1.100898
1.269579
1.288652
1.178980
1.211762
1.277924
1.281500
1.176596
1.412630
1.391768
1.416802
1.539588
1.451969
1.732707
1.664758
1.726747
2.075434
2.158880
2.382994
2.561808
8.967519
28.406978
99.867582
204.647779
428.928733
667.580962
1000.414491
1015.669703
1015.669703
1015.669703
1015.669703
999.103785
672.980547
430.496931
202.276707
107.863545
41.481853
18.181801
9.851456
10.032654
13.503432
18.701553
28.890967
40.851831
60.283542
75.661540
94.166994
103.078485
102.796555
98.353624
84.779859
71.168542
51.145554
37.559867
23.879409
16.735792
11.248589
9.134412
7.461905
7.163882
7.139444
7.097721
7.380843
6.890893
7.053614
7.048845
7.165670
7.054806
7.159710
7.209778
7.123947
6.991625
7.403493
7.150769
7.416606
7.272959
7.538795
7.146597
7.263422
7.428527
7.136464
6.967783
7.242560
6.935596
7.117987
7.063746
7.167459
7.233620
6.902814
6.968975
6.953478
6.591678
6.933808
6.452799
##ZVALUE=325
0.673532
0.840425
0.849962
0.841618
0.850558
0.800490
0.830889
1.008511
0.804663
0.858903
0.845790
0.900626
0.988841
0.981688
0.992417
0.925660
0.875592
0.960827
0.898838
1.011491
0.955462
1.042485
1.215935
1.047850
1.112819
0.974536
1.270771
1.250505
1.004934
1.162887
1.215935
1.356602
1.129508
1.550913
1.402497
1.308918
1.348853
1.466870
1.681447
1.741648
1.850724
1.952648
2.129674
2.425909
4.930496
17.249584
65.493584
142.178535
331.231952
543.362498
896.933675
1015.669703
1015.669703
1015.669703
1015.669703
1015.669703
785.546899
527.032614
268.532634
147.617459
57.041645
24.884939
10.448694
8.575916
9.509921
11.677742
17.846823
26.791692
42.585731
57.496428
77.689886
88.711977
97.459555
97.572803
90.555549
80.179572
62.161684
47.652721
31.962991
22.404790
14.444590
10.882616
8.333921
7.242560
6.969571
6.603599
6.684661
6.483793
6.596446
6.414652
6.349683
6.549954
6.745458
6.691813
6.725788
6.825924
6.525517
6.713867
6.599426
7.054806
6.840825
6.833673
6.555915
6.879568
6.954670
6.744862
6.494522
6.503463
6.728768
6.647706
6.249547
6.389618
6.348491
5.952716
6.180406
6.106496
##ZVALUE=330
0.930429
0.851750
0.753999
0.709891
0.960827
0.998974
0.951886
0.829697
0.842810
0.896454
0.839829
1.045465
0.756979
0.835657
0.898838
0.892878
0.980496
0.934601
0.961423
1.067519
1.038909
1.062751
0.900626
0.990629
1.062751
1.105666
1.237988
1.217723
1.224875
1.208782
1.004934
0.986457
1.151562
1.327991
1.377463
1.264811
1.331568
1.366735
1.304746
1.604557
1.746416
1.771450
1.834631
2.128482
2.047420
2.337694
3.067851
8.570552
39.407611
95.355511
234.291553
402.248502
726.446509
983.994603
1015.669703
1015.669703
1015.669703
1015.669703
955.553055
680.522919
365.278721
196.190476
75.333714
33.895969
12.562871
8.384585
8.380413
8.959770
12.061000
17.110705
27.482510
38.146973
54.916739
68.181753
82.962513
90.291500
90.507865
86.605549
72.360635
59.589744
42.752624
32.304525
21.229982
15.639663
10.539889
8.221865
6.922483
6.727576
6.484985
6.123781
6.304979
6.034970
6.027818
6.007552
6.124973
6.030798
6.166697
6.025434
6.206632
6.368756
6.148815
6.298423
6.395578
6.196499
6.424785
6.157756
6.174445
6.265640
6.280541
6.019473
6.190538
5.750656
5.838871
5.853772
5.692840
5.555749
##ZVALUE=335
0.858903
0.777841
0.812411
0.749826
0.794530
0.760555
0.783801
0.862479
0.758767
0.843406
0.897646
0.903606
0.734925
0.993609
0.951886
0.866652
1.099706
0.979900
0.823736
0.953674
0.850558
0.907779
0.927448
0.971556
0.977516
1.036525
1.126528
1.094937
1.181960
1.094937
1.180768
1.274943
1.256466
1.189709
1.156926
1.287460
1.339912
1.282692
1.388788
1.466870
1.482964
1.512766
1.420975
1.550913
1.667738
1.769662
1.869798
2.077818
2.466440
4.261732
21.229982
56.455731
159.965754
291.140676
549.116731
785.242915
1015.669703
1015.669703
1015.669703
1015.669703
969.548821
725.537539
423.111916
257.056952
109.595656
48.987865
15.415549
8.695722
7.769465
7.367730
8.851886
10.815859
16.484857
23.505688
36.507845
48.419833
66.278577
76.520443
84.597468
84.776878
78.595877
69.630742
55.002570
44.435859
30.299425
22.790432
14.869571
11.071563
7.893443
6.725788
6.060600
6.013513
5.736947
5.730987
5.504489
5.749464
5.621910
5.700588
5.576611
5.768538
5.733967
5.956888
5.716681
5.710721
5.662441
5.720854
6.032586
5.885959
5.695820
5.741715
5.430579
5.424619
5.353689
5.478859
5.227923
5.271435
##ZVALUE=340
0.674725
0.777841
0.806451
0.788569
0.863671
0.751615
0.741482
0.847578
0.714660
0.754595
0.814795
0.685453
0.705719
0.906587
0.813603
0.795722
0.875592
0.707507
0.806451
0.751615
0.799894
0.831485
0.971556
1.021624
0.825524
0.822544
0.944734
1.017451
1.124740
0.956655
0.853539
0.979900
1.134872
1.159906
1.093745
1.028776
1.058578
0.893474
1.136661
1.200438
1.235604
1.364946
1.298785
1.116991
1.396537
1.382828
1.479983
1.777411
1.659989
1.896620
1.958609
2.408624
9.486675
32.279491
109.071732
213.915706
429.945588
639.719963
920.446515
1015.669703
1015.669703
1015.669703
969.450474
768.039823
479.954481
298.847556
135.115981
63.194633
18.455982
8.976460
7.289648
6.884933
6.975532
8.068681
10.598898
14.408827
23.294687
32.888651
48.335791
59.901476
71.999431
77.827573
77.949762
74.762702
64.545870
54.865479
40.735602
31.226873
20.572543
14.886856
9.974837
7.456541
6.396770
5.621910
5.543828
5.439520
5.438924
5.297661
5.166531
5.284548
5.264878
5.325675
5.351901
5.593896
5.611777
5.608797
5.364418
5.519986
5.364418
5.295873
5.455613
5.503893
5.104542
5.042553
5.250573
5.084872
##ZVALUE=345
0.686646
0.761747
0.854731
0.855923
0.759959
0.792742
0.868440
0.730753
0.603795
0.787973
0.846982
0.751615
0.711679
0.824928
0.929832
0.924468
0.917912
0.890493
0.791550
0.956655
0.829697
0.852942
0.802875
0.952482
0.815988
0.952482
0.989437
1.019835
0.942945
0.887513
1.024604
0.896454
0.970960
1.038909
0.948906
0.942945
1.087785
1.137853
1.113415
1.072884
1.009703
1.252890
1.141429
1.261830
1.092553
1.235604
1.378655
1.266599
1.456738
1.501441
1.621842
1.749992
1.783967
2.013445
4.609823
16.946793
70.521832
146.802664
315.063000
492.253900
767.816901
967.176557
1015.669703
1015.669703
1010.961533
854.253769
574.276447
377.042890
170.469880
82.319975
26.542544
12.045503
7.412434
6.647706
6.495714
6.427765
7.554889
9.321570
14.231801
20.101666
31.328797
41.544437
55.218935
64.077973
71.992874
72.972775
69.417953
63.539743
51.648617
41.459799
28.691888
21.133423
13.661981
10.274649
7.357597
6.492734
5.427599
5.044937
5.112886
5.162954
5.100965
5.201697
5.042553
5.253553
5.219579
5.141497
5.123615
5.223751
5.205870
5.080700
5.046725
5.148649
5.205870
4.978776
4.750490
4.789829
##ZVALUE=350
0.719428
0.714660
0.700951
0.807643
0.809431
0.819564
0.716448
0.714660
0.754595
0.759959
0.735521
0.770688
0.980496
0.787973
0.795722
0.647902
0.799894
0.664592
0.799894
0.745654
0.839829
0.732541
0.869632
0.818968
0.794530
0.941753
0.799894
0.870824
1.005530
0.983477
1.039505
0.944734
0.837445
0.979900
0.839829
0.956655
1.023412
1.024604
0.986457
0.937581
0.927448
0.981688
0.948906
1.174808
0.996590
1.033545
1.153946
1.277924
1.252890
1.450777
1.382828
1.451969
1.520514
1.535416
1.792908
1.819730
3.044605
8.927584
39.422512
92.722774
228.095651
391.103625
664.454699
853.686929
1015.669703
1015.669703
1015.669703
922.157764
638.495684
425.552726
212.863684
114.529729
42.212605
17.154813
7.558465
6.641746
5.913973
5.983710
5.684495
6.678700
8.673668
11.615753
18.652678
25.631785
37.384629
46.610832
57.179928
63.473582
66.198707
64.506531
56.806803
49.020648
37.440658
29.305816
20.040870
14.881492
10.055900
7.560849
6.011724
5.349517
5.293489
4.982948
5.124807
5.205870
4.886985
4.935861
4.868507
5.056858
4.902482
4.870892
4.663467
5.140901
4.892945
4.751682
4.715919
4.548430
##ZVALUE=355
0.855923
0.892878
0.786781
0.828505
0.783801
0.679493
0.776649
0.763535
0.825524
0.856519
0.733733
0.701547
0.899434
0.627637
0.725985
0.770688
0.671744
0.652671
0.811815
0.856519
0.770688
0.830889
0.770688
0.782609
0.776649
1.117587
0.960827
0.878572
0.878572
0.952482
0.893474
0.941753
0.830889
0.810623
0.842810
0.869632
0.861883
0.927448
1.073480
1.012683
0.995994
0.996590
0.822544
0.973940
1.051426
0.967979
1.180768
1.110435
1.096725
1.317859
1.197457
1.334548
1.311898
1.415610
1.392961
1.656413
1.701713
1.814961
2.278686
4.283786
22.513866
61.558485
169.332623
295.850635
534.293652
741.936564
988.164544
1015.669703
1015.669703
971.753001
713.543892
517.174602
287.736654
155.639648
58.135986
24.192929
8.306503
6.203651
5.842447
5.558729
5.348921
5.428791
6.040931
7.253885
11.043549
15.190840
23.696423
31.360984
42.356849
50.030947
57.368875
60.208440
59.005618
54.430962
45.569539
37.719607
28.307438
21.534562
14.111996
10.717511
7.638931
6.282926
5.554557
5.089641
4.892945
4.952550
4.699826
4.696846
4.635453
4.667640
4.840493
4.685521
4.699826
4.518628
4.589558
4.581809
##ZVALUE=360
0.795722
0.680685
0.790954
0.758767
0.743866
0.839829
0.724792
0.819564
0.725985
0.694990
0.759959
0.792742
0.678897
0.803471
0.795722
0.720620
0.898838
0.729561
0.867844
0.760555
0.834465
0.850558
0.870824
0.743866
0.938773
0.862479
0.835657
0.827909
1.013875
0.965595
0.956655
0.817776
0.940561
0.975728
0.790954
0.884533
0.902414
0.881553
0.883937
1.106858
0.930429
1.188517
1.078844
0.973940
1.191497
1.028776
0.927448
0.950694
1.141429
1.191497
1.209974
1.304746
1.281500
1.373887
1.450777
1.506805
1.363754
1.660585
1.694560
1.696944
2.147555
2.594590
11.288524
33.978820
106.538534
208.657384
417.779684
617.246628
890.748501
1015.669703
1015.669703
1015.669703
832.592845
628.149509
369.341969
213.510990
82.904696
34.529567
10.863543
6.713867
5.720854
5.428791
5.408525
5.152822
4.887581
5.253553
6.592870
8.324981
13.134480
18.748641
27.770996
35.412908
44.770837
50.796866
54.235458
55.246949
51.123500
45.983791
37.162900
29.960871
21.282434
15.951991
11.168718
8.237958
6.178617
5.249977
4.801750
4.621744
4.376769
4.257560
4.440546
4.328489
4.410744
4.034638
4.111528
4.210472
##ZVALUE=365
0.700951
0.796914
0.691414
0.861883
0.771880
0.837445
0.866652
0.783801
0.841618
0.628829
0.607967
0.619888
0.609756
0.589490
0.826716
0.731945
0.832677
0.797510
0.904799
0.768900
0.766516
0.909567
0.840425
0.795722
0.899434
0.846982
0.784993
0.892878
0.756979
0.892878
0.902414
0.942945
0.944734
0.984669
1.013875
0.893474
0.784993
0.848770
0.860691
0.980496
0.872612
0.885725
1.104474
0.962615
1.065731
1.035929
1.007915
1.027584
1.138449
1.112819
1.110435
1.169443
1.294613
1.219511
1.236796
1.327991
1.257658
1.424551
1.562834
1.651645
1.602769
1.916885
2.104640
2.170801
5.045533
17.485619
67.624450
145.614743
336.358547
529.487729
798.802972
961.342454
1015.669703
1015.669703
919.625759
731.285810
450.185537
268.322825
114.494562
53.625703
17.062426
7.881522
5.665421
5.358458
5.011559
4.832745
4.396439
4.465580
4.763603
5.382895
7.616878
10.502934
16.677976
22.373796
30.770898
37.302971
44.845939
48.905611
50.656796
49.345493
43.317676
37.792921
29.614568
22.692680
15.922785
10.999441
8.141994
6.277561
5.456805
4.649758
4.385710
4.179478
4.093647
4.025698
3.960729
3.947616
##ZVALUE=370
0.721812
0.735521
0.713468
0.761747
0.641942
0.806451
0.679493
0.680685
0.807643
0.820756
0.756979
0.714660
0.735521
0.841618
0.859499
0.664592
0.827909
0.837445
0.840425
0.819564
0.753999
0.720620
0.809431
0.840425
0.706911
0.816584
0.899434
0.901818
0.944734
0.835657
0.813603
1.037717
0.708699
0.942945
0.818968
0.814795
0.887513
0.998974
0.941753
0.808835
0.878572
1.053810
0.960827
0.943542
0.948906
1.064539
0.991821
0.933409
0.946522
1.086593
1.017451
1.015663
1.196861
1.093745
1.147985
1.189709
1.108646
1.223683
1.188517
1.381636
1.366735
1.403689
1.453757
1.586676
1.814961
1.988411
3.013611
9.629726
45.879483
112.080574
266.531706
426.662564
679.985881
874.375701
1015.669703
1015.669703
965.004563
783.430934
512.288809
332.777500
161.292553
79.384446
27.086735
11.537671
5.669594
5.013943
4.545450
4.329681
4.374981
4.152656
4.094839
4.186630
4.905462
6.168485
9.312630
13.074875
19.237995
25.617480
34.315586
40.494800
45.392513
47.598481
46.227574
42.821765
36.096573
29.973984
22.163987
15.783906
12.147427
8.878708
7.023811
5.422831
4.542470
3.926754
3.802776
3.707409
##ZVALUE=375
0.614524
0.697970
0.705719
0.617504
0.641942
0.799894
0.650883
0.858903
0.821948
0.684857
0.678897
0.753999
0.662804
0.800490
0.817776
0.813603
0.774860
0.797510
0.750422
0.800490
0.886917
0.705719
0.736713
0.780821
0.902414
0.688434
0.760555
0.872612
0.832677
0.879765
0.908971
0.828505
0.703931
0.879765
0.764728
0.895858
0.771880
0.756979
0.863671
0.929832
0.827909
0.807643
0.862479
0.930429
0.937581
0.832677
0.762939
0.995994
0.891685
0.963807
0.984669
0.983477
1.067519
0.929832
0.922680
1.040697
1.117587
1.163483
1.092553
1.231432
1.246929
1.228452
1.346469
1.279712
1.375675
1.529455
1.602769
1.859665
2.217889
4.975796
25.680661
64.103603
172.031522
311.398506
562.992692
763.117671
991.096497
1015.669703
1012.391448
892.269611
644.582510
441.661477
237.208605
128.682852
48.913956
20.468831
7.129908
4.962683
4.650950
4.527569
4.094839
4.034638
3.919601
3.703833
3.980994
4.432797
5.274415
7.280707
11.136532
15.570521
23.107529
28.813481
36.077499
41.057467
44.212937
44.776797
41.965842
35.966635
31.189919
24.194717
19.272566
13.583899
10.252595
7.040501
5.534887
4.641414
##ZVALUE=380
0.787973
0.647902
0.539422
0.644922
0.683665
0.650883
0.762939
0.709891
0.629425
0.684857
0.796914
0.811815
0.673532
0.699759
0.780821
0.803471
0.707507
0.652671
0.697970
0.653863
0.753999
0.704527
0.675917
0.801682
0.886917
0.774860
0.739694
0.867844
0.778437
0.737906
0.835657
0.737906
0.950694
0.829697
0.864863
0.882745
0.850558
0.771880
0.804663
0.862479
0.742674
0.907779
0.933409
0.856519
1.045465
1.012683
0.921488
0.787973
0.954866
0.811815
0.948906
0.981688
0.925660
0.955462
0.891685
1.066923
1.159906
1.048446
1.045465
1.140833
1.036525
1.135468
1.206994
1.158714
1.194477
1.506805
1.436472
1.591444
1.667738
1.963973
2.128482
3.120899
13.394952
41.551590
128.380656
246.306658
490.607619
706.253648
957.309008
1015.669703
1015.669703
970.063806
741.287470
547.834635
310.746431
177.649856
70.443749
30.940771
9.433627
5.297661
4.239678
4.024506
4.012585
3.948808
3.822446
3.852844
3.625751
3.795624
4.138947
4.674792
6.697774
9.333491
14.343858
19.026995
26.559830
32.509565
38.412809
41.762590
42.340755
40.653944
37.193894
31.298995
25.686622
18.543601
14.073849
9.691715
##ZVALUE=385
0.758767
0.633597
0.739694
0.594854
0.607967
0.736713
0.537634
0.553727
0.610948
0.788569
0.728965
0.638962
0.720620
0.713468
0.812411
0.615716
0.824928
0.706911
0.650883
0.722408
0.730753
0.709891
0.626445
0.724792
0.870824
0.710487
0.799894
0.896454
0.669956
0.762939
0.747442
0.770688
0.887513
0.813603
0.860691
0.858903
0.899434
0.864863
1.026988
0.815988
0.930429
1.042485
0.911951
0.958443
0.996590
0.941753
0.771880
1.023412
1.005530
0.919700
1.001954
0.949502
0.904799
0.952482
0.831485
0.960827
0.825524
1.118779
1.096725
1.044869
0.990629
1.058578
1.158714
0.981688
1.165867
1.238585
1.274943
1.521707
1.519918
1.491904
1.886487
2.082586
2.019405
2.419949
5.506873
29.422641
76.064467
196.831822
347.456932
616.393685
825.930834
1013.826728
1015.669703
1014.863849
896.393657
643.887520
456.516743
256.382823
138.420463
48.808455
18.795729
5.884767
4.544854
4.151464
4.252791
3.977418
3.986955
3.876686
3.837943
3.872514
3.530979
3.721714
4.372597
5.734563
7.743835
11.878610
16.261935
22.867918
27.927756
33.897758
37.837625
39.359927
39.166808
35.263896
31.497478
25.623441
##ZVALUE=390
0.658631
0.709891
0.705719
0.718832
0.721812
0.843406
0.708699
0.573993
0.518560
0.746846
0.739694
0.778437
0.745654
0.710487
0.676513
0.581741
0.770688
0.674725
0.788569
0.732541
0.712872
0.634789
0.654459
0.786781
0.665784
0.724792
0.696778
0.760555
0.767708
0.889897
0.683665
0.836849
0.767708
0.867844
0.983477
0.906587
0.848770
0.981688
0.916719
0.845790
0.941753
0.855923
1.062751
0.841618
0.984669
0.909567
1.117587
1.031756
0.981688
0.898838
1.108646
1.102686
0.914931
0.953674
0.960827
0.907779
1.117587
1.082420
0.927448
1.121759
1.068711
1.072884
1.061559
1.053810
1.067519
1.256466
1.121759
1.413822
1.489520
1.694560
1.717806
1.726747
1.836419
1.684427
1.765490
1.975894
3.588796
13.769865
61.648488
135.412812
304.175615
489.223599
761.912465
950.534940
1015.669703
1015.669703
1006.577015
849.639773
569.820404
369.649529
169.788003
83.364844
26.925802
10.647774
5.072951
4.263520
4.064441
4.031658
4.127622
4.041791
3.822446
3.866553
3.670454
3.663898
3.624558
4.134774
5.049706
7.096529
9.498000
13.950467
18.315911
24.245977
29.086471
34.799576
37.046671
37.240982
##ZVALUE=395
0.699759
0.677705
0.709891
0.651479
0.595450
0.686646
0.546575
0.731945
0.637770
0.511408
0.658631
0.704527
0.598431
0.690818
0.814795
0.626445
0.579953
0.550747
0.788569
0.782609
0.642538
0.687838
0.640750
0.701547
0.681877
0.748634
0.744462
0.654459
0.799894
0.876784
0.861883
0.857711
0.909567
0.943542
0.951886
0.945926
0.980496
0.902414
0.959635
1.031756
0.826716
1.066923
1.050830
0.915527
0.969768
1.074672
1.089573
1.052618
1.065731
1.039505
1.079440
1.162887
1.064539
0.969768
1.005530
1.047850
1.177788
1.000762
1.024604
0.976920
1.111627
1.129508
0.983477
1.007915
1.094937
1.134872
1.307726
1.348853
1.469851
1.585484
1.640916
1.779795
1.680851
1.686811
1.797676
1.704693
1.854897
1.890659
2.611876
7.011890
35.497546
88.776946
220.967531
377.854705
654.114485
878.647566
1015.669703
1015.669703
1015.669703
994.204879
707.800984
483.585596
246.278644
129.272938
48.029423
19.691586
6.590486
4.645586
4.179478
4.291534
4.365444
4.262924
4.163980
4.158616
3.933907
3.845692
3.654957
3.603697
3.854632
4.643798
5.776882
8.459687
11.301637
16.337633
21.205544
27.031898
##ZVALUE=400
0.732541
0.794530
0.700951
0.540614
0.798702
0.541806
0.694990
0.809431
0.598431
0.730753
0.581741
0.693798
0.729561
0.723600
0.653863
0.632405
0.680685
0.682473
0.701547
0.816584
0.720620
0.790954
0.733733
0.684857
0.695586
0.699759
0.762939
0.638962
0.727773
0.787973
0.885725
0.818968
0.972748
0.906587
0.793934
0.788569
0.964999
0.952482
0.989437
1.073480
1.167655
1.076460
1.023412
1.028776
1.162887
1.198649
1.245737
1.072884
1.036525
1.190901
1.112819
1.149774
1.019835
0.977516
1.096725
0.968575
1.193881
1.027584
1.215935
1.178980
1.266599
1.023412
1.046658
1.118779
1.155734
1.035929
1.327991
1.553893
1.470447
1.592636
1.719594
1.709461
1.705885
1.733899
1.687407
1.545548
1.633763
1.595616
1.950860
2.005696
2.268553
3.972650
19.666553
56.464672
164.798498
312.938690
609.018803
869.807601
1015.669703
1015.669703
1015.669703
1015.669703
892.957449
628.929734
351.156592
200.599432
79.869628
34.840703
10.341406
5.269647
4.299879
4.419684
4.442930
4.496574
4.429817
4.262924
4.267693
3.891587
3.859997
3.842711
3.467798
3.603697
4.217625
5.258918
7.121563
10.172725
##END
