##TITLE=FSH752
##FORMAT=SPECTACLE-ASCII V-1.2
##DATA TYPE=ULTRAVIOLET SPECTRUM
##SECOND TYPE=ULTRAVIOLET SPECTRUM
##DATE=04/30/18
##TIME=14:59:43
##SPECTROMETER/DATA SYSTEM=SPECTACLE
##XUNITS=NM EM
##YUNITS=ENERGY
##YFACTOR=1
##FIRSTX=220
##LASTX=410
##NPOINTS=96
##3DDATA=Equidistant
##ZUNITS=NM EX
##FIRSTZ=210
##LASTZ=400
##ZPOINTS=39
##XYDATA=(Y..Y)
##ZVALUE=210
8.865595
9.570718
7.414818
7.737875
7.309914
6.199479
6.822944
6.327629
5.982518
5.833507
3.063679
3.605485
2.142787
2.274513
3.230572
2.768636
2.923608
2.949834
3.588796
2.993941
2.746582
3.641844
3.752708
3.839731
5.080700
7.373691
10.894537
14.131665
17.536879
22.834539
26.030540
29.033422
31.259656
34.785867
37.055612
38.762689
37.032962
39.366484
35.847425
34.596920
33.367872
31.212568
29.529929
29.232502
26.490688
23.461580
21.437407
19.202828
17.933846
16.041994
14.893413
15.428662
13.829470
13.134480
11.995435
11.553764
11.622906
11.233687
9.931922
10.034442
9.196997
8.170605
8.717775
6.502867
8.165836
8.421540
8.351803
8.853674
8.547902
9.591579
12.004972
12.813807
14.790893
15.240908
16.770959
18.569827
18.681884
18.456578
18.400550
20.571947
16.649961
16.073585
12.935996
11.562705
8.947849
7.489920
6.635785
6.112456
6.868839
6.389618
7.145405
8.018613
8.832812
10.830760
12.329817
15.517473
##ZVALUE=215
28.066635
27.146935
25.067925
16.354918
15.273690
12.364984
11.538863
10.665655
11.094809
11.200905
10.817647
8.346438
6.848574
4.535913
3.871918
3.737807
2.992749
3.041625
3.193617
3.145933
3.000498
3.626943
4.148483
4.856586
6.407499
9.649992
12.645721
19.026995
23.619533
31.631589
34.843683
42.891502
47.713518
50.195456
51.797628
51.921606
54.117441
50.234795
50.320625
50.138831
44.181943
42.522550
41.321516
36.868453
34.539700
31.041503
28.731823
28.545856
24.778843
23.541451
22.038817
17.807484
17.952919
18.790960
14.607906
14.983416
13.816953
12.734532
12.477636
12.179613
11.794567
10.502934
10.021925
10.758638
8.321404
9.353757
8.698702
9.287000
10.531545
10.141730
11.478662
12.986660
13.361573
14.966726
15.361905
14.103651
16.101599
14.301538
15.546679
14.761686
14.360547
12.740493
10.581613
9.586811
7.352829
7.155538
6.590486
6.237626
5.350709
5.174875
4.817843
5.410910
5.069971
5.479455
6.141663
7.984638
##ZVALUE=220
61.888695
64.307451
62.381625
57.872534
49.989820
37.716627
31.517744
24.304986
22.415519
21.716952
21.305680
18.537641
19.320846
16.885996
12.567639
9.691715
6.787777
5.006790
4.678965
3.617406
3.679991
4.278421
3.442764
5.769730
6.339550
10.574460
15.612841
21.520853
27.877688
37.933588
45.337677
52.741766
58.290958
62.208772
65.659881
66.515803
66.383481
64.810514
62.720776
62.482953
57.550669
54.311752
52.264929
46.479702
43.219924
38.756728
37.833452
32.668710
30.391812
28.451681
26.217699
23.474693
21.794438
20.009875
20.618439
17.565489
17.063618
15.448928
14.718771
12.788773
12.216568
11.403561
12.395978
10.885000
9.849668
9.678602
11.003613
10.268688
10.227561
10.258555
12.000799
13.413429
13.592839
14.464855
16.765594
14.630556
14.145970
14.998913
12.891889
13.334751
12.499690
12.881756
9.825826
10.206699
8.543730
7.030964
6.627440
6.872416
6.655455
6.231666
5.796552
5.841851
5.522966
5.675554
5.944967
5.469918
##ZVALUE=225
95.328689
95.339417
119.332671
130.261779
126.560926
120.553970
103.469491
75.496435
58.183670
43.448806
36.299825
33.208728
35.657883
34.194589
34.071803
31.529665
24.109483
20.237565
15.449524
9.790659
6.846786
4.595518
5.667806
5.679727
7.186532
11.341572
15.833974
21.561980
27.132630
33.896565
42.804480
49.610734
54.269433
59.311986
62.988997
62.386990
63.511729
60.462952
60.813427
59.385896
55.450797
52.228570
48.070550
45.702457
41.658878
39.436817
34.115911
32.192469
30.903816
27.543902
25.781989
23.129582
21.737814
22.035837
19.597411
19.142628
18.787980
17.468929
13.824701
15.182495
13.276935
13.436675
11.464953
11.433959
12.448430
12.203455
11.800528
11.745691
10.956526
11.247993
12.102723
12.233853
13.829470
14.130473
13.824701
14.694929
14.890432
13.365746
12.738705
11.872649
12.128949
11.016726
10.512471
9.282827
8.068681
7.880926
7.611513
6.433725
6.756783
7.011890
7.291436
6.076694
6.531477
5.872846
6.192923
5.916953
##ZVALUE=230
66.655874
71.374774
109.638572
161.041617
197.955966
222.201943
224.496722
216.409564
184.491873
155.282617
103.712678
74.730515
57.969689
52.024722
52.780509
52.710772
54.517984
51.652789
46.737790
37.876964
30.562878
19.337535
12.214780
8.546710
7.058978
8.837581
11.103749
15.123487
18.518567
23.236871
27.593970
31.409860
34.775734
39.531589
40.150881
42.696595
42.811632
43.395758
39.840937
37.828684
35.989881
35.927892
34.240484
31.355619
28.464794
27.181506
26.949644
24.477839
24.594665
21.421909
18.898845
19.839406
19.188523
16.971827
17.564893
16.594529
14.928579
15.430450
14.569759
13.926625
13.125539
13.777614
13.615489
13.301969
12.797713
12.492537
11.037588
13.344884
11.747479
12.774467
13.500452
13.604760
14.803410
15.829802
15.460849
14.947653
16.169548
15.303493
13.222694
14.109612
12.597442
11.035800
10.075569
10.423660
9.333491
9.481907
9.064674
9.152889
7.396936
7.726550
8.065701
7.955432
7.043481
8.405447
6.950498
7.474422
##ZVALUE=235
19.496679
22.627711
53.130984
91.318488
168.982744
234.479904
317.412615
383.949876
411.515832
399.882793
344.167948
280.551910
209.266543
137.644410
101.489425
79.834461
78.917742
82.923770
86.025000
83.123446
78.863502
68.200827
49.192905
38.171411
25.105476
18.871427
12.149811
11.319518
11.031628
13.842583
14.228821
17.009974
18.119812
18.079877
19.669533
20.710826
21.781921
21.302700
20.192862
21.388531
20.943880
19.789934
20.603538
21.077991
20.190477
18.560886
16.953945
16.839504
16.565919
16.122460
15.042424
16.243458
15.190840
14.220476
15.812516
13.651848
12.761950
14.252663
12.306571
13.445616
13.824701
13.716817
13.455749
11.667609
12.558699
12.978911
12.091994
13.124943
12.713671
14.775991
14.851689
15.820861
15.548468
15.501976
17.069578
17.269850
16.523600
15.723705
16.497970
14.520884
15.472770
11.646748
11.825562
12.518764
12.881756
10.621548
10.867715
11.002421
10.558963
9.374619
9.762645
9.398460
9.105802
8.845925
9.458661
9.682775
##ZVALUE=240
2.579689
2.473593
9.896755
20.841956
58.713555
116.821527
218.558908
332.147479
495.519638
598.814487
660.644770
648.317933
596.471429
463.247895
367.855430
220.763683
160.263777
108.993649
99.275708
103.289485
115.515590
119.003654
115.840435
104.289651
83.793998
67.777634
48.247576
34.099817
24.072528
16.874671
14.667511
14.097691
14.209747
13.665557
15.340447
16.878843
16.504526
17.955899
18.191934
18.106699
19.031763
17.443895
17.680526
17.069578
17.721653
16.355515
15.881658
17.106533
16.144514
16.267896
15.520453
17.126799
14.280677
15.173554
13.794899
14.625788
12.742877
13.365746
13.590455
12.530684
13.692975
12.969971
12.994409
12.935996
12.866855
12.818575
12.700558
14.225841
12.736917
13.551712
14.714599
15.647411
15.834570
16.807914
17.952919
18.506646
18.862486
18.308759
14.991760
16.240478
15.461445
13.515949
14.029741
12.531877
11.359453
10.731816
11.519790
11.138916
11.341572
10.794997
10.883808
10.958910
9.974837
10.957718
9.994507
9.973645
##ZVALUE=245
1.672506
1.810789
1.719594
2.594590
3.839731
16.007423
41.705966
113.455653
199.515820
345.819592
470.739007
624.144673
687.699914
710.399747
665.602684
543.842912
427.610874
283.436775
190.823674
123.439431
101.614594
99.654794
112.441778
123.460889
129.063725
128.589869
111.896992
98.494887
74.032545
58.447719
43.251514
30.530691
25.800467
22.117496
20.045638
19.496679
20.861626
21.208525
20.098686
21.995902
21.394491
20.461679
20.805597
20.038486
18.944740
18.659830
17.981529
18.317699
18.481612
16.093850
15.913844
15.480518
15.482903
14.728904
14.831424
14.361739
13.618469
13.166666
12.544990
11.827946
11.367798
12.882948
10.804534
10.665655
10.241866
11.716485
11.248589
11.195540
11.659861
11.729598
12.753606
12.865663
13.958812
14.472604
14.752746
15.155673
14.742613
13.922453
13.637543
13.491511
13.213754
13.351440
11.356473
11.501908
10.373592
10.185838
11.403561
10.164976
10.060668
10.307431
9.756684
10.143518
9.919405
9.145737
9.662509
9.738803
##ZVALUE=250
1.562834
1.591444
1.492500
1.697540
1.340508
1.791716
2.690554
7.767677
31.929612
67.168474
157.895684
258.528590
375.350714
529.860854
632.866621
696.576834
687.989593
615.159869
510.523915
362.742543
246.900916
165.110826
105.450749
92.566609
104.657412
118.832588
139.280558
142.997503
139.619708
132.920742
115.491748
94.718933
74.308515
52.723885
41.994452
33.952594
30.521750
27.526617
28.504729
28.295517
26.986599
27.954578
26.745796
25.319457
24.200678
22.838712
22.261739
22.353530
20.156503
18.239617
19.017458
18.398762
17.305613
16.154647
15.428662
13.518929
13.177991
13.966560
12.218952
11.911988
10.917783
11.145473
9.799600
10.806918
10.252595
9.329915
9.821653
9.451509
10.067821
10.286570
9.743571
10.608435
11.155605
11.502504
12.149811
12.842417
11.414886
11.972785
10.205507
10.659695
10.389686
10.114908
10.878444
9.557605
9.339452
8.745790
8.740425
8.403659
8.555651
8.766651
7.935762
8.780956
8.641481
8.342862
8.542538
8.636713
##ZVALUE=255
1.370907
1.164675
1.235604
1.615882
1.396537
1.442432
1.783967
1.655817
2.227426
3.956556
21.138787
50.695539
101.071596
214.931965
334.319472
510.266423
629.836917
741.398931
777.138472
724.974871
631.843805
497.395992
323.909521
204.702616
122.922659
92.896819
94.983578
109.142661
135.537982
156.828761
165.621638
166.573524
156.669617
133.427978
114.730000
87.358952
73.372722
54.955482
48.554540
41.436553
38.389564
37.241578
36.076903
33.487678
32.641888
30.752420
29.218793
27.258992
26.552677
23.798943
22.826791
20.478964
19.364953
18.557906
17.502904
15.861988
15.763640
14.010668
13.572574
12.826920
11.832714
11.220574
9.991527
10.085702
10.119677
10.540485
9.444952
9.032488
9.593964
9.175539
9.704828
9.324551
10.451674
10.443926
11.272430
10.512471
10.128617
10.249615
9.841919
9.492636
9.163618
8.831620
8.561611
8.194447
7.692575
8.136630
8.253455
7.153749
8.196831
7.675886
6.936789
7.818937
7.563829
7.695556
6.171465
7.239580
##ZVALUE=260
1.002550
0.969768
0.725985
1.234412
1.119971
1.183748
1.377463
1.187921
1.560450
1.578927
1.807809
2.674460
7.608533
32.766461
71.787834
173.747540
279.280543
457.340479
598.205924
776.077509
850.870013
853.845477
756.523013
620.069504
413.708687
292.587876
177.134871
120.254755
96.513629
105.342865
129.367709
162.112713
181.323886
199.353695
196.357965
179.169774
162.791610
132.363439
109.202862
82.689524
67.168474
55.560470
49.183965
43.569803
42.097569
38.023591
37.551522
34.158826
31.261444
28.024912
27.416945
26.135445
24.280548
21.961927
19.493699
17.805696
16.732812
15.280843
14.864802
14.957786
13.181567
12.238622
10.442734
10.648966
10.276437
9.626746
9.594560
9.875894
8.842945
9.263754
8.694530
9.655952
9.699464
9.808540
9.117723
9.157658
10.059476
8.660555
8.707643
8.559823
8.570552
7.293820
7.916689
7.967949
7.191896
6.942749
7.181764
6.599426
6.997585
6.374717
6.980896
6.872416
6.582737
6.345510
6.590486
6.645918
##ZVALUE=265
0.934601
1.024604
0.999570
1.192689
0.942945
1.179576
1.102686
1.003742
1.068711
1.183748
1.431704
1.555681
1.497865
1.802444
5.048513
19.153953
64.650774
122.271776
257.564783
409.436822
577.119589
785.603523
897.042751
932.763815
868.420005
708.650947
565.359592
374.133587
251.317620
155.356526
121.147633
113.801956
128.858685
166.874528
190.453529
212.528706
219.824910
209.798813
195.614696
167.861581
140.918493
107.449889
86.307526
66.171885
54.799914
46.851635
44.023991
37.449598
35.021901
33.314824
31.266809
28.224587
25.931001
23.453832
22.253990
20.085573
18.213987
17.132759
15.192628
14.756918
13.852715
12.738705
12.873411
11.335611
10.306835
9.716749
9.396672
9.189844
9.726882
9.204745
9.337664
8.948445
8.670688
9.597540
9.097457
8.527637
8.555651
8.325577
7.585883
8.277893
7.673502
7.290840
7.500648
6.944537
6.409883
6.380677
6.682873
6.472468
6.448627
6.313920
6.445646
6.093979
6.228685
6.185770
5.630851
6.443858
##ZVALUE=270
0.960827
0.948906
1.087785
0.878572
1.082420
0.987649
1.285672
1.371503
1.516938
1.248717
1.256466
1.357794
1.361966
1.806617
1.772642
1.754761
2.187490
9.592772
29.686689
95.824003
185.827613
318.253636
550.384521
735.663772
922.564864
983.886719
972.270966
894.175768
700.870752
544.677973
391.064882
234.587789
160.109997
119.460821
120.087862
143.405795
167.069435
195.418000
208.524466
214.289427
206.985474
186.844468
164.963007
130.216479
101.471543
75.272918
61.536431
48.346519
40.144920
33.392906
31.693578
28.511882
26.052594
24.168491
22.657514
20.441413
19.146800
16.708970
15.772581
15.159845
13.929605
12.655854
12.192726
11.912584
11.067986
10.625720
10.393858
9.448528
9.500980
9.248853
9.283423
9.481907
9.457469
8.785725
9.042621
9.000897
8.546710
8.231997
7.768869
7.927418
7.780790
6.898642
6.784797
7.140636
6.875992
6.531477
6.070733
6.682873
6.001592
6.028414
5.938411
6.050467
6.024837
5.275607
5.744696
5.555749
##ZVALUE=275
0.666976
0.564456
0.657439
0.573993
0.726581
0.818968
0.552535
0.802875
0.745654
0.737906
0.836849
0.825524
0.826716
0.816584
0.929832
1.249909
1.101494
1.674891
1.389980
4.451871
17.428994
50.124526
145.802498
271.703005
495.031476
667.781830
863.319635
983.417630
1015.868783
994.230509
885.314941
667.417645
488.522649
283.726454
184.088945
112.128854
94.865561
103.410482
122.527480
148.492455
170.217752
187.875628
194.094777
184.062719
166.283846
135.901570
111.475587
82.077980
64.320564
44.188499
33.982992
25.564432
22.426844
19.660592
18.781424
17.607808
16.148686
15.067458
14.203787
12.310743
12.374520
11.498928
11.320710
10.240674
10.104775
9.513497
9.409785
8.972883
9.087920
8.671880
8.514524
8.796453
8.829832
8.218884
8.312464
8.198619
7.585883
7.918477
7.702708
6.711483
7.105470
6.511807
6.283522
6.253719
6.213784
6.307960
5.658865
6.309748
5.911589
5.472898
5.409718
4.968643
5.313754
5.328655
5.189776
5.219579
##ZVALUE=280
0.648499
0.640750
0.919700
0.664592
0.548959
0.631809
0.815988
0.683665
0.737906
0.826716
0.922680
0.772476
0.760555
1.093745
0.930429
1.061559
1.053810
1.119971
1.352429
1.500845
1.384616
1.987815
11.178851
36.521554
118.097663
209.651589
392.473936
567.825437
808.947682
950.606465
1016.031504
1016.031504
951.161981
731.785893
546.228886
321.902633
200.361609
101.406574
66.743493
60.286522
71.609616
97.161531
120.157599
146.721601
159.510970
165.444613
159.425735
141.558647
122.285485
91.787577
70.792437
47.051907
33.916831
21.765828
16.828775
13.160706
12.237430
11.706948
11.558533
10.998845
10.086894
10.150671
9.828806
9.969473
9.038448
9.110570
8.722544
8.187890
8.225441
8.207560
8.289814
8.348823
8.869767
7.898808
8.098483
8.060932
7.062554
7.336736
7.166862
7.234812
7.149577
6.263852
6.764531
6.465912
6.428957
5.956888
5.423427
5.271435
5.646944
5.632639
5.907416
5.371571
5.424619
5.459785
5.587935
5.196929
##ZVALUE=285
0.530481
0.611544
0.547767
0.594854
0.387430
0.777841
0.770688
0.635982
0.684857
0.595450
0.686646
0.689626
0.571609
0.738502
0.754595
0.637770
0.747442
0.883937
1.065731
1.029968
1.138449
1.196861
1.405478
1.580715
5.683899
19.461513
64.526796
135.420561
293.028951
446.864963
613.449812
860.447884
997.980833
1015.974879
1002.831459
825.367570
654.121637
414.410830
259.941816
126.436949
68.693757
38.324594
39.358735
57.818890
77.769756
107.229948
126.647949
145.585537
152.373910
148.616433
135.220885
111.818910
90.704560
63.114762
44.732690
27.381778
18.871427
13.019443
10.339618
9.510517
8.994937
9.022951
8.279681
8.595586
8.260608
8.299947
8.103848
8.272529
8.261800
8.115768
8.085966
8.077621
8.153915
8.215904
8.199811
8.019805
7.267594
7.396936
7.063746
7.217526
6.905794
6.398559
6.311536
6.287694
5.860925
5.807877
5.719662
5.613565
5.834699
6.062984
5.070567
5.291700
5.130768
5.217791
5.286932
5.351901
##ZVALUE=290
0.630617
0.676513
0.736713
0.630617
0.505447
0.615716
0.702739
0.676513
0.715852
0.723600
0.742674
0.684857
0.720620
0.568628
0.745654
0.644922
0.731945
0.932813
0.920892
0.999570
0.956655
1.112819
1.114607
1.226664
1.204610
1.410842
2.455711
7.514954
35.870671
86.251497
166.338682
344.249606
527.069569
789.024830
954.223871
1016.030908
1016.030908
920.342803
758.844614
511.856675
340.525508
171.826482
92.917681
39.153695
27.613640
35.760999
50.498843
74.016452
94.108582
120.951533
137.082934
144.803524
143.000484
128.890872
111.008883
83.067417
63.135624
40.817857
28.121471
17.031431
12.562871
10.225773
8.877516
8.370876
7.841587
8.056760
8.334517
8.536577
8.096695
7.972717
7.940531
8.566976
8.622408
8.044839
8.154511
7.395744
8.082986
7.853508
7.596612
7.272959
6.729960
6.315708
6.541610
6.508827
6.329417
6.392598
6.276965
6.004572
6.056428
5.836487
5.697608
5.411506
5.588531
5.218983
5.478859
5.149841
##ZVALUE=295
0.601411
0.553727
0.430942
0.547767
0.367761
0.542998
0.482798
0.622869
0.597835
0.493526
0.709891
0.682473
0.819564
0.719428
0.689626
0.688434
0.612736
0.907779
0.758767
0.715852
0.701547
1.050830
0.838637
1.071692
1.249909
1.220703
1.229644
1.379848
1.793504
3.466606
18.244982
52.004457
117.805600
276.435614
440.108776
692.975521
868.381858
1015.315652
1016.032696
998.904705
857.183933
620.774627
425.853729
224.075913
126.917958
50.226450
27.125478
23.137927
29.974580
48.535466
65.815449
91.452003
112.227798
130.695701
137.481689
136.648417
125.817657
102.151632
82.820654
58.881640
42.841434
26.094913
18.252730
11.876822
9.506941
8.289814
7.759929
7.702708
7.679462
7.800460
7.698536
8.237958
8.159876
8.416772
7.842779
8.282661
8.298755
7.869601
7.373691
7.016659
7.038713
6.962419
6.795526
6.707907
6.558895
6.233454
6.145835
5.510449
5.739927
5.712509
5.615950
5.750656
5.561709
5.733967
5.318522
5.499721
##ZVALUE=300
0.468493
0.527501
0.506639
0.544786
0.534654
0.342727
0.527501
0.467896
0.464916
0.488758
0.525713
0.468493
0.627637
0.559688
0.404716
0.683665
0.543594
0.682473
0.586510
0.801682
0.863671
0.920892
0.762939
0.850558
1.022816
0.911951
1.185536
0.999570
1.099706
1.185536
1.425743
1.787543
7.079840
26.830435
91.373920
179.563761
362.279415
549.411774
797.811747
951.012969
1016.032696
1016.032696
919.103622
758.909583
505.056977
332.890749
168.378949
89.429617
34.077764
18.831491
19.128919
26.645660
42.608976
59.200525
83.480477
102.460980
122.331977
131.000876
129.295588
119.821429
101.768970
81.878901
57.967901
42.121410
27.251840
18.652678
11.931658
9.417534
8.096695
7.734895
7.447600
7.619858
7.833838
7.598996
7.438660
7.172823
7.122755
7.294416
7.117987
6.861687
6.682873
6.900430
6.214976
6.423593
6.845593
6.273985
6.251931
6.157756
6.014705
5.660653
5.547404
5.564690
5.086660
5.096793
5.173683
5.117655
##ZVALUE=305
0.406504
0.421405
0.381470
0.452995
0.390410
0.401735
0.491738
0.520945
0.379682
0.569820
0.506639
0.551939
0.512600
0.571609
0.446439
0.603795
0.671744
0.579953
0.587702
0.564456
0.674725
0.612736
0.687838
0.493526
0.764728
0.924468
0.997782
0.871420
0.963807
1.122952
1.071692
1.310706
1.335740
1.717806
3.100634
18.307567
50.090551
143.493414
256.772637
470.188856
656.248927
889.960527
1008.489728
1016.031504
989.767909
788.563490
614.755750
390.012860
242.437720
112.017989
55.728555
20.996928
13.889670
17.361641
24.909973
41.193962
58.317780
81.039667
97.990632
115.163922
123.336911
120.252967
113.287568
95.955729
78.209639
54.713488
40.019751
25.341511
17.287731
11.438727
8.972883
7.710457
7.479787
7.313490
7.251501
7.418990
7.324815
6.997585
6.846786
6.498694
6.682873
6.361604
6.104708
6.395578
6.297827
6.392598
5.964637
5.853772
5.772710
5.610585
5.097985
5.372763
5.285740
5.152822
5.177855
5.032420
##ZVALUE=310
0.420809
0.503659
0.392795
0.434518
0.451803
0.378489
0.447631
0.447631
0.397563
0.401735
0.335574
0.547767
0.303984
0.653863
0.508428
0.401735
0.591874
0.522733
0.675917
0.589490
0.440478
0.672936
0.607967
0.560880
0.721812
0.852942
0.698566
0.877976
0.925660
1.010895
0.900626
1.171827
0.963807
1.190901
1.260638
1.394749
1.737475
7.823706
26.239753
87.727904
172.250867
354.806781
534.150004
782.713890
943.353772
1016.031504
1016.031504
911.276937
752.905011
505.609512
340.011716
171.241760
92.807412
33.868551
15.819669
11.760592
14.557838
23.348927
33.868551
52.612424
69.553852
90.526938
106.854439
116.253495
117.430687
106.750727
94.591975
74.071884
56.428909
36.722422
26.323795
16.482472
11.560917
8.439422
7.709861
6.935596
6.590486
6.439686
6.232858
6.199479
5.999804
5.689859
5.897880
5.857944
5.928874
5.762577
5.673766
5.706549
5.722642
5.383492
5.350709
5.175471
4.793406
5.189776
4.642606
4.539490
##ZVALUE=315
0.367761
0.373721
0.389814
0.434518
0.472665
0.504851
0.661612
0.410676
0.584722
0.500679
0.402927
0.598431
0.510812
0.502467
0.490546
0.387430
0.610948
0.525713
0.499487
0.669956
0.546575
0.654459
0.679493
0.754595
0.789762
0.672936
0.812411
0.805855
0.679493
0.838637
0.858903
0.972748
0.990629
1.114607
1.287460
1.213551
1.244545
1.332760
1.501441
3.539920
13.422966
55.182576
118.773580
271.803737
439.471006
700.068474
865.252614
1009.351015
1016.129851
969.543457
833.320022
603.365898
427.218676
229.414701
126.659870
47.350526
20.266771
10.154843
10.439754
14.292598
19.923449
32.948852
46.550632
66.082478
82.655549
98.862648
107.985735
109.175444
103.084445
86.168647
72.216988
52.680969
37.782788
23.730993
16.025901
10.305643
8.046627
6.577969
6.239414
6.051660
6.040931
5.857944
5.888939
5.693436
5.570650
5.438924
5.526543
5.376935
5.478859
5.490780
5.395412
5.392432
5.006790
5.079508
4.949570
4.947782
##ZVALUE=320
0.388622
0.383854
0.506639
0.282526
0.429749
0.367761
0.260472
0.248551
0.341535
0.367761
0.386834
0.178814
0.337958
0.421405
0.408888
0.561476
0.518560
0.500679
0.380874
0.393987
0.617504
0.450611
0.441670
0.548959
0.441670
0.588894
0.678897
0.497699
0.718832
0.631809
0.683665
0.722408
0.861883
0.781417
0.917912
0.710487
0.962615
1.025796
1.149774
1.189709
1.372695
1.992583
6.164908
32.713413
80.045462
202.142596
334.506631
552.317500
733.869672
936.359763
1016.031504
1009.534597
917.081833
706.572533
517.456532
293.089747
168.667436
71.398616
32.284856
11.527538
8.602738
9.222627
11.831522
18.134713
26.220679
43.292642
57.600737
77.293515
91.262460
101.742744
103.022456
95.571876
85.039735
66.034794
50.034523
33.423901
23.144484
14.640689
9.640455
7.055998
5.927682
5.517602
5.014539
5.115867
5.095601
5.052686
5.151629
4.791617
4.784465
4.937649
4.827976
4.764795
4.868507
4.955530
4.617572
4.533529
##ZVALUE=325
0.077486
0.228882
0.144839
0.127554
0.008941
0.214577
0.341535
0.309944
0.093579
0.213981
0.311732
0.285506
0.347495
0.237823
0.334978
0.403523
0.323653
0.334978
0.221729
0.332594
0.183582
0.180602
0.359416
0.557899
0.403523
0.496507
0.463724
0.350475
0.462532
0.541806
0.520945
0.535846
0.510812
0.524521
0.610948
0.512600
0.693798
0.663996
0.887513
0.884533
0.925660
1.026988
1.209974
1.337528
3.754497
15.082955
58.887601
123.456717
270.587802
434.836745
680.909753
845.358968
994.753838
1015.915871
935.462713
790.241957
544.786453
377.859473
199.184418
108.980536
41.202903
17.294884
8.205771
7.214546
8.576512
10.162592
16.944408
25.255680
42.075515
56.134462
74.660778
86.404681
95.386505
96.908808
89.025497
78.028440
61.198473
46.586990
30.680895
21.120906
12.550950
9.061694
6.661415
5.688667
4.916787
4.656911
4.731417
4.625916
4.752874
4.550815
4.721880
4.252791
4.499555
4.225969
4.325509
4.211664
##ZVALUE=330
0.274777
0.324845
0.267625
0.336766
0.444651
0.223517
0.282526
0.393987
0.242591
0.212789
0.267625
0.411868
0.218749
0.527501
0.350475
0.462532
0.286698
0.265837
0.359416
0.228882
0.369549
0.316501
0.367761
0.352859
0.448823
0.531673
0.504851
0.515580
0.592470
0.616908
0.591874
0.656843
0.533462
0.504851
0.670552
0.536442
0.604987
0.963807
0.753999
0.992417
0.852942
0.901818
0.956655
1.154542
1.218915
1.439452
1.940727
8.801818
28.446913
92.839003
178.517699
353.443623
521.312952
757.820606
901.515484
1000.887752
969.626904
811.564922
656.332970
430.015922
278.311968
129.988790
66.836476
23.672581
10.792613
6.498694
6.407499
7.350445
10.086894
16.238689
24.131536
38.882494
52.248836
70.554614
81.057549
88.850856
89.965463
82.203746
73.184967
56.336522
43.298602
27.646422
20.539761
12.891889
9.461641
6.451607
5.622506
4.948974
4.735589
4.357696
4.266500
4.274845
4.197955
4.281998
4.228950
4.184842
##ZVALUE=335
0.009537
0.100732
0.207424
0.092983
0.304580
0.122786
0.059605
0.171661
0.114441
0.274777
0.169873
0.260472
0.235438
0.124574
0.167489
0.267625
0.237823
0.113845
0.053644
0.052452
0.187755
0.323653
0.311732
0.278950
0.296831
0.340939
0.158548
0.315905
0.363588
0.316501
0.248551
0.336766
0.419617
0.296831
0.455976
0.356436
0.464916
0.338554
0.523925
0.458956
0.640750
0.601411
0.675917
0.851750
0.773668
0.741482
0.866652
1.005530
1.353621
3.026724
18.179417
49.549937
138.309598
246.119499
449.548960
632.663965
844.761729
944.767594
969.552994
901.162028
713.734031
547.272563
329.046845
197.303891
84.656477
39.150715
12.890697
7.414818
6.044507
6.182790
7.019639
9.238720
15.142560
22.182465
35.996437
47.497749
63.187480
74.889660
83.419681
83.549619
77.573657
68.099499
54.306984
42.863488
29.773712
20.621419
12.948513
9.175539
6.234646
4.999638
4.454851
3.994703
4.159808
4.110932
3.691912
4.049540
##ZVALUE=340
0.219941
0.266433
0.246763
0.229478
0.252724
0.378489
0.115633
0.298619
0.184774
0.131726
0.191927
0.275970
0.245571
0.228882
0.373721
0.158548
0.129938
0.262856
0.204444
0.202656
0.195503
0.014901
0.299811
0.232458
0.243783
0.282526
0.367761
0.351667
0.311732
0.394583
0.445843
0.539422
0.474453
0.538826
0.581741
0.515580
0.486970
0.567436
0.648499
0.521541
0.671744
0.628829
0.601411
0.530481
0.549555
0.703931
0.798702
0.719428
1.057982
1.129508
1.236796
1.686811
9.090900
29.718876
95.618963
187.688470
380.599499
541.530848
755.175948
882.277489
957.102776
922.258496
773.426890
616.143942
386.745930
243.191719
111.897588
54.391623
16.394854
7.700920
6.114841
6.111860
6.140471
6.934404
9.383559
13.532639
22.340417
31.807423
46.729445
58.642626
71.190000
75.781941
77.767968
73.796511
63.217878
53.545833
39.802790
29.867887
19.256473
13.684630
8.432865
6.379485
4.707575
4.334450
4.169941
3.868937
##ZVALUE=345
0.168681
0.251532
0.144839
0.182986
0.185966
0.333786
0.207424
0.310540
0.194907
0.377893
0.380874
0.425577
0.170469
0.204444
0.327826
0.363588
0.212789
0.360608
0.217557
0.330806
0.314713
0.309944
0.366569
0.375509
0.460744
0.426769
0.437498
0.464916
0.320673
0.447631
0.428557
0.563860
0.476837
0.516772
0.514984
0.371933
0.476837
0.610948
0.433922
0.439882
0.595450
0.442863
0.691414
0.622869
0.530481
0.711679
0.729561
0.813603
0.745654
0.839829
0.991821
0.883937
1.070499
1.384616
3.733635
15.088916
62.141418
127.377510
269.885659
414.122939
636.638999
785.113573
911.123753
923.138857
816.998482
681.524873
466.568470
307.436585
144.607425
71.461797
23.677945
10.921955
6.364584
5.741715
5.347729
5.636811
6.310940
8.164644
13.089776
19.375682
30.547976
40.879846
53.797960
62.787533
70.163608
71.798563
68.600774
61.901808
49.583912
40.571690
28.117895
20.308495
12.742877
8.995533
6.038547
4.817843
##ZVALUE=350
0.283718
0.352859
0.129938
0.361800
-0.113845
0.310540
0.194907
0.082850
0.294447
0.235438
0.122786
0.145435
0.136495
0.464916
0.150800
0.279546
0.324845
0.384450
0.277758
0.129938
0.226498
0.332594
0.315905
0.359416
0.141859
0.326633
0.272989
0.298619
0.306964
0.391603
0.237823
0.202656
0.364780
0.331998
0.373721
0.404716
0.350475
0.220537
0.668764
0.393987
0.557899
0.559688
0.407696
0.372529
0.450611
0.437498
0.575781
0.545979
0.673532
0.723600
0.668764
0.763535
0.940561
0.819564
1.085997
1.209974
1.601577
9.685755
31.043887
96.047521
180.977583
358.438492
516.915917
717.153549
843.070745
904.752016
864.892602
712.427497
549.317598
329.653621
202.529430
94.146729
43.389797
12.971759
6.888509
5.722642
5.141497
4.941821
4.891753
5.926490
7.635951
11.972785
17.579794
26.757717
35.022497
47.435760
55.527687
63.954592
65.619946
63.008666
57.902932
46.691895
38.023591
27.054548
19.761920
12.782812
##ZVALUE=355
0.099540
0.231862
0.158548
0.183582
0.321865
0.261664
0.246763
0.260472
0.045896
0.137687
0.120997
0.226498
0.049472
0.096560
0.278950
0.129938
0.204444
0.236630
0.186563
0.312924
0.218749
0.286698
0.302792
0.206828
0.336766
0.278950
0.233650
0.282526
0.287890
0.287890
0.427961
0.340939
0.438690
0.384450
0.346899
0.338554
0.361800
0.457764
0.304580
0.412464
0.543594
0.333786
0.442863
0.397563
0.471473
0.377893
0.585914
0.624657
0.576973
0.665784
0.626445
0.752807
0.723600
0.769496
0.917912
0.907779
0.902414
1.079440
1.213551
4.319549
16.059875
62.065721
128.280520
265.906453
414.604545
635.846853
770.967603
871.800780
867.892504
749.166012
603.232980
389.310718
244.300961
110.210776
54.493546
18.880963
8.293986
5.380511
4.889965
4.570484
4.745722
4.888773
5.207658
6.694794
9.638667
15.376806
22.254586
32.162666
40.216446
50.077438
56.977868
60.628653
58.711767
52.977800
45.743585
35.202503
##ZVALUE=360
0.175834
0.156760
0.180602
0.285506
0.327826
0.294447
0.223517
0.206828
0.291467
0.110865
0.188947
0.180602
0.250936
0.181794
0.182986
0.255704
0.230670
0.449419
0.352859
0.289679
0.367761
0.289679
0.425577
0.374913
0.390410
0.338554
0.416636
0.304580
0.387430
0.580549
0.324845
0.281930
0.434518
0.357628
0.331998
0.353456
0.541806
0.556707
0.486970
0.505447
0.548959
0.407696
0.673532
0.380874
0.482798
0.601411
0.564456
0.406504
0.541806
0.493526
0.506639
0.632405
0.599623
0.623465
0.790954
0.794530
0.850558
0.964999
1.135468
1.199841
1.365542
2.179742
6.905794
33.337474
80.800653
196.730494
323.122740
520.997643
680.075884
823.243856
857.928991
795.660615
675.689578
462.443829
312.002897
152.321458
79.584718
29.287934
11.867881
5.354881
4.842877
4.434586
4.402995
4.301667
4.214644
4.628897
5.536675
8.456707
11.743903
18.141866
24.966598
35.865903
42.382479
50.276518
53.294897
53.042769
##ZVALUE=365
0.217557
0.205636
0.299811
0.177622
0.097752
0.208616
0.276566
0.327826
0.301600
0.188947
0.239611
0.288486
0.262856
0.335574
0.200868
0.190735
0.190735
0.281930
0.411868
0.202656
0.161529
0.202656
0.385642
0.287890
0.353456
0.370741
0.303984
0.294447
0.287890
0.311732
0.432730
0.517964
0.330806
0.466704
0.528693
0.197887
0.308752
0.380874
0.219941
0.302792
0.479817
0.537634
0.464916
0.442863
0.386834
0.418425
0.568628
0.497699
0.565648
0.521541
0.434518
0.567436
0.527501
0.752807
0.506639
0.522733
0.705719
0.854731
0.891685
0.960827
1.040697
1.032948
1.160502
1.481771
2.950430
17.199516
48.527718
135.393739
243.836641
432.095528
585.460663
748.931766
824.042559
804.782510
708.795786
521.530509
371.851921
205.253959
113.302469
43.434501
17.651916
5.968809
4.650950
4.339814
4.169941
3.710985
3.536940
3.634691
3.913641
4.607439
6.059408
10.150671
14.219880
21.665692
28.450489
37.757754
##ZVALUE=370
0.217557
0.303984
0.201464
0.104904
0.249743
0.323653
0.269413
0.333786
0.203848
0.080466
0.149608
0.105500
0.052452
0.183582
0.238419
0.309944
0.297427
0.300407
0.280738
0.229478
0.263453
0.476837
0.482798
0.289679
0.262856
0.240803
0.352859
0.195503
0.309944
0.174642
0.396967
0.302792
0.309944
0.459552
0.374913
0.302792
0.583529
0.497699
0.386834
0.369549
0.309944
0.425577
0.273585
0.332594
0.461936
0.591874
0.359416
0.356436
0.512600
0.515580
0.523925
0.550747
0.594854
0.556707
0.417829
0.613928
0.607967
0.664592
0.708699
0.637770
0.783801
0.779629
0.727773
1.055598
1.019835
1.180768
1.648664
8.950830
30.749440
98.599792
183.023810
343.348980
500.764847
694.910884
792.012811
817.281604
751.729608
591.893792
440.284014
248.150826
141.348839
56.478977
25.743842
8.985996
5.001426
4.053712
3.937483
3.534555
3.672838
3.318787
3.066659
3.587604
3.777742
5.680919
8.164644
12.934804
##ZVALUE=375
0.373721
0.376701
0.473857
0.249743
0.496507
0.304580
0.296831
0.363588
0.437498
0.491738
0.462532
0.361800
0.428557
0.284910
0.413656
0.392795
0.409484
0.268817
0.354648
0.476837
0.426769
0.528693
0.410676
0.361800
0.244975
0.425577
0.352859
0.415444
0.590682
0.455976
0.283718
0.429749
0.373721
0.469685
0.625849
0.529885
0.617504
0.536442
0.588894
0.500679
0.583529
0.499487
0.582933
0.548959
0.470877
0.492930
0.578761
0.476837
0.620484
0.490546
0.655651
0.524521
0.674725
0.569820
0.720620
0.634789
0.590682
0.780821
0.697970
0.398755
0.647902
0.752807
0.901818
0.890493
0.840425
1.057982
1.039505
1.071692
1.443624
4.669428
16.334653
59.001446
124.542713
271.637440
417.372584
618.358850
736.278892
812.031031
789.406896
653.962493
506.930947
312.209725
199.484825
98.199844
49.212575
15.917420
6.584525
4.017949
3.911853
3.567934
3.367662
3.160834
3.123879
3.029704
3.027916
3.490448
##ZVALUE=380
0.194907
0.229478
0.271797
0.128746
0.177622
0.229478
0.102520
0.094771
0.024438
0.167489
0.148416
0.233650
0.120997
0.187755
0.244975
0.278950
0.039935
0.273585
0.146627
0.186563
0.164509
0.278950
0.258684
0.160933
0.209808
0.186563
0.222921
0.230670
0.356436
0.335574
0.466704
0.398755
0.444651
0.383854
0.476837
0.497699
0.567436
0.372529
0.439882
0.606775
0.512600
0.227690
0.537634
0.388622
0.242591
0.321865
0.433922
0.377893
0.398755
0.409484
0.414848
0.530481
0.277758
0.370741
0.621676
0.505447
0.490546
0.466704
0.563860
0.501871
0.471473
0.503659
0.416636
0.520945
0.556707
0.608563
0.720620
0.897646
1.093745
0.998974
1.314878
2.163649
8.691549
41.227937
95.121861
220.079422
350.496769
542.065501
681.353807
795.970559
800.783634
696.492791
574.497581
400.620699
269.560814
132.693648
68.651438
23.899674
9.584427
4.079938
3.640652
3.218651
3.221631
2.953410
2.837777
2.744794
##ZVALUE=385
0.229478
0.147820
0.182986
0.110865
0.218749
0.212789
0.061989
0.112653
0.206828
0.146627
0.221729
0.152588
0.194907
0.201464
0.216961
0.114441
0.134706
0.115633
0.150800
0.136495
0.196695
0.318885
0.263453
0.186563
0.245571
0.356436
0.375509
0.408888
0.393987
0.556707
0.660419
0.866652
0.923872
0.987649
0.823736
0.922680
0.749826
1.068711
0.677705
0.934601
0.952482
0.771880
0.923872
0.589490
0.818968
0.641942
0.627637
0.738502
0.491738
0.659823
0.517964
0.530481
0.470877
0.453591
0.515580
0.527501
0.269413
0.444651
0.390410
0.503659
0.625849
0.492930
0.425577
0.544786
0.481606
0.631809
0.818968
0.754595
0.896454
0.978708
1.018643
1.056790
1.144409
1.473427
4.901886
17.436743
64.008832
136.551857
289.261937
434.439778
628.908873
733.268857
789.760947
760.672688
640.907884
508.135557
324.589014
208.943486
95.693469
47.114491
15.388727
5.948544
3.414750
3.090501
3.029704
2.734661
##ZVALUE=390
0.243783
0.124574
0.121593
0.216961
0.393987
0.237823
0.189543
0.224710
0.226498
0.170469
0.249743
0.173450
0.196695
0.135899
0.224710
0.171661
0.178814
0.323653
0.318885
0.146627
0.360608
0.263453
0.338554
0.155568
0.388622
0.454783
0.524521
0.505447
0.811815
0.921488
1.162887
1.194477
1.512766
1.580715
1.674891
1.448989
1.586676
1.622438
1.575947
1.477599
1.487732
1.358986
1.394749
1.147985
1.275539
0.843406
0.900626
1.062751
0.817776
0.729561
0.700951
0.643730
0.708699
0.627637
0.581741
0.650883
0.542998
0.472665
0.587702
0.537634
0.341535
0.511408
0.486970
0.644922
0.597835
0.684857
0.681877
0.661612
0.833869
0.733733
0.862479
0.848770
0.986457
0.788569
1.073480
1.092553
2.101660
12.268424
37.966967
111.762881
206.826925
386.236906
530.101657
694.486499
770.734549
785.886645
722.339749
569.250584
436.431766
265.106559
153.207779
62.227845
28.829575
9.062886
4.030466
2.966523
##ZVALUE=395
0.202656
0.198483
0.165701
0.193715
0.124574
0.198483
0.087619
0.210404
0.207424
0.154972
0.273585
0.270605
0.080466
0.135899
0.214577
0.047684
0.259876
0.232458
0.129938
0.235438
0.234842
0.268817
0.214577
0.248551
0.455976
0.481606
0.550747
0.977516
1.217723
1.483560
1.714826
1.881719
2.125502
2.399683
2.339482
2.372861
2.529621
2.455711
2.360940
2.314448
2.173781
1.902580
1.834631
1.666546
1.589656
1.518726
1.265407
1.353621
1.164675
1.145601
1.137853
0.923872
0.929832
0.828505
0.683665
0.601411
0.659823
0.657439
0.573993
0.551939
0.677705
0.586510
0.668764
0.632405
0.645518
0.578761
0.602603
0.725985
0.870824
0.776649
0.744462
0.981688
0.839829
0.768900
0.952482
0.884533
0.780821
1.113415
1.451969
6.936789
24.819970
84.038973
158.996582
298.906565
436.282754
629.211664
740.847588
812.170506
785.744786
663.435459
519.864559
323.480964
201.661587
87.373853
42.094588
13.506413
##ZVALUE=400
0.228882
0.339746
0.170469
0.203848
0.257492
0.170469
0.161529
0.197887
0.245571
0.077486
0.165701
0.272989
0.228882
0.351667
0.232458
0.082850
0.314713
0.222921
0.015497
0.165701
0.118613
0.139475
0.120997
0.145435
0.338554
0.374913
0.734925
0.899434
1.193881
1.511574
1.958609
2.273917
2.636909
2.737641
2.891421
2.851486
2.953410
2.783537
2.780557
2.666712
2.491474
2.331734
2.314448
2.169609
1.860857
1.522899
1.462698
1.402497
1.456738
1.350641
1.112819
1.255870
1.002550
1.000762
0.948906
0.851750
0.914931
0.774860
0.733733
0.780821
0.671744
0.599623
0.720620
0.611544
0.684857
0.694990
0.675917
0.614524
0.758767
0.798702
0.670552
0.801682
0.767708
0.785589
0.873804
0.767708
0.909567
0.759959
0.807643
0.934601
1.173615
3.200769
12.772679
50.070882
106.319785
229.031444
358.733535
547.517538
670.583844
775.152445
782.603025
688.318610
571.302772
391.936898
260.099769
132.368803
##END
