##TITLE=FSH702
##FORMAT=SPECTACLE-ASCII V-1.2
##DATA TYPE=ULTRAVIOLET SPECTRUM
##SECOND TYPE=ULTRAVIOLET SPECTRUM
##DATE=04/30/18
##TIME=15:14:39
##SPECTROMETER/DATA SYSTEM=SPECTACLE
##XUNITS=NM EM
##YUNITS=ENERGY
##YFACTOR=1
##FIRSTX=220
##LASTX=410
##NPOINTS=96
##3DDATA=Equidistant
##ZUNITS=NM EX
##FIRSTZ=210
##LASTZ=400
##ZPOINTS=39
##XYDATA=(Y..Y)
##ZVALUE=210
2.098680
1.363754
1.582503
1.627803
1.569986
2.027750
1.649857
1.783967
1.963973
1.837611
1.795888
1.637936
2.053976
1.999736
2.527833
1.813769
2.162457
2.627969
2.706647
3.034472
3.072619
2.573729
3.483891
2.690554
3.727674
3.208518
3.585815
4.005432
4.104972
4.132986
4.177690
3.967881
4.153848
4.482865
4.028678
4.315972
4.605651
3.838539
3.761649
4.750490
4.277825
4.882812
4.541874
5.176663
4.172921
4.461408
4.771948
4.112720
4.772544
4.537702
4.790425
5.141497
4.124641
4.706979
5.254745
5.561709
4.446507
4.214644
4.622936
5.726814
5.283952
5.777478
5.019903
4.850626
5.088449
4.900694
6.424785
6.176829
5.915761
8.138418
9.036660
10.700822
10.416508
12.001991
13.768673
13.180971
14.188886
13.804436
12.990832
12.385845
12.476444
11.604428
10.313988
9.785891
6.860495
6.847978
5.097985
5.086660
4.690886
5.360842
5.036592
4.543662
5.195737
5.841851
5.638599
5.369782
##ZVALUE=215
3.306866
3.177524
3.093481
2.940893
2.095699
2.744794
2.609491
3.150702
2.757907
2.827644
2.996922
2.996922
3.166795
3.057718
2.616644
2.055764
2.777576
2.517700
2.661943
2.942681
3.227592
2.703667
2.720952
3.607869
3.847480
4.289746
4.252791
4.817843
4.985929
5.177855
5.651712
5.295873
6.193519
5.467534
5.789995
6.485581
6.103516
5.985498
6.788969
5.337596
6.451607
5.681515
5.941987
6.760955
5.916953
6.039739
5.084872
6.278753
5.315542
5.951524
4.877448
5.952716
5.393624
5.234480
5.342960
5.364418
6.338954
5.669594
5.760789
4.311800
5.128980
5.265474
5.002618
5.309582
5.919933
6.308556
6.259680
6.371737
7.204413
8.601546
9.177923
9.768605
10.812879
10.845661
11.501908
11.462569
12.877584
13.254881
12.975931
11.786819
10.724664
9.719729
8.820891
8.328557
7.065535
6.514788
6.960630
4.961491
6.034970
5.443692
5.208850
5.576611
5.462766
5.717874
5.480647
5.989671
##ZVALUE=220
10.408759
11.007786
10.748506
11.937618
11.289716
8.402467
7.461905
6.602407
5.397797
6.079674
6.931424
7.277727
7.616878
5.787611
6.466508
5.601645
4.833937
3.995895
3.520846
2.950430
3.316998
3.449917
2.954602
3.492832
3.809929
4.618764
4.822612
5.605817
6.033778
6.294847
7.234812
6.862879
9.288788
9.212494
9.223819
9.359717
8.612871
9.228587
10.147691
8.551478
8.976460
8.628964
8.036494
8.388758
8.799434
8.008480
7.974505
7.927418
7.044673
7.071495
7.769465
7.007718
7.612705
6.401539
6.433725
7.293820
6.134510
6.803870
6.826520
6.555915
6.216764
6.483793
6.446838
7.326603
6.974936
6.091595
6.092787
8.480549
6.880760
8.254647
9.601712
10.800958
12.090802
12.376904
13.141632
12.481809
13.155937
12.053847
11.983514
12.349486
11.034608
10.508895
10.247827
9.027719
8.091927
9.062886
9.339452
7.957816
7.885695
7.354617
7.096529
7.570982
7.734895
7.368922
7.867813
6.910563
##ZVALUE=225
20.939708
22.153854
30.299425
35.233498
38.327575
40.452480
38.551688
31.821728
25.985837
20.990968
15.956759
15.435815
17.495751
18.236637
17.216802
18.027425
16.507506
15.248656
10.822415
7.455945
6.466508
4.422665
3.592968
4.011989
3.252625
4.850626
6.112456
6.819963
7.506609
8.300543
10.223985
8.940697
10.722876
10.484457
11.365414
12.710690
12.770891
12.850761
12.839437
13.491511
11.299849
12.940764
11.940598
10.418892
11.123419
10.750890
10.846853
10.298491
10.047555
9.217858
9.598732
9.496808
9.533763
9.204745
9.875894
10.096431
9.362698
8.882880
9.882450
9.519458
9.224415
9.590983
9.394884
9.657741
10.898709
10.166764
9.865761
11.013746
12.207627
12.235641
13.304949
14.119744
15.043616
15.778542
16.853809
16.925931
16.981959
15.860796
17.365813
16.366839
15.518665
14.587641
14.716983
13.336539
13.813972
13.721585
12.515783
13.331771
13.876557
13.624430
13.720989
12.552738
12.164712
12.875795
13.709664
12.762547
##ZVALUE=230
20.658970
23.106933
41.017532
61.190724
84.847808
110.246539
115.156770
125.483871
112.055540
92.902780
72.456598
50.949454
40.080547
32.856464
36.296844
35.812855
40.315986
40.344000
37.185550
28.954744
24.692416
16.865730
11.056662
6.430745
5.521774
5.428791
5.796552
6.102920
7.263422
9.197593
9.696484
10.574460
10.495782
11.683702
13.411641
13.632774
14.116764
14.121532
13.273954
14.607906
12.594461
14.695525
12.621880
13.429523
14.826655
13.548732
12.954473
12.383461
11.676550
12.841821
12.231469
12.306571
12.806654
12.161732
12.476444
12.866855
12.531877
12.587905
13.320446
14.123917
13.467669
14.579892
14.946461
13.286471
15.259981
16.545653
16.185641
16.374588
17.779469
19.067526
19.792914
23.739934
24.109483
24.535656
22.647977
23.791790
26.688576
24.423599
26.307702
25.806427
27.332902
25.857687
25.045872
25.372505
25.675893
26.328564
24.192929
24.550557
23.974776
25.412440
24.191737
23.323894
24.235845
23.414493
23.260713
23.818612
##ZVALUE=235
9.336472
8.806586
24.361610
46.905875
86.531639
129.424930
188.033581
233.904719
266.859531
276.854634
241.871476
195.933580
156.662464
103.430748
78.583956
63.413978
58.523417
67.166686
73.282719
74.228644
74.041486
63.090920
45.392513
33.911467
21.861792
15.190840
9.376407
8.107424
7.436872
8.959770
8.652806
8.883476
10.125637
11.422634
11.254549
12.190938
13.036728
13.068914
13.545752
12.512803
14.054775
14.128685
13.805628
14.178753
12.678504
14.481544
12.839437
14.003515
12.994409
12.294650
12.254715
13.615489
13.646483
14.508963
14.287829
16.397834
14.495850
15.745759
16.833544
18.067956
16.480684
18.498898
19.787550
20.152926
21.181703
23.276806
24.618506
25.328994
26.617646
29.366612
27.432442
32.247901
32.662749
35.885572
35.595894
37.747622
37.220716
38.682818
38.868785
39.628744
39.185882
40.518641
40.480494
39.753914
41.143894
39.053559
39.647818
41.492581
40.593743
41.124821
40.828586
38.241744
40.029883
40.837526
39.625764
40.637851
##ZVALUE=240
1.575947
1.791716
5.826950
12.911558
40.070415
73.135495
150.313973
225.925446
337.758660
407.095551
469.327569
478.495955
441.106558
357.499719
279.369950
184.798837
130.658746
97.624660
86.490512
94.076991
104.418993
111.759901
108.932853
98.526478
79.156756
63.509941
43.495893
34.676790
20.344853
14.553666
10.463595
10.662675
10.148883
10.096431
11.001825
11.072755
11.552572
12.085438
13.899803
13.084412
11.955500
13.429523
13.114810
13.562441
15.468597
13.673902
14.571548
15.349984
13.760924
14.183521
14.129877
15.462637
15.603900
15.973449
17.123818
16.113520
18.617511
17.928481
19.291639
19.846559
20.714998
21.085739
22.291541
23.420453
26.112795
28.174520
28.474927
30.023456
32.547712
36.551952
37.414432
39.854646
43.059587
42.666793
44.927001
47.992468
50.193667
49.205422
49.595833
51.878691
50.363541
51.796436
53.435564
55.756569
53.574443
54.351687
52.839518
54.838657
56.980848
56.267977
54.884553
55.267811
54.268837
55.191517
55.356622
52.701831
##ZVALUE=245
1.693964
1.836419
1.295805
2.085567
4.086494
11.691451
36.065578
72.400570
164.128542
248.729587
396.260619
494.263768
563.600659
598.886609
571.911931
482.124686
391.174555
264.338851
186.830759
121.998787
96.326470
91.868639
111.488700
120.190978
130.044818
124.893785
111.893415
93.714595
72.167516
54.494739
41.508675
25.602579
20.860434
13.804436
12.375712
12.758970
12.205839
13.173819
13.642907
14.656782
14.118552
13.418794
14.101863
14.384985
14.168620
15.563965
15.124679
14.256835
16.381741
15.418530
15.001893
15.666485
14.450550
16.055703
16.394854
16.205907
17.975569
17.840862
17.816424
18.288493
19.295812
20.577908
21.874905
23.264885
24.412870
26.507974
27.348995
28.246641
31.991601
33.613443
35.811663
37.266612
41.211843
40.449500
43.717623
47.565699
46.996474
48.011541
50.637722
49.101710
51.777959
54.075718
53.394437
53.988695
53.482652
56.589842
59.416890
57.092905
55.627823
56.696534
58.409572
57.674646
56.809783
55.649877
57.348609
58.335662
##ZVALUE=250
1.748800
1.379848
1.502633
1.628995
1.750588
1.696944
2.641678
8.099675
28.096437
62.746406
153.496861
250.199437
365.362763
526.469946
620.856881
698.269010
685.399771
603.275895
512.455702
353.356600
242.977738
160.968900
105.380416
92.516541
100.985765
120.545626
134.173632
140.988827
132.937431
124.215484
110.580921
86.025596
65.868497
43.066740
30.796528
22.136569
18.325448
17.525554
17.462969
16.235709
16.514659
17.960668
16.479492
17.920732
17.520785
16.643405
17.484426
17.202497
16.562939
17.577410
17.062426
17.720461
17.621517
18.133521
17.310977
18.066764
17.890930
19.188523
19.964576
19.847751
20.614862
21.699667
23.198724
23.398995
24.684668
25.567412
26.056767
27.843714
30.050874
32.132864
32.320619
35.912991
36.615729
39.866567
40.772557
41.901469
44.798851
43.527484
46.058893
47.263503
48.641562
50.972700
50.670505
52.060485
51.150918
51.357746
55.573583
53.268671
53.231716
55.683851
53.548813
55.665970
54.223537
54.363608
55.821538
56.953430
##ZVALUE=255
1.239777
1.474619
1.149774
1.159906
1.636744
1.531839
1.603961
1.732707
2.069473
4.333854
19.619465
48.038960
99.365711
212.099552
331.012607
510.784984
635.085702
746.094584
784.654617
729.786754
632.939935
507.546663
330.265760
215.680599
123.013854
92.634559
92.512965
103.938580
130.242705
146.469474
151.522756
149.814487
142.846704
115.705729
95.553994
71.476698
52.125454
37.772655
30.176640
24.873614
22.584796
22.878647
22.556782
21.496415
21.400452
21.709800
21.067858
21.057725
21.653771
21.906495
20.416975
21.726489
20.759702
20.858645
21.030903
20.619631
20.648837
21.413565
21.465421
20.821691
21.995902
22.382736
22.497773
23.874640
23.890734
23.350716
25.286674
28.001666
29.851794
29.304624
31.292439
33.395886
35.293698
36.522746
39.001703
38.959980
40.813684
41.886568
43.597817
44.080615
44.530630
44.706464
48.037767
47.192574
48.804879
49.725771
48.639774
52.352548
52.470565
50.720572
51.293969
51.813722
52.537918
54.122806
54.270625
54.144859
##ZVALUE=260
0.982881
0.863671
1.073480
1.336932
1.261830
1.208782
0.917912
1.103878
1.686811
1.308918
1.493692
2.456903
7.402897
32.341480
72.050691
175.146461
283.613801
457.611680
609.338880
783.966780
865.557790
868.261456
763.194561
635.192990
426.542759
293.028951
173.491836
118.384957
87.569952
90.758801
109.074712
139.310956
156.252980
170.376897
167.652965
151.694417
132.488608
103.033781
82.646608
59.095621
45.518875
35.703778
32.105446
28.192997
27.395487
27.498603
26.231408
26.664734
25.314689
24.688840
24.233460
24.739504
23.971796
24.341941
23.754835
22.935867
23.108721
22.573471
23.042560
23.224950
23.011565
23.331642
23.707747
24.308562
23.763776
24.411678
24.284720
26.839972
28.107762
27.837753
30.699968
31.190515
32.008886
33.037663
34.539700
36.757588
38.910508
39.873719
40.228963
41.222572
42.258501
43.721795
44.507980
44.665933
45.136809
47.424436
46.756864
47.660470
48.010945
48.537850
49.300790
47.798753
49.537420
49.761534
49.961805
50.999522
##ZVALUE=265
1.031756
1.106858
1.077652
1.154542
1.261830
1.367927
1.234412
1.486540
1.254678
1.541972
1.582503
1.672506
1.697540
2.254844
4.319549
21.719933
54.175854
134.901404
240.096450
429.502726
603.429675
765.313506
914.924741
943.521857
859.256983
737.273693
549.302697
396.844745
231.645703
148.882866
102.173686
86.742640
101.130605
132.638812
153.980851
177.317858
178.565979
175.212622
159.381628
133.754611
110.391974
85.199475
66.217780
49.003959
38.531423
34.880638
31.571984
29.125810
29.172897
28.668642
27.358532
26.768446
27.861595
26.629567
26.201606
24.910569
26.044846
26.000738
24.247766
23.441911
23.737550
24.120808
24.620891
25.782585
25.980473
25.059581
27.154684
26.778579
27.759671
28.848648
30.111670
31.862855
31.841993
33.621788
34.354925
34.965873
36.331415
36.649704
38.572550
39.545894
40.557981
42.116642
42.674541
42.710900
44.145584
44.995546
44.865608
44.749975
45.731664
46.541691
47.117472
46.326518
47.018528
46.217442
48.980713
49.211979
##ZVALUE=270
0.759959
0.714660
0.746846
0.734925
0.800490
0.953674
0.960827
0.969768
0.824928
1.164675
1.081824
1.222491
1.232624
1.375675
1.298785
1.590848
2.499819
8.214712
25.933981
86.827874
177.809596
364.976525
537.505746
775.406957
914.015770
1013.791561
997.869968
866.850615
720.329881
505.545735
350.138545
191.384554
122.783780
83.339810
85.978508
110.754967
131.618977
163.444877
175.825953
181.205869
177.532434
160.487890
139.745474
111.918449
87.539554
61.880946
50.251484
39.295554
34.451485
29.324889
28.631687
27.544498
26.248693
26.467443
26.197433
25.346875
24.691820
23.992658
25.410652
24.333596
24.338961
24.522543
24.361610
24.937987
25.554895
25.429726
25.857687
27.191639
27.381778
27.568936
29.783845
30.736923
31.308532
32.147765
34.320951
34.519434
35.728812
35.851598
37.428737
38.315654
38.775802
40.520430
41.251779
40.886998
43.002963
42.916536
43.282509
43.782592
44.151545
44.553876
43.786764
44.725537
44.283867
44.242740
44.618845
45.323968
##ZVALUE=275
0.684857
0.687838
0.739694
0.567436
0.661612
0.759959
0.663996
0.699759
0.556707
0.947714
0.893474
0.958443
0.908971
1.055598
1.134872
1.089573
1.381636
1.270771
1.359582
4.745722
18.374920
49.414635
144.547820
271.238685
498.287678
667.162538
877.710581
995.026827
1015.967727
981.643796
893.705487
656.926036
472.301841
260.341763
159.275532
87.872744
70.325732
79.885721
101.915598
131.907463
151.399970
172.570944
178.550482
170.992613
157.727599
128.449798
105.979443
79.140663
61.422586
44.382811
35.689473
28.579831
26.425719
25.482774
23.822784
23.434758
23.038983
23.122430
23.575425
23.692846
23.568869
23.660660
23.686886
23.912787
24.646521
24.594665
27.018785
26.063919
28.438568
28.158426
29.381514
30.888915
31.361580
32.599568
34.317970
35.645962
35.600662
36.601424
37.500858
37.051439
38.788915
39.855838
40.138960
40.889978
40.190816
40.696859
41.224957
42.043924
43.382645
42.576790
41.845441
42.117834
42.064786
42.769909
43.533444
42.797923
##ZVALUE=280
0.624657
0.721812
0.630617
0.524521
0.628829
0.799894
0.660419
0.683665
0.724792
0.627637
0.779629
0.875592
0.688434
0.903606
0.707507
0.920892
1.212955
1.318455
1.158714
1.344681
1.439452
2.088547
11.115670
38.038492
117.807984
213.876963
399.440527
571.776628
808.513761
953.454971
1016.031504
1016.031504
947.409868
725.205541
538.979769
313.522816
193.376541
95.383525
60.780644
57.138801
70.687532
94.720721
117.640495
145.659447
160.169005
165.293813
159.462690
142.897964
123.278499
94.948411
73.258877
52.074790
40.635467
28.408766
24.163723
21.973848
21.861792
21.335483
21.699667
22.490621
21.826625
22.793412
23.135543
24.238825
24.825931
25.475621
26.938915
27.462840
27.720928
29.692650
29.897690
30.049682
31.993985
33.136606
33.765435
34.756660
34.720898
35.511851
35.451651
37.987828
38.418770
39.098859
38.867593
39.861798
40.586591
41.150451
41.691661
41.886568
42.165518
41.935444
41.443706
41.287541
43.143630
41.616559
41.885972
41.736960
##ZVALUE=285
0.473857
0.437498
0.651479
0.536442
0.545979
0.592470
0.646710
0.557899
0.710487
0.702739
0.829697
0.912547
0.803471
0.775456
0.938773
1.018643
0.787973
0.959635
0.938773
1.101494
1.197457
1.062751
1.622438
1.909733
5.110502
18.607974
66.326857
136.749744
298.156738
457.018018
691.908002
873.664618
1005.595922
1016.031504
1011.768579
835.333467
659.351945
415.448546
263.787508
129.910707
70.381761
40.679574
42.507648
62.257648
80.897808
111.398697
130.151510
149.435997
153.933764
151.419640
141.357780
117.495656
96.691847
70.043802
51.613450
35.868883
27.910471
22.053719
21.093488
20.486712
21.173954
22.857785
22.474527
23.475885
24.518967
25.834441
26.324987
26.864409
28.862953
30.255914
30.686855
30.994415
31.697750
33.394694
34.220815
35.620928
35.521984
36.608577
37.473440
37.815571
39.994717
39.128661
40.145516
40.450692
40.586591
40.557981
41.258931
41.928887
41.318536
41.060448
40.882826
41.201711
41.453838
41.378736
41.069984
41.474700
##ZVALUE=290
0.552535
0.410676
0.436902
0.445843
0.644922
0.351667
0.587702
0.513792
0.669956
0.440478
0.647902
0.561476
0.726581
0.729561
0.711679
0.725985
0.694990
0.754595
0.933409
0.717640
0.969768
1.073480
1.203418
1.353621
1.406670
1.472831
2.311468
7.947683
35.318732
84.502697
167.723894
346.601605
533.944964
794.906020
957.437754
1016.031504
1016.031504
926.854610
764.551759
518.413782
342.493653
174.285769
92.947483
40.956736
29.301643
38.323998
53.078532
76.359510
96.014738
123.324990
138.283968
150.724649
148.199797
133.718848
115.938783
89.031458
70.442557
49.033761
37.067533
27.849674
23.476481
22.008419
21.828413
22.911429
23.530722
24.516582
25.982857
26.866794
28.352737
29.763579
30.882955
32.459497
33.183694
33.670664
34.888983
35.601854
36.350489
37.582517
37.287474
39.235950
39.758682
40.833950
41.092634
40.803552
41.527748
41.307807
41.874647
41.695833
41.508675
42.890906
41.942000
40.623546
41.539669
40.513873
41.737556
40.647984
##ZVALUE=295
0.469685
0.384450
0.324845
0.609756
0.499487
0.618696
0.407696
0.530481
0.516772
0.356436
0.462532
0.610948
0.551939
0.679493
0.688434
0.541806
0.855923
0.678897
0.642538
0.759959
0.905991
0.698566
0.876784
1.044869
1.253486
1.015663
1.310706
1.400709
1.638532
3.463626
18.001795
48.747659
141.395926
261.683464
486.074686
677.970648
917.119980
1016.018987
1016.018987
1010.445952
837.636590
652.227998
404.660702
251.563787
114.898682
58.795810
26.729703
22.912621
34.162998
47.527552
72.354674
90.896487
117.239952
131.811500
142.524838
140.010715
128.008723
111.750960
87.471604
69.806576
49.929619
38.673878
29.376745
25.911927
23.481846
23.366809
24.871826
26.165843
26.826859
28.652549
29.783845
31.644702
32.152534
34.030676
35.475492
36.422610
37.446618
37.393570
38.977861
39.046407
40.423870
41.231513
41.541457
41.836500
42.993426
43.016672
42.661428
42.645931
41.470528
42.342544
42.927861
42.724609
42.231679
40.712953
41.758418
42.001605
##ZVALUE=300
0.336766
0.382662
0.507832
0.359416
0.629425
0.533462
0.425577
0.471473
0.450611
0.488758
0.631809
0.377893
0.599623
0.634789
0.610948
0.441670
0.619888
0.599623
0.584722
0.779629
0.672936
0.721812
0.901818
0.865459
0.861883
0.927448
0.872612
1.068711
1.258850
1.369715
1.515746
1.623631
7.741451
26.866794
92.525482
179.807544
370.666981
555.063486
810.658932
963.119864
1016.031504
1016.031504
923.912525
761.086941
507.404804
331.311822
167.290568
91.428757
36.215782
19.681454
20.764470
28.404593
45.528412
62.230825
85.981488
105.677843
126.876831
134.720802
134.905577
127.236843
107.954741
90.552568
68.248510
54.252744
39.614439
32.433867
28.487444
26.864409
27.415752
28.268695
29.898882
30.921698
33.742785
34.034848
34.821630
36.402941
38.543940
38.426518
39.365888
40.686727
41.222572
42.377710
42.801499
43.098927
43.666959
43.963790
43.722987
43.133497
43.212771
42.637587
43.351650
43.118000
43.037534
42.471886
42.346716
42.029619
##ZVALUE=305
0.314713
0.322461
0.448823
0.469685
0.274777
0.380874
0.386834
0.408888
0.281930
0.357628
0.456572
0.547767
0.584722
0.426769
0.513792
0.340939
0.520945
0.545979
0.360608
0.658631
0.763535
0.674725
0.680685
0.797510
0.629425
0.786781
0.962615
0.812411
0.976920
0.888705
0.919700
1.304746
1.422763
1.771450
3.012419
18.792748
51.049590
145.588517
263.682604
484.492779
673.777461
910.722613
1016.031504
1016.031504
1000.841856
802.733898
623.075962
394.642949
246.869922
113.194585
57.025552
21.595955
14.984608
19.068718
27.040839
44.086576
60.389638
84.613562
103.009939
122.077465
130.227804
129.989982
122.845769
105.201602
89.278817
67.841411
53.450465
40.904880
35.770535
31.881928
32.006502
30.899644
32.137632
33.846498
34.823418
36.643744
37.729740
39.020777
40.209889
41.420460
42.028427
42.846799
44.838786
44.260621
43.844581
44.923425
44.858456
45.187473
44.071674
44.737458
45.075417
43.058991
43.899417
43.490529
43.283701
42.579770
##ZVALUE=310
0.393987
0.369549
0.403523
0.454783
0.519753
0.363588
0.527501
0.481606
0.270605
0.238419
0.402927
0.405908
0.434518
0.249743
0.426769
0.466704
0.559688
0.446439
0.507832
0.498891
0.536442
0.583529
0.554919
0.663996
0.648499
0.692606
0.582933
0.567436
0.896454
0.897646
0.880957
1.072884
1.024604
1.138449
1.285672
1.453757
1.708865
7.963777
26.317835
88.835955
176.222920
359.343886
549.528599
808.995962
964.967608
1016.032696
1016.032696
920.822620
759.726763
510.864854
337.098837
169.543624
91.392994
34.936666
17.040968
13.946891
17.452836
26.975870
38.455725
57.303905
73.819757
99.901557
113.781691
125.422478
127.383471
120.911002
107.986927
89.983940
75.413585
57.674646
47.470927
40.425658
36.882758
35.462976
34.791827
36.122799
37.742853
39.027929
40.564537
41.381717
42.671561
44.173598
43.958426
44.873953
44.995546
45.802593
45.174956
46.141744
45.986772
45.663714
45.321584
44.998527
45.123696
44.839978
44.011474
44.480562
##ZVALUE=315
0.412464
0.287890
0.352859
0.357628
0.311732
0.272989
0.241995
0.235438
0.255704
0.355840
0.194907
0.377893
0.458956
0.303984
0.503659
0.502467
0.455976
0.439882
0.627637
0.517964
0.563860
0.532866
0.457764
0.664592
0.593662
0.615716
0.704527
0.645518
0.789762
0.503659
0.876784
0.861883
0.872612
0.715852
0.850558
0.936985
1.215935
1.466870
1.450777
3.561974
13.746619
57.049990
124.116540
277.065635
448.618531
715.930462
882.721543
1016.031504
1016.031504
990.916491
852.319002
612.569451
431.526899
230.338573
126.745701
48.522949
23.216605
12.934804
14.038682
18.630624
24.869442
39.697886
52.860975
74.346662
91.650486
111.663938
120.955706
125.452876
119.188428
105.481744
92.821717
73.735714
61.711669
48.992634
43.368936
40.709972
38.878918
39.894581
40.831566
41.672587
42.361617
44.227839
44.151545
45.227408
45.558810
45.910478
45.275688
46.544671
46.733618
46.705604
45.749545
46.372414
45.133829
45.263767
44.050813
44.277906
##ZVALUE=320
0.325441
0.336766
0.293851
0.248551
0.161529
0.209808
0.352859
0.302792
0.211596
0.520945
0.462532
0.340939
0.382662
0.319481
0.323653
0.256896
0.361800
0.358820
0.448823
0.553727
0.571609
0.530481
0.492930
0.710487
0.641942
0.530481
0.666976
0.506639
0.654459
0.676513
0.653863
0.586510
0.473857
0.891685
0.816584
0.855923
0.907779
0.910759
0.943542
1.132488
1.349449
1.948476
6.175637
33.416748
82.623959
207.278728
343.544483
572.942495
757.997036
969.363451
1016.033888
1016.033888
939.514637
718.642473
527.658463
299.365520
169.588923
71.673989
35.020709
15.908480
13.436675
15.292764
18.805861
26.242733
35.757422
54.096580
68.820715
90.655684
105.698705
118.874907
122.272968
116.241574
105.319619
89.434981
76.838732
63.587427
54.622889
46.565533
43.054819
41.939616
42.489767
43.503642
44.270754
45.143962
45.382977
46.006441
46.185851
46.788454
46.583414
46.337843
46.035647
46.186447
45.415759
45.136809
45.892000
45.677423
##ZVALUE=325
0.211596
0.353456
0.262856
0.380874
0.276566
0.362992
0.433922
0.467896
0.257492
0.273585
0.386834
0.454783
0.355840
0.237823
0.464916
0.341535
0.587702
0.389814
0.271797
0.375509
0.420809
0.255704
0.354648
0.413656
0.461936
0.483990
0.704527
0.622869
0.512600
0.504851
0.574589
0.531673
0.731945
0.813603
0.630617
0.744462
0.694990
0.886917
0.882745
1.032948
1.164675
1.207590
1.276731
1.556873
3.194809
20.417571
54.443479
142.307878
256.556869
473.743677
658.046007
883.318782
1001.091599
1016.035676
972.704887
778.471828
597.021580
368.703008
226.854682
104.848742
52.621961
20.950437
14.188886
14.704466
16.240478
21.154881
27.727485
39.215684
52.721500
74.607730
88.187456
105.368495
115.637779
119.285583
115.014911
102.151632
90.884566
75.659752
65.032840
54.086447
49.444437
45.077801
45.104623
43.939948
44.936538
45.316815
45.582652
46.244860
45.239925
45.965910
45.905709
45.690536
45.581460
45.807958
45.829415
45.648813
##ZVALUE=330
0.085831
0.089407
0.011921
-0.033975
-0.082850
0.098944
-0.153780
0.042915
-0.157952
0.194907
0.088811
0.022650
-0.009537
-0.072718
0.095963
0.197887
0.212789
0.198483
0.285506
0.081658
0.066757
0.203848
0.136495
0.202656
0.308752
0.317693
0.409484
0.433922
0.095963
0.239611
0.290871
0.432730
0.383854
0.411868
0.483990
0.386834
0.378489
0.528693
0.513792
0.444651
0.566840
0.666976
0.775456
0.899434
1.065731
1.042485
1.907945
6.633997
33.492446
83.751678
209.727883
346.433520
584.405661
767.457485
955.777764
1015.820503
990.867615
877.043605
660.934448
485.706925
274.216533
160.134435
69.730878
33.848882
16.008615
14.072657
15.517473
17.616749
23.339987
29.218793
41.618943
53.423643
71.983933
87.463856
103.817582
112.424493
114.843845
111.444592
100.037456
88.490844
73.197484
64.194798
55.859685
50.569773
46.018958
45.539737
44.345856
44.457912
44.243932
44.489503
44.059753
43.962598
43.937564
43.939948
43.992996
44.360757
##ZVALUE=335
0.188947
0.316501
0.201464
0.229478
0.155568
0.190735
0.117421
0.135899
0.421405
0.136495
0.187755
0.363588
0.169873
0.237823
0.190735
0.369549
0.574589
0.278950
0.355840
0.298619
0.424981
0.484586
0.446439
0.342727
0.205636
0.378489
0.287890
0.564456
0.559688
0.416636
0.559688
0.435710
0.445843
0.566840
0.534654
0.527501
0.530481
0.532866
0.600815
0.645518
0.680685
0.858903
0.737906
0.959635
0.884533
0.925660
0.943542
1.221895
1.254678
3.800988
14.549494
58.860779
123.451948
274.269581
437.142849
690.474510
863.466859
1004.355550
1015.753746
916.012526
770.777464
533.979535
366.080999
195.057988
106.334686
41.420460
21.983981
15.462637
15.732646
17.801523
19.721985
24.382472
30.202866
42.431951
53.559542
71.851611
86.046457
99.370480
108.758807
112.035871
106.856823
97.511411
87.416768
74.630976
65.869689
55.248737
50.401688
45.938492
43.738484
43.090582
42.876601
43.127537
42.510629
42.349696
42.782426
43.139458
##ZVALUE=340
0.284910
0.180602
0.214577
0.210404
0.141859
0.175834
0.273585
0.156760
0.181794
0.091791
0.245571
0.223517
0.300407
0.285506
0.286698
0.493526
0.273585
0.195503
0.122786
0.196695
0.339746
0.213981
0.256896
0.232458
0.413656
0.552535
0.418425
0.488758
0.402927
0.441670
0.427961
0.559688
0.276566
0.410676
0.500679
0.466704
0.403523
0.546575
0.472665
0.616908
0.542998
0.669956
0.543594
0.880957
0.771880
0.687838
0.812411
1.030564
0.959635
1.126528
1.171827
1.814961
6.755590
35.305619
87.082982
213.917494
356.737971
585.847497
757.922530
930.906534
986.867547
943.005681
822.093487
615.985990
440.439582
236.465931
135.833621
59.290528
28.422475
16.143918
16.098619
17.227530
18.910766
21.071434
25.150776
33.145547
41.255951
55.703521
68.585873
85.989833
96.165538
105.896592
107.193589
103.585720
96.541643
85.167885
75.522661
62.255859
55.526495
48.170686
45.177937
42.263865
41.293502
40.777922
40.264726
40.616989
##ZVALUE=345
-0.028610
0.090599
0.263453
-0.000596
0.197887
0.169873
0.092983
0.025630
-0.017881
0.024438
-0.011921
0.206828
0.044703
0.141859
0.098944
0.130534
0.060797
0.125766
0.023842
0.073910
0.182986
0.142455
0.347495
0.166893
0.058413
0.245571
0.170469
0.289679
0.260472
0.303984
0.023842
0.371933
0.289679
0.208616
0.378489
0.304580
0.268817
0.202656
0.359416
0.473857
0.239611
0.558496
0.362992
0.394583
0.352859
0.693798
0.632405
0.600815
0.646710
0.802875
0.674725
0.969768
1.019835
1.236796
2.704859
19.844770
55.438876
145.921707
259.984732
470.022559
639.673471
846.966505
940.190554
954.990983
870.658755
677.084923
513.010621
312.225819
181.694627
76.558590
39.144754
18.809438
16.063452
16.866922
17.828941
19.809604
21.554828
25.896430
31.194687
41.278601
52.468777
68.114996
78.112483
89.899898
97.266436
100.238919
98.685622
90.692639
82.546473
69.967508
60.912967
51.302910
45.934916
41.040778
39.293766
38.669705
##ZVALUE=350
0.152588
0.322461
0.213981
0.207424
0.269413
0.291467
0.096560
0.224710
0.166893
0.304580
0.198483
0.254512
0.169873
0.044703
0.204444
0.236630
0.306964
0.188947
0.297427
0.312924
0.251532
0.442863
0.383854
0.335574
0.280738
0.421405
0.387430
0.290871
0.286698
0.337958
0.366569
0.391603
0.292659
0.175834
0.461936
0.447631
0.417829
0.545979
0.551939
0.475645
0.598431
0.428557
0.487566
0.428557
0.494719
0.531673
0.431538
0.533462
0.753999
0.694990
0.739694
0.941753
0.837445
1.000762
1.198649
1.072884
1.752973
9.658933
31.591654
99.133849
189.156532
372.703671
534.377694
744.076967
874.251723
946.522951
901.871920
754.897594
588.253736
361.686945
229.025483
109.721422
54.103732
21.382570
15.882850
16.716719
16.789436
18.187761
19.764900
22.248626
25.625825
31.734705
37.426949
48.379898
57.653785
71.654916
80.913901
89.772940
92.560649
91.166496
85.771680
75.252652
67.857504
57.126880
49.925447
44.173002
##ZVALUE=355
0.194907
0.290871
0.166893
0.155568
0.260472
0.176430
0.190735
0.220537
0.080466
0.264645
0.135899
0.327826
0.241995
0.394583
0.268817
0.106692
0.167489
0.309944
0.217557
0.200868
0.351667
0.293851
0.150800
0.358820
0.325441
0.384450
0.419617
0.440478
0.351667
0.346899
0.510812
0.572801
0.369549
0.405908
0.531673
0.329614
0.380874
0.427961
0.530481
0.369549
0.473857
0.367761
0.391603
0.551939
0.587702
0.496507
0.527501
0.533462
0.668764
0.666976
0.716448
0.686646
0.763535
0.818968
0.751615
1.014471
1.167655
1.028776
1.329780
4.431605
17.054677
65.209866
133.579969
279.318690
437.344909
667.183995
809.731483
917.345881
917.886496
797.423720
654.844642
443.360806
288.145542
134.631991
68.595409
25.951862
16.740561
15.244484
16.223788
17.416477
18.020868
19.789934
21.469593
24.443865
27.386546
35.138726
42.758584
53.291917
62.136650
73.644519
80.213547
84.093809
83.237886
78.006983
71.741939
62.348843
##ZVALUE=360
0.155568
0.290871
0.139475
0.123978
0.264645
0.265837
0.251532
0.302792
0.286698
0.185966
0.128746
0.282526
0.229478
0.259876
0.355840
0.176430
0.172853
0.192523
0.252724
0.137687
0.200868
0.147820
0.319481
0.407696
0.345707
0.374913
0.263453
0.393987
0.408888
0.296831
0.189543
0.399947
0.305772
0.300407
0.376701
0.302792
0.423789
0.241995
0.492930
0.530481
0.310540
0.533462
0.450611
0.346899
0.662804
0.615716
0.410676
0.468493
0.490546
0.500679
0.623465
0.521541
0.527501
0.613928
0.625849
0.871420
0.865459
0.800490
0.994802
1.317859
1.381636
2.348423
7.652640
34.479499
83.535910
205.207467
337.334871
544.369817
712.642670
865.322948
903.016925
846.492648
728.932619
512.264967
349.997878
177.632570
96.246600
39.100647
20.130873
14.149547
14.430881
15.629530
16.356707
17.486811
18.411875
19.565821
21.025538
25.085807
29.368997
37.248731
44.574738
55.900812
63.664913
72.778463
75.679421
76.739788
##ZVALUE=365
0.164509
0.199676
0.164509
0.356436
0.106692
0.210404
0.203848
0.141859
0.003576
0.083447
0.020862
0.055432
0.195503
0.235438
0.169873
0.271797
0.381470
0.132918
-0.011921
0.180602
0.107884
0.162721
0.194907
0.163913
0.309944
0.246763
0.189543
0.296831
0.076890
0.103712
0.148416
0.337958
0.291467
0.320673
0.158548
0.281930
0.232458
0.307560
0.356436
0.267625
0.373721
0.296831
0.410676
0.377893
0.441670
0.462532
0.220537
0.329614
0.231862
0.434518
0.544786
0.573993
0.473857
0.696778
0.633597
0.494719
0.593662
0.617504
0.773668
0.926852
1.061559
1.064539
1.243949
1.439452
3.162622
19.226670
51.054955
136.853456
251.709819
455.326438
613.712668
785.079598
869.135857
865.681767
776.493549
586.868525
429.072976
244.753957
137.120485
53.331852
24.585724
13.791919
12.881756
13.359785
13.961792
15.220642
15.807748
16.597509
17.508864
19.409657
21.723509
26.719570
31.348467
39.550662
47.415495
56.882501
##ZVALUE=370
0.125766
0.156760
0.141859
0.320673
0.307560
0.220537
0.207424
0.242591
0.052452
0.253916
0.219941
0.056624
0.196695
0.235438
0.172853
0.243783
0.336766
0.304580
0.026822
0.134706
0.151992
0.396967
0.420809
0.323653
0.297427
0.240803
0.323653
0.329614
0.198483
0.279546
0.269413
0.372529
0.264645
0.312924
0.156760
0.344515
0.319481
0.389814
0.480413
0.263453
0.271797
0.491738
0.366569
0.539422
0.510812
0.374913
0.405908
0.422597
0.231862
0.293851
0.383854
0.466704
0.401735
0.626445
0.535846
0.576973
0.528693
0.587702
0.731945
0.726581
0.741482
0.596642
0.907779
0.795722
1.053810
1.244545
1.987815
10.073781
32.699704
101.158619
191.595554
365.070701
526.411533
731.723905
836.047530
869.192481
810.598731
654.743910
501.901507
302.887559
179.549456
74.673891
35.422444
15.319586
12.228489
12.251735
12.994409
13.532639
14.139414
14.704466
15.188456
16.550422
17.467737
19.990802
22.849441
29.050708
##ZVALUE=375
0.108480
0.122786
0.152588
0.177622
0.140667
0.155568
0.163913
0.184774
0.230670
0.164509
0.169873
0.224710
0.234842
0.033975
0.147820
-0.012517
0.149608
0.298619
0.130534
0.115633
0.297427
0.120997
0.183582
0.205636
0.284910
0.284910
0.321865
0.334978
0.176430
0.338554
0.240803
0.260472
0.189543
0.336766
0.288486
0.431538
0.335574
0.186563
0.215769
0.202656
0.341535
0.259876
0.288486
0.322461
0.287890
0.280738
0.370741
0.236630
0.377893
0.445843
0.501871
0.305772
0.394583
0.423789
0.432730
0.519753
0.475645
0.454783
0.578761
0.754595
0.669956
0.722408
0.768900
0.622869
0.610948
0.967979
0.914931
1.084805
1.441836
4.535913
16.847849
61.069727
131.312013
286.936760
440.666676
650.219917
778.636932
864.675641
850.080848
722.504854
579.771996
370.220542
242.580771
124.075413
63.963532
23.169518
13.167858
11.185408
11.559725
12.107491
12.148619
12.982488
13.360977
14.305711
15.304685
16.694665
##ZVALUE=380
0.093579
0.279546
0.163913
0.067949
0.085831
0.207424
0.153780
0.186563
0.240803
0.126958
0.241995
0.257492
0.131726
0.193715
0.190735
0.281930
0.098944
0.227690
0.153780
0.215769
0.141859
0.166893
0.214577
0.144839
0.117421
0.334978
0.326633
0.223517
0.331998
0.198483
0.109673
0.314713
0.175834
0.347495
0.292659
0.321865
0.237823
0.182986
0.265837
0.236630
0.307560
0.424981
0.257492
0.321865
0.347495
0.375509
0.279546
0.301600
0.269413
0.283718
0.230670
0.355840
0.436902
0.330806
0.389814
0.398755
0.363588
0.315905
0.431538
0.549555
0.448823
0.483990
0.534654
0.514984
0.622869
0.667572
0.857711
0.875592
0.937581
1.065731
1.227856
2.365708
8.935928
43.533444
99.091530
233.293772
372.337699
574.548841
723.084807
848.386884
861.999989
762.971640
649.285913
470.429659
328.692794
171.468854
91.019869
33.931732
16.077757
10.543466
10.201931
10.826588
11.214614
11.658669
12.346506
12.982488
##ZVALUE=385
0.029802
0.123978
0.025630
0.063777
0.095963
0.036955
0.128746
0.202656
0.256896
0.278950
0.126958
0.104904
0.148416
0.236630
0.109673
0.225902
0.183582
0.111461
0.193715
0.128746
0.215769
0.223517
0.203848
0.239611
0.305772
0.113845
0.129938
0.271797
0.261664
0.187755
0.112653
0.248551
0.153780
0.306964
0.097752
0.124574
0.292659
0.249743
0.173450
0.249743
0.258684
0.194907
0.257492
0.218749
0.269413
0.246763
0.174642
0.389814
0.371933
0.247955
0.396967
0.353456
0.197887
0.412464
0.377893
0.364780
0.374913
0.429749
0.413656
0.404716
0.618696
0.425577
0.379682
0.628829
0.672936
0.504851
0.628829
0.696778
0.642538
0.921488
0.987649
1.041889
1.050830
1.522899
4.082918
24.673939
63.790679
160.635710
281.818509
486.995578
643.051863
790.993571
837.377906
807.649493
721.437931
551.608801
408.702493
237.940550
142.410994
61.875582
26.592612
11.172891
9.289980
9.578466
9.598732
10.097623
##ZVALUE=390
0.097752
0.106692
0.179410
0.063777
0.272989
0.043511
0.207424
0.244975
0.138879
0.144839
0.029802
0.101924
0.135899
0.198483
0.155568
-0.005960
0.049472
0.154972
0.273585
0.180602
0.301600
0.312924
0.101924
0.177622
0.270605
0.110865
0.142455
0.163913
0.233650
0.156760
0.322461
0.239611
0.196695
0.181794
0.090599
0.231862
0.321865
0.256896
0.315905
0.281930
0.166893
0.247955
0.193715
0.158548
0.394583
0.289679
0.298619
0.337958
0.230670
0.309944
0.164509
0.259876
0.442863
0.140667
0.402927
0.277758
0.431538
0.291467
0.412464
0.351667
0.210404
0.360608
0.438690
0.351667
0.449419
0.522733
0.540614
0.628829
0.645518
0.867844
0.755787
0.937581
0.868440
1.038909
1.040697
1.272559
2.363920
12.993813
40.711761
122.970939
229.180455
420.660973
566.421747
727.776885
815.635920
836.415887
778.620839
631.999969
496.934652
319.910645
197.478533
87.344646
42.169690
13.870597
8.969903
8.781552
##ZVALUE=395
0.038743
0.168681
0.128746
0.064969
0.206828
0.047684
0.170469
0.164509
0.147820
0.215769
0.099540
0.069737
0.199676
0.166893
0.149608
0.258684
0.103712
0.367761
0.220537
0.170469
0.139475
0.120997
0.270605
0.144839
0.243783
0.176430
0.169873
0.258684
0.130534
0.135899
0.254512
0.059605
0.278950
0.317693
0.237823
0.210404
0.228882
0.175834
0.206828
0.041723
0.160933
0.158548
0.274777
0.379682
0.325441
0.235438
0.382662
0.257492
0.285506
0.254512
0.311732
0.179410
0.210404
0.322461
0.304580
0.371933
0.438690
0.395775
0.289679
0.426769
0.464916
0.413656
0.497699
0.458956
0.422597
0.399947
0.567436
0.401735
0.617504
0.699759
0.737906
0.724792
0.705719
0.804663
0.999570
0.954866
1.004934
1.083612
1.454949
7.487535
26.426911
89.465976
167.365670
317.456722
464.567542
666.203499
785.776973
855.427980
833.621025
709.202886
565.695763
367.322564
239.798427
114.171505
58.134794
21.296740
##ZVALUE=400
0.197887
0.110865
0.207424
0.203848
0.116825
0.007749
0.147820
0.079870
0.094771
0.165701
0.128746
0.139475
0.241995
-0.076890
0.140667
-0.075698
0.119805
0.244975
0.107884
0.118613
0.299811
0.308752
-0.026822
0.125766
0.230670
0.203848
0.286698
0.341535
0.217557
0.331998
0.208616
0.184774
0.099540
0.167489
0.140667
0.093579
0.317693
0.224710
0.301600
0.237823
0.180602
0.107884
0.415444
0.249743
0.225902
0.154972
0.307560
0.263453
0.270605
0.246763
0.259876
0.278950
0.443459
0.259876
0.210404
0.304580
0.408888
0.289679
0.329614
0.431538
0.357628
0.283718
0.368953
0.220537
0.483990
0.434518
0.538826
0.517964
0.608563
0.566840
0.646710
0.601411
0.759959
0.774860
0.760555
0.748634
0.703931
0.695586
0.953674
1.090765
1.134872
2.644658
15.561581
43.862462
122.234821
221.206546
402.712822
551.934838
734.350681
816.223025
822.297931
745.599866
572.446585
423.690677
248.582959
153.107643
##END
