sinacsa
Scan
1.1
270917 aai055.dsp
nm
200
800
2
301
A
0.0004
1.6271
0
dvir

27/09/2017 13:28:40
27/09/2017 13:29:44
27/09/2017 10:20:10
0
version 1, 27/09/2017 13:29:44, dvir: |Created; Method: Amir.msc (version 1 / 07/08/2017 16:12:36)||
Amir.msc (version 1 / 07/08/2017 16:12:36)
1
0
0
sec
0
0

GENESYS 10S
2.001
2L7M233003
5
0.2
1
1
0.2
0
0

1
0
0
 VISIONlite Scan Version 2.2






||


Front










1
0
0
0
1
3
1
0
0
0
0
0
0
860.8
0
0
860.8
0
0
1
1
1
0
0
0
0
0
0
0
0
0
0
0
0
0
0
0
0
0
0
3
0
5
100
0
0
0
0
100
100
100
0
0
0
0
0
0
0
0
#SPECIFIC1
0
0
0.01

#SPECIFIC2

#SPECIFIC3

#DATA
1.6271
1.5807
1.5323
1.4698
1.3754
1.2615
1.1263
0.9803
0.8278
0.683
0.5473
0.431
0.3113
0.2248
0.177
0.1482
0.1129
0.0807
0.0581
0.0434
0.0341
0.0299
0.0267
0.0237
0.0226
0.0214
0.0204
0.0197
0.019
0.019
0.0184
0.0183
0.018
0.0177
0.0175
0.0175
0.0172
0.017
0.0167
0.0167
0.0162
0.0158
0.0157
0.0153
0.0153
0.015
0.0148
0.0146
0.0144
0.014
0.0137
0.0139
0.0131
0.0129
0.0127
0.0122
0.0121
0.0118
0.0115
0.011
0.0108
0.0107
0.0099
0.0096
0.0095
0.0086
0.0081
0.0083
0.0083
0.008
0.0077
0.0076
0.0081
0.0075
0.0074
0.0071
0.0073
0.0076
0.0078
0.0077
0.0078
0.0076
0.0073
0.0068
0.0068
0.0065
0.0061
0.0061
0.0062
0.0066
0.0057
0.0058
0.0064
0.0063
0.0062
0.0061
0.006
0.006
0.0058
0.0057
0.0059
0.0058
0.0055
0.0056
0.0056
0.0055
0.0055
0.0053
0.0052
0.005
0.0052
0.0051
0.0049
0.005
0.005
0.005
0.005
0.005
0.0049
0.0049
0.0044
0.0049
0.0048
0.0048
0.0047
0.0045
0.0047
0.0047
0.0046
0.0043
0.0046
0.0044
0.0044
0.0044
0.0042
0.0041
0.0041
0.0042
0.0041
0.0039
0.0039
0.004
0.004
0.0037
0.0037
0.0037
0.0037
0.0035
0.0037
0.0035
0.0038
0.0029
0.0032
0.0028
0.0031
0.0031
0.0035
0.0034
0.0034
0.0034
0.0036
0.0034
0.0035
0.0034
0.0033
0.0032
0.0033
0.0033
0.0033
0.0029
0.0032
0.0032
0.0033
0.0031
0.0022
0.0022
0.0026
0.0022
0.0023
0.0029
0.0026
0.0019
0.0026
0.0027
0.0022
0.0023
0.0024
0.0022
0.0027
0.0019
0.0021
0.0021
0.0021
0.0023
0.0022
0.0025
0.0021
0.0017
0.0019
0.0021
0.0021
0.002
0.0023
0.0016
0.0027
0.002
0.0023
0.0028
0.0025
0.0026
0.0025
0.0028
0.0026
0.0023
0.0029
0.0022
0.0022
0.0024
0.0022
0.0024
0.0017
0.0022
0.0023
0.0027
0.0025
0.0023
0.0028
0.0025
0.0021
0.0023
0.0024
0.003
0.0028
0.0024
0.0029
0.0021
0.0018
0.0015
0.0021
0.0019
0.0011
0.0016
0.0019
0.0009
0.0017
0.0015
0.0014
0.0022
0.0015
0.0016
0.0016
0.0019
0.0017
0.0023
0.002
0.0025
0.0024
0.0017
0.0017
0.0021
0.0022
0.0022
0.0025
0.0026
0.0022
0.0021
0.0027
0.0022
0.0025
0.0021
0.0016
0.0023
0.0024
0.0017
0.0029
0.0029
0.0016
0.0023
0.0037
0.0028
0.0024
0.0017
0.0021
0.0027
0.0013
0.0018
0.0026
0.0021
0.0019
0.0017
0.002
0.0014
0.0026
0.0011
0.0023
0.0023
0.0015
0.0016
0.0021
0.0013
0.0004
