sinacsa
Scan
1.1
270917 sh7lh.dsp
nm
200
800
2
301
A
-0.0011
2.8067
0
dvir

27/09/2017 11:14:09
27/09/2017 11:15:15
27/09/2017 10:20:10
0
version 1, 27/09/2017 11:15:15, dvir: |Created; Method: Amir.msc (version 1 / 07/08/2017 16:12:36)||
Amir.msc (version 1 / 07/08/2017 16:12:36)
1
0
0
sec
0
0

GENESYS 10S
2.001
2L7M233003
5
0.2
1
1
0.2
0
0

1
0
0
 VISIONlite Scan Version 2.2






||


Front










1
0
0
0
1
3
1
0
0
0
0
0
0
860.8
0
0
860.8
0
0
1
1
1
0
0
0
0
0
0
0
0
0
0
0
0
0
0
0
0
0
0
3
0
5
100
0
0
0
0
100
100
100
0
0
0
0
0
0
0
0
#SPECIFIC1
0
0
0.01

#SPECIFIC2

#SPECIFIC3

#DATA
2.7582
2.7762
2.8067
2.791
2.7545
2.7072
2.6364
2.4913
2.2493
1.9306
1.5802
1.2425
0.8864
0.6318
0.4976
0.4068
0.2937
0.193
0.1211
0.0757
0.0463
0.033
0.0227
0.0159
0.0114
0.0086
0.007
0.0058
0.0054
0.0058
0.0049
0.0043
0.0045
0.0048
0.0047
0.0052
0.0051
0.0048
0.005
0.0052
0.0054
0.0055
0.0056
0.0056
0.0057
0.006
0.0061
0.0064
0.0066
0.0062
0.0061
0.0063
0.006
0.0059
0.0058
0.0053
0.005
0.0048
0.0043
0.0038
0.0034
0.0034
0.0029
0.0023
0.0023
0.0019
0.0017
0.0015
0.0014
0.0016
0.0013
0.0012
0.0019
0.0014
0.0013
0.0011
0.0012
0.0016
0.0018
0.0015
0.0017
0.0014
0.0011
0.0009
0.0013
0.001
0.0007
0.001
0.0012
0.001
0.0006
0.0011
0.0011
0.0014
0.0012
0.0012
0.0011
0.001
0.0009
0.0011
0.0012
0.0012
0.001
0.001
0.0011
0.0012
0.0011
0.0012
0.0011
0.0009
0.001
0.0009
0.0007
0.0007
0.001
0.0008
0.0008
0.0007
0.0009
0.0009
0.0004
0.0009
0.0011
0.0008
0.0008
0.0006
0.0009
0.0007
0.0009
0.0011
0.0008
0.0006
0.0007
0.0008
0.0007
0.0007
0.0005
0.0007
0.0007
0.0006
0.0008
0.001
0.0005
0.0003
0.0004
0.0005
0.0004
0.0002
0.0006
0.0004
0.0007
-0.0002
0.0003
0.0002
0.0006
0.0004
0.0005
0.0005
0.0006
0.0006
0.0007
0.0005
0.0008
0.0006
0.0006
0.0003
0.0006
0.0005
0.0003
0.0004
0.0006
0.0005
0.0001
0.0005
0.0001
0
0.0004
-0.0001
0.0001
0.0006
0.0009
0
0.0004
0.0005
0.0003
0.0002
0.0003
-0.0002
0.001
0
0.0001
0.0003
0
0.0005
0.0003
0.0005
-0.0002
-0.0002
0.0003
0.0001
0.0004
0
0.0004
0
0.0007
0.0002
0.0001
0.0004
0.0016
0.0003
0.0007
0.0008
0.0006
0.0005
0.001
0.0001
0.0004
0.0008
0.0007
0.0007
0.0005
0.0006
0.0004
0.0003
0.001
0.0008
0.0009
0
0.0006
0.0006
-0.0001
0.0011
0.001
0.0006
0.0014
0.0011
0.0005
0.0004
0.0007
0.0005
0.0006
0.0003
0.0003
-0.0003
0.0003
0
-0.0004
0.0011
0.0005
0.0002
0.0007
0.0005
0.0004
0.0005
0.001
0.0006
0
0.0004
0.0005
0.0006
0.0006
0.0006
0.0007
0.0016
0.0005
0.0007
0.0005
0.0006
0.0006
0.0005
-0.0004
0.0004
0.0006
0.0003
0.0008
0.0008
-0.0002
0.0005
0.0011
0.0004
0.0009
-0.0004
0.0002
0
-0.0003
0.0008
0.0008
0.0001
-0.0002
0.0005
0.0001
-0.0006
0.0011
0.0006
0
0.0012
0.0002
-0.0004
0.0001
0.0002
-0.0011
