sinacsa
Scan
1.1
270917 qp0030.dsp
nm
200
800
2
301
A
-0.0012
2.5417
0
dvir

27/09/2017 10:55:38
27/09/2017 10:56:43
27/09/2017 10:20:10
0
version 1, 27/09/2017 10:56:43, dvir: |Created; Method: Amir.msc (version 1 / 07/08/2017 16:12:36)||
Amir.msc (version 1 / 07/08/2017 16:12:36)
1
0
0
sec
0
0

GENESYS 10S
2.001
2L7M233003
5
0.2
1
1
0.2
0
0

1
0
0
 VISIONlite Scan Version 2.2






||


Front










1
0
0
0
1
3
1
0
0
0
0
0
0
860.8
0
0
860.8
0
0
1
1
1
0
0
0
0
0
0
0
0
0
0
0
0
0
0
0
0
0
0
3
0
5
100
0
0
0
0
100
100
100
0
0
0
0
0
0
0
0
#SPECIFIC1
0
0
0.01

#SPECIFIC2

#SPECIFIC3

#DATA
2.5417
2.5133
2.4838
2.4188
2.2975
2.1392
1.9304
1.6891
1.427
1.1781
0.9349
0.7342
0.5176
0.3664
0.2849
0.2336
0.1718
0.1121
0.071
0.0457
0.0288
0.0217
0.0159
0.0119
0.0098
0.0083
0.0073
0.0064
0.0058
0.0058
0.0057
0.0056
0.0054
0.0055
0.0053
0.0054
0.0055
0.0054
0.0054
0.0054
0.0051
0.0051
0.0052
0.0051
0.0052
0.0052
0.0053
0.0052
0.0053
0.0049
0.0049
0.0049
0.0046
0.0044
0.0043
0.004
0.0038
0.0039
0.0033
0.0029
0.0025
0.0026
0.0022
0.002
0.0021
0.0014
0.0012
0.0013
0.0012
0.0013
0.0008
0.001
0.0014
0.0011
0.0008
0.0008
0.0007
0.0008
0.0011
0.0008
0.0009
0.0011
0.001
0.0008
0.0009
0.0004
0.0005
0.0004
0.0005
0.0006
0.0003
0.0004
0.0003
0.0005
0.0005
0.0005
0.0003
0.0005
0.0003
0.0002
0.0004
0.0004
0.0001
0.0002
0.0002
0.0004
0.0003
0.0002
0
0.0001
0.0001
0.0001
0.0001
0.0002
0.0003
0.0001
0
-0.0001
-0.0002
0
-0.0005
0.0003
-0.0001
0
0.0001
-0.0002
0.0001
-0.0001
-0.0001
-0.0002
0.0001
-0.0002
-0.0001
-0.0001
-0.0002
-0.0001
-0.0003
0
0.0001
-0.0002
-0.0003
-0.0004
-0.0001
-0.0002
-0.0001
-0.0001
0
-0.0002
-0.0001
-0.0003
0.0001
-0.0003
-0.0006
-0.0003
-0.0002
0
-0.0004
-0.0003
-0.0002
0
0
-0.0002
-0.0002
-0.0003
-0.0001
-0.0002
-0.0002
-0.0002
-0.0002
-0.0003
-0.0002
-0.0002
-0.0003
-0.0001
-0.0004
-0.0004
-0.0002
-0.0006
-0.0002
0
0.0003
-0.0008
-0.0003
0
-0.0004
-0.0002
-0.0003
-0.0004
0.0004
-0.0003
-0.0002
-0.0003
-0.0007
-0.0007
-0.0002
0.0002
-0.0003
-0.0005
-0.0003
-0.0004
-0.0005
-0.0002
0.0003
-0.0003
-0.0001
-0.0005
-0.0005
-0.0005
0.0003
-0.0001
-0.0003
0
-0.0002
0
0.0004
-0.0002
-0.0002
0.0001
-0.0003
0.0006
-0.0005
-0.0001
-0.0004
0
0.0001
-0.0002
-0.0001
-0.0002
-0.0004
0.0001
-0.0002
0.0004
0.0004
-0.0004
0.0004
0.0006
-0.0004
-0.0003
0.0001
-0.0001
-0.0006
0.0002
-0.0001
-0.0008
-0.0001
-0.0004
-0.0005
0.0005
-0.0004
-0.0005
-0.0005
0.0003
0.0002
0.0005
0.0001
0.0002
-0.0003
-0.0001
0.0001
0.0003
0.0001
-0.0006
0.0006
0.0002
0
0.0004
-0.0001
-0.0003
0.0003
0.0001
-0.0004
0.0002
0.0005
0
-0.0002
0.0003
-0.0003
0.0007
0.0005
0.0005
-0.0003
-0.0012
-0.0002
-0.0005
0
-0.0001
0.0007
-0.0006
-0.001
0.0005
-0.0006
-0.0008
-0.0006
0.0006
0.0003
0.0009
0.0004
0.0001
0.0005
-0.0005
-0.0009
