sinacsa
Scan
1.1
270917 qp0060.dsp
nm
200
800
2
301
A
-0.001
2.4142
0
dvir

27/09/2017 12:40:22
27/09/2017 12:41:27
27/09/2017 10:20:10
0
version 1, 27/09/2017 12:41:27, dvir: |Created; Method: Amir.msc (version 1 / 07/08/2017 16:12:36)||
Amir.msc (version 1 / 07/08/2017 16:12:36)
1
0
0
sec
0
0

GENESYS 10S
2.001
2L7M233003
5
0.2
1
1
0.2
0
0

1
0
0
 VISIONlite Scan Version 2.2






||


Front










1
0
0
0
1
3
1
0
0
0
0
0
0
860.8
0
0
860.8
0
0
1
1
1
0
0
0
0
0
0
0
0
0
0
0
0
0
0
0
0
0
0
3
0
5
100
0
0
0
0
100
100
100
0
0
0
0
0
0
0
0
#SPECIFIC1
0
0
0.01

#SPECIFIC2

#SPECIFIC3

#DATA
2.4142
2.3745
2.3328
2.2551
2.1278
1.9722
1.7663
1.5436
1.3024
1.0758
0.857
0.6735
0.4805
0.3433
0.2683
0.2221
0.1648
0.1122
0.075
0.0521
0.0366
0.0295
0.0244
0.0201
0.0184
0.0169
0.0156
0.0148
0.014
0.0137
0.0132
0.0132
0.0127
0.0127
0.012
0.0122
0.012
0.012
0.0117
0.0116
0.0113
0.011
0.0111
0.011
0.011
0.011
0.011
0.0107
0.0108
0.0105
0.0106
0.0105
0.0101
0.01
0.0098
0.0096
0.0092
0.0091
0.0088
0.0085
0.0081
0.008
0.0075
0.0071
0.0071
0.006
0.0058
0.0062
0.0057
0.0058
0.0053
0.0055
0.0061
0.0054
0.0048
0.0048
0.005
0.0055
0.0056
0.0054
0.0056
0.0052
0.0051
0.0044
0.0048
0.0044
0.0042
0.0041
0.0043
0.0047
0.0037
0.0038
0.0044
0.0044
0.0043
0.0043
0.0041
0.0042
0.0037
0.0038
0.0041
0.0039
0.0039
0.0038
0.0039
0.0036
0.0038
0.0037
0.0037
0.0033
0.0036
0.0034
0.0036
0.0034
0.0035
0.0035
0.0033
0.0035
0.0033
0.0033
0.0028
0.0034
0.0032
0.0034
0.0032
0.0031
0.0032
0.003
0.003
0.003
0.0031
0.0029
0.0028
0.0029
0.0027
0.0027
0.0027
0.0027
0.0026
0.0026
0.0025
0.0026
0.0026
0.0025
0.0024
0.0023
0.0023
0.0023
0.0022
0.0022
0.0025
0.0017
0.0019
0.0014
0.0019
0.0018
0.002
0.0022
0.0021
0.0022
0.0022
0.0022
0.0023
0.002
0.0021
0.002
0.002
0.0021
0.0021
0.002
0.002
0.0021
0.0019
0.002
0.0011
0.0009
0.0012
0.0008
0.0015
0.0015
0.0014
0.0011
0.0009
0.0012
0.0013
0.0012
0.0009
0.0009
0.0014
0.0008
0.001
0.001
0.0012
0.0011
0.0014
0.0013
0.0009
0.0006
0.0009
0.001
0.0008
0.0009
0.001
0.0005
0.0015
0.0011
0.0007
0.0016
0.0015
0.0016
0.0014
0.0014
0.0016
0.0015
0.0017
0.0015
0.002
0.0016
0.0012
0.0017
0.0017
0.0011
0.0017
0.0013
0.0016
0.0014
0.0012
0.0012
0.0009
0.0012
0.0012
0.0022
0.0017
0.0012
0.002
0.0012
0.0004
0.0006
0.0009
0.0008
-0.0001
0.0007
0.0012
0
0.0005
0.0003
-0.0001
0.0011
0.0003
0.0006
0.0005
0.0008
0.0005
0.0012
0.0011
0.0013
0.0008
0.001
0.0007
0.0013
0.0004
0.0005
0.0002
0.0014
0.001
0.0009
0.0005
0.0007
0.0008
0.001
0.0006
0.0008
0.001
0.0003
0.0013
0.001
0.0006
0.001
0.0015
0.0013
0.0011
0.0002
0.0008
0.001
0.0003
0.0002
0.001
0.0006
0.0006
0.0005
0.0004
0.0011
0.0009
0.001
0.0009
0.0007
-0.0001
-0.0009
0.0006
0.0014
-0.001
