sinacsa
Scan
1.1
270917 qp0035.dsp
nm
200
800
2
301
A
-0.0026
2.5516
0
dvir

27/09/2017 12:20:22
27/09/2017 12:21:27
27/09/2017 10:20:10
0
version 1, 27/09/2017 12:21:27, dvir: |Created; Method: Amir.msc (version 1 / 07/08/2017 16:12:36)||
Amir.msc (version 1 / 07/08/2017 16:12:36)
1
0
0
sec
0
0

GENESYS 10S
2.001
2L7M233003
5
0.2
1
1
0.2
0
0

1
0
0
 VISIONlite Scan Version 2.2






||


Front










1
0
0
0
1
3
1
0
0
0
0
0
0
860.8
0
0
860.8
0
0
1
1
1
0
0
0
0
0
0
0
0
0
0
0
0
0
0
0
0
0
0
3
0
5
100
0
0
0
0
100
100
100
0
0
0
0
0
0
0
0
#SPECIFIC1
0
0
0.01

#SPECIFIC2

#SPECIFIC3

#DATA
2.5516
2.5176
2.4883
2.4215
2.3039
2.1499
1.9396
1.699
1.4356
1.1848
0.9465
0.7407
0.5269
0.3738
0.2917
0.2401
0.1771
0.1172
0.0767
0.0507
0.0335
0.0263
0.0206
0.016
0.0141
0.0124
0.0111
0.0101
0.0092
0.009
0.0088
0.0088
0.0083
0.0081
0.0078
0.0079
0.0078
0.0077
0.0075
0.0075
0.0072
0.0069
0.007
0.0069
0.0069
0.0068
0.0067
0.0066
0.0068
0.0064
0.0062
0.0062
0.0058
0.0056
0.0054
0.005
0.0049
0.0047
0.0043
0.0038
0.0035
0.0033
0.0029
0.0025
0.0025
0.0018
0.0015
0.0016
0.0012
0.0013
0.0012
0.0011
0.0018
0.0013
0.0008
0.001
0.0007
0.0012
0.0015
0.0013
0.0013
0.0012
0.0013
0.0005
0.0003
0.0004
0
0.0001
0.0002
0.0005
-0.0004
-0.0003
0.0002
0.0004
0.0003
0.0001
0
0.0001
-0.0001
-0.0002
0.0001
-0.0001
-0.0003
-0.0003
0
-0.0003
-0.0003
-0.0002
-0.0005
-0.0006
-0.0005
-0.0005
-0.0005
-0.0005
-0.0004
-0.0005
-0.0006
-0.0007
-0.0008
-0.0005
-0.0008
-0.0005
-0.0006
-0.0006
-0.0005
-0.0007
-0.0005
-0.0007
-0.0009
-0.0008
-0.0006
-0.0007
-0.0007
-0.0007
-0.001
-0.0007
-0.0008
-0.0006
-0.0007
-0.0009
-0.0008
-0.0009
-0.0007
-0.001
-0.0009
-0.0008
-0.0007
-0.0009
-0.0009
-0.001
-0.0009
-0.0017
-0.0013
-0.002
-0.0013
-0.001
-0.001
-0.0012
-0.0012
-0.0009
-0.0008
-0.0011
-0.0009
-0.0012
-0.0011
-0.0011
-0.001
-0.001
-0.001
-0.0012
-0.001
-0.001
-0.001
-0.001
-0.0018
-0.0017
-0.0017
-0.0016
-0.0015
-0.0014
-0.0011
-0.0022
-0.0014
-0.0016
-0.0017
-0.0019
-0.0019
-0.0018
-0.0012
-0.0018
-0.0015
-0.0013
-0.0017
-0.0014
-0.0016
-0.0012
-0.0019
-0.0017
-0.002
-0.0017
-0.0018
-0.002
-0.0012
-0.002
-0.0016
-0.0019
-0.0015
-0.0014
-0.0007
-0.001
-0.0015
-0.0011
-0.0008
-0.0011
-0.0009
-0.001
-0.0009
-0.0008
-0.0012
-0.0013
-0.0008
-0.0014
-0.0013
-0.0014
-0.0012
-0.0013
-0.0014
-0.0011
-0.0013
-0.0012
-0.0019
-0.0004
-0.0007
-0.0015
-0.0007
-0.0012
-0.0022
-0.0014
-0.0013
-0.0015
-0.002
-0.0014
-0.0015
-0.0022
-0.0016
-0.0021
-0.0024
-0.0009
-0.002
-0.0026
-0.0016
-0.0021
-0.001
-0.001
-0.0007
-0.001
-0.0013
-0.0012
-0.0008
-0.0007
-0.0011
-0.0015
-0.0006
-0.0007
-0.001
-0.0013
-0.0015
-0.0008
-0.0007
-0.0013
-0.0017
-0.0006
-0.0005
-0.001
-0.0007
-0.001
-0.0012
-0.0019
-0.0006
-0.0015
-0.001
-0.0022
-0.0009
-0.0008
-0.0014
-0.002
-0.0007
-0.0009
-0.0008
-0.0018
-0.0002
-0.0007
-0.0017
-0.0014
-0.0018
-0.0012
-0.002
-0.0019
-0.0017
-0.0013
-0.0025
