##TITLE=FQP00302
##FORMAT=SPECTACLE-ASCII V-1.2
##DATA TYPE=ULTRAVIOLET SPECTRUM
##SECOND TYPE=ULTRAVIOLET SPECTRUM
##DATE=05/24/18
##TIME=18:13:13
##SPECTROMETER/DATA SYSTEM=SPECTACLE
##XUNITS=NM EM
##YUNITS=ENERGY
##YFACTOR=1
##FIRSTX=220
##LASTX=410
##NPOINTS=96
##3DDATA=Equidistant
##ZUNITS=NM EX
##FIRSTZ=210
##LASTZ=400
##ZPOINTS=39
##XYDATA=(Y..Y)
##ZVALUE=210
4.596710
4.524589
3.077984
3.987551
4.153848
3.932714
4.836917
3.672838
3.967881
3.628731
3.086925
2.991557
2.870560
3.269911
4.111528
3.963709
3.823638
4.007816
3.831983
4.583597
4.755855
4.010797
4.956722
5.497932
5.477667
7.220507
7.783771
9.312630
11.402965
13.795495
13.928413
14.251471
16.478896
16.899705
17.810464
17.674565
17.796755
17.975569
17.550588
16.297698
16.059875
14.938712
15.091896
13.742447
14.544725
12.805462
12.298822
11.788607
12.080669
11.327863
11.605620
10.923743
10.570884
10.756850
8.903742
10.001659
9.435415
9.332895
9.556413
9.764433
11.151433
9.673834
8.709431
8.712411
9.192824
10.657907
11.180639
12.614727
12.687445
14.979839
17.421842
20.000935
19.847751
22.132993
21.908879
20.732880
19.824505
18.996000
17.983913
17.195940
15.027523
11.456609
9.422898
9.483695
8.974671
8.103848
8.193851
7.298589
7.537603
8.032918
8.626580
8.938909
9.900928
10.257959
10.760427
12.347698
##ZVALUE=215
15.254617
15.125871
13.067722
8.920431
8.259416
8.599758
8.857846
9.171963
8.299947
9.446740
6.544590
6.373525
5.605817
5.093813
4.256964
3.457665
3.575683
3.551841
3.361702
3.803968
4.423857
4.851818
4.437566
5.595684
6.668568
8.939505
11.138916
14.041662
17.452836
20.863414
23.061633
25.629997
28.734803
31.122565
32.269955
31.236410
30.128956
30.775666
29.700994
28.428435
28.779507
26.322603
26.988983
23.778677
23.813844
21.149516
20.214915
20.686984
17.643571
17.009974
18.245578
16.152859
16.458631
14.928579
14.810562
13.171434
13.496876
12.126565
13.154745
13.160706
11.664629
11.144876
11.926889
11.863708
11.939406
11.703968
11.546612
14.222860
13.754964
15.705824
16.691685
18.189549
17.881989
20.068884
19.469857
20.226836
17.562509
17.046928
16.169548
14.267564
13.592839
13.143420
11.373758
10.618567
10.227561
9.202957
8.030534
8.891821
9.056926
8.113980
7.951856
8.767843
8.292794
8.758903
8.985996
10.126829
##ZVALUE=220
50.537586
51.362514
47.532916
41.396618
35.239458
27.948618
23.118854
19.633770
18.556714
18.407702
19.883513
19.953847
17.488599
14.901757
12.103915
10.574460
6.738901
5.656481
4.596710
4.051924
4.283786
4.516840
5.133748
5.987883
7.781982
10.413527
13.479590
19.354820
23.443699
30.742884
34.723878
40.708780
44.006705
46.899915
48.645735
47.551990
48.586726
48.578978
44.911504
45.804977
43.332577
42.648911
38.998723
36.655664
32.727718
31.198859
29.999614
27.421713
25.317669
23.798943
22.774935
21.736622
20.629764
20.287633
18.155575
17.973781
16.317964
15.219450
15.742779
15.061498
14.423728
12.747645
12.750626
13.268590
13.823509
13.539791
14.198422
14.314651
16.074777
16.132593
18.057823
17.741919
18.844604
18.851757
19.481778
18.888712
16.899705
17.514825
16.080737
14.275908
13.422966
14.168620
12.528896
12.076497
12.612939
11.575818
10.651946
10.610819
10.140538
10.708570
11.061430
10.574460
10.167956
9.651780
10.313988
10.273457
##ZVALUE=225
84.934831
92.538595
106.659532
114.366412
122.654438
104.990602
97.012520
69.459677
54.540634
40.326715
35.800934
33.689737
36.682487
37.330985
35.465956
31.676888
25.253892
22.121668
14.658570
10.597706
6.172657
5.112886
4.644990
4.988909
6.897449
9.260774
13.761520
20.336509
25.803447
31.179786
35.776496
43.244958
46.493411
50.967932
53.294897
54.605603
54.858923
53.931475
53.769946
52.159429
48.434734
45.276880
44.539571
43.349862
36.806464
36.322474
34.592748
30.886531
28.644800
28.769970
27.270913
25.052428
24.240613
22.134781
21.839738
19.646883
18.118620
18.466711
17.153621
17.136931
15.772581
15.977621
16.022921
15.375614
15.330911
16.121864
16.807914
17.748475
16.741753
18.961430
19.982457
19.213557
20.823479
21.944642
21.051764
20.451546
19.524693
19.658804
19.878745
18.191934
16.855597
15.931726
16.924739
16.014576
15.642643
15.214682
14.822483
14.462471
15.353560
15.131831
14.389753
14.476776
15.093684
14.728904
13.607740
14.985800
##ZVALUE=230
61.297417
69.323778
106.328726
160.681009
199.428797
231.772661
238.327980
217.912793
190.445781
151.660442
102.927685
75.798631
59.708953
57.082772
59.117675
63.189864
62.851906
59.964657
50.885677
40.490627
29.521585
18.276572
12.078881
8.055568
6.273985
8.448958
10.387897
14.276505
17.028451
21.881461
26.574731
29.885769
33.449531
36.340952
36.977530
37.337542
41.199923
41.987896
39.457679
38.173795
37.126541
35.122633
34.649968
32.523870
30.487776
30.220747
27.732849
27.271509
24.254918
23.603439
22.714734
21.119714
21.188855
19.839406
19.694567
19.836426
17.951727
18.481612
18.317699
17.715693
17.558932
16.891956
16.725659
18.250942
16.446710
17.786622
18.951893
19.606948
19.569993
22.038817
21.672845
22.852421
23.688674
24.021864
23.538470
23.799539
23.262501
22.714734
22.534728
21.954775
22.697449
22.694468
21.802783
21.648407
21.424890
22.308826
21.252632
20.889640
21.092892
20.846725
20.613670
21.001697
21.720529
20.986795
21.375418
20.802617
##ZVALUE=235
16.095638
18.284917
46.553612
88.202953
161.415935
223.405957
308.721662
355.926752
376.044512
358.278751
294.730663
230.557919
173.202753
112.846494
87.442994
78.385472
77.175498
87.137818
91.043711
89.422464
79.541802
66.772699
49.374700
34.891963
20.911694
15.037656
10.808706
9.427667
10.873675
11.039972
13.291836
15.124679
16.363859
18.122792
17.824769
20.125508
21.224618
21.745563
20.794868
22.565722
22.387505
21.316409
21.122694
20.527840
18.937588
18.760562
18.319488
17.113686
17.161965
17.064810
16.601682
15.466809
15.839934
15.977621
16.623735
16.147494
15.509725
15.732646
16.017556
16.931891
16.105771
16.602874
17.060637
16.661882
17.542839
18.584728
18.404722
19.185543
20.790696
21.585822
23.078918
24.013519
25.264621
25.202632
25.779605
26.650429
25.935769
27.686954
27.303696
26.484728
27.416945
24.610758
26.777983
27.515888
27.461648
27.365685
27.581453
27.628541
26.862621
26.736856
27.056932
27.022958
26.053786
26.943684
26.381612
25.619864
##ZVALUE=240
1.447797
1.526475
6.011724
16.974807
48.202872
91.262460
178.724527
262.793899
381.183624
443.677902
482.735634
474.554896
422.094464
328.280926
247.555971
155.225992
115.715861
87.747574
86.085796
93.576908
102.111697
109.565854
102.027655
89.736581
68.080425
53.640604
36.743879
27.282834
16.658902
13.092756
10.783672
10.532737
10.956526
11.469722
12.512803
12.395978
13.022423
14.017820
14.457703
14.391541
14.928579
15.221834
14.319420
14.974475
14.640689
14.224648
15.199780
15.374422
13.746619
12.894869
12.965798
13.655424
13.527870
13.750792
13.427734
14.044642
13.900995
14.750957
13.753772
14.321804
14.915466
14.851689
15.173554
16.321540
15.962720
16.575456
17.526746
18.648505
19.934773
21.575689
22.614598
23.766756
25.194883
25.827885
26.385784
25.983453
26.923418
26.932955
27.678609
26.913881
27.671456
27.984977
28.834939
28.570890
27.836561
28.376579
28.039813
28.403997
30.010939
28.303862
28.892756
27.383566
28.761625
29.010773
29.638410
28.520823
##ZVALUE=245
1.133680
1.249909
1.438856
1.298785
2.640486
12.554526
32.181740
84.319711
151.788592
236.112475
375.145674
472.008586
550.125837
555.000901
507.893562
430.553555
309.666991
225.070715
161.585808
101.462603
83.300471
88.085532
98.806620
109.250546
112.446547
106.116533
96.634626
77.649951
63.975453
44.319630
32.524467
22.069812
17.412901
14.406443
14.421940
14.898777
15.136600
14.934540
15.490651
15.083551
16.063452
15.709996
16.089678
16.258955
14.695525
15.497804
15.715957
15.064478
14.754534
14.735460
14.377832
14.712811
14.089942
13.711452
13.460517
13.715625
13.216734
13.434887
12.682676
13.369918
14.068484
13.909936
14.014840
15.109777
14.222860
15.233755
15.009642
17.048717
17.733574
19.143820
19.859672
20.392537
21.641850
22.221804
23.288727
24.206638
24.090409
24.991632
24.302602
25.540590
24.586916
26.067495
26.319623
27.110577
26.941895
26.664734
27.749538
28.411746
28.010607
27.544498
27.212501
27.314425
28.105974
28.069615
27.255416
28.296709
##ZVALUE=250
0.902414
0.991821
0.898838
1.386404
1.126528
1.487732
2.039671
5.824566
25.880933
57.151914
137.621760
229.075551
334.718823
464.887619
553.558469
607.378483
593.864918
516.949892
429.415703
290.380716
196.840763
130.458474
82.912445
76.867938
88.196993
102.983713
115.055442
119.806528
116.622448
104.672909
93.462467
71.938634
56.601763
40.984750
31.940937
24.889708
22.009611
21.613836
21.380782
20.787716
20.629764
20.997524
19.906759
19.775629
19.355416
19.157529
18.706918
17.372966
17.007589
17.476678
16.420484
15.831590
15.105605
15.148520
15.038848
14.686584
13.794899
14.025569
14.164448
13.360977
13.408661
13.445616
13.542771
13.780594
14.226437
14.084578
15.199780
15.771985
16.229749
17.504692
17.757416
18.633604
18.652678
20.695925
20.468831
21.627545
21.330714
22.060871
22.102594
22.437572
24.001598
23.184419
24.214983
24.734735
23.846626
24.857521
25.752783
24.822950
24.962425
25.779605
25.850534
26.424527
25.993586
25.227666
25.872588
25.416613
##ZVALUE=255
0.945926
0.872612
0.867844
1.061559
1.221895
1.089573
1.123548
1.258850
1.478791
2.319813
13.316870
36.150813
98.337531
170.142651
297.352672
417.481661
560.338497
631.403923
656.750798
618.492961
533.931851
383.177996
269.008875
153.028965
100.198984
71.379542
73.200464
92.136860
107.645988
124.832988
132.648945
130.525827
121.894479
103.457570
86.626410
66.965818
54.298639
39.947629
34.676790
29.908419
29.388666
27.292967
26.550889
26.523471
25.440454
24.992824
24.067760
22.564530
22.381544
20.622611
19.658804
19.204617
19.240975
17.564893
16.925931
16.553998
16.543865
15.514493
15.040636
14.449954
14.778972
14.444590
14.677644
14.589429
14.398694
14.506578
15.258789
14.932752
15.436411
15.642643
16.974807
17.151833
17.556548
19.171834
18.292665
19.661784
19.629598
19.648671
19.247532
20.266771
19.957423
21.162629
20.852685
21.973848
21.611452
23.203492
22.692680
23.520589
23.499727
23.228526
23.638606
23.286939
24.597645
23.633838
24.527907
25.309920
##ZVALUE=260
0.919700
1.000762
0.988841
1.015663
0.898838
0.919700
0.940561
1.089573
1.043677
1.108646
1.390576
2.015829
6.221533
26.349425
58.524609
138.911009
230.179429
384.508967
505.602956
650.992990
710.549951
710.591674
626.047850
514.585972
343.439579
233.538747
136.522651
91.781616
73.365569
81.145763
102.824569
124.287605
140.271783
152.102709
151.541829
138.474703
123.710632
99.735856
82.341433
63.135624
52.609444
42.986870
38.752556
35.223961
33.152699
30.929446
29.615760
28.228760
27.053952
26.215911
24.500489
23.215413
22.065639
21.299720
20.447969
19.315481
18.029809
17.645955
16.842484
16.565919
16.187429
15.831590
15.086532
14.857650
14.784932
15.434623
15.011430
15.623569
15.291572
16.311407
16.156435
16.677976
17.150640
17.731786
18.277764
17.736554
17.924905
19.021630
18.692613
19.047856
19.251704
19.910932
19.685626
20.197630
20.575523
20.978451
21.061897
21.471977
21.650791
21.498799
21.973848
22.254586
22.094846
22.649765
22.418499
22.713542
##ZVALUE=265
0.863671
0.679493
0.879765
0.587702
0.864863
0.800490
0.832677
0.853539
0.883937
0.965595
1.144409
1.099706
1.326799
1.375675
2.657771
14.849901
37.188530
100.286007
179.675817
336.085558
477.195978
608.263016
738.298893
767.352581
700.683594
606.436729
449.137688
326.431990
192.674994
126.895905
90.479851
80.065727
93.223453
119.662881
139.516592
157.098770
165.444613
159.718990
150.316954
126.261711
108.448863
83.890557
67.566633
52.839518
45.308471
37.663579
35.532713
33.568740
31.447411
29.410720
27.677417
25.916696
24.431944
23.476481
21.339655
20.740628
19.543767
18.322468
18.463731
17.505884
16.436577
16.073585
15.786886
15.314817
14.719963
14.781952
14.882684
15.067458
15.390515
15.691519
15.460849
16.098619
16.474724
16.815662
16.522408
17.185807
17.302632
17.704964
17.938614
18.069744
18.268824
18.879771
19.268990
19.683838
20.083785
19.578934
20.245910
20.481944
20.567775
20.924807
21.277666
20.314455
21.059513
20.243526
21.372437
21.290779
##ZVALUE=270
0.678897
0.774860
0.708699
0.665784
0.735521
0.715852
0.818968
0.766516
0.873804
0.818968
0.994802
1.106858
1.018643
0.999570
1.243949
1.169443
1.634955
6.227493
19.248724
65.213442
135.028958
238.888860
422.222018
574.774742
734.951496
794.799924
793.004036
724.179745
578.896999
443.733931
313.588977
181.003809
119.048953
82.678795
82.253814
102.561712
121.172667
142.948627
156.252980
163.900852
161.222816
145.418644
129.669905
103.643537
83.788633
61.918497
50.258636
40.166974
34.824610
30.513406
27.719736
26.117563
24.785995
23.391843
22.304654
20.510554
19.801855
18.624663
17.780662
17.171502
16.062856
15.996695
15.600920
14.397502
14.577508
14.557838
14.392734
14.744997
14.881492
14.723539
15.519857
16.096830
16.147494
16.145706
16.361475
16.679764
16.826987
16.758442
17.255545
18.122792
17.661452
18.024445
18.282533
18.758774
18.964410
18.672943
19.149780
19.195676
19.283891
19.263625
19.719601
19.423962
19.809604
20.354986
20.002723
20.416975
##ZVALUE=275
0.718832
0.755787
0.662804
0.663996
0.694990
0.716448
0.843406
0.602603
0.910759
0.895858
0.945926
0.880957
0.887513
1.048446
0.882745
1.092553
1.085997
1.368523
1.333952
2.869964
10.525584
33.500791
99.939704
189.487934
363.395810
504.742861
672.771931
777.453780
834.392905
806.067586
682.536960
549.071431
399.487615
229.975581
145.415664
81.996918
66.845417
72.343946
86.800456
110.311508
126.673579
143.843889
148.789883
145.387650
135.086775
112.270713
94.814897
71.244836
55.503845
40.101409
31.964779
25.099516
22.397637
20.036697
19.502640
18.280745
17.630458
16.453862
16.383529
15.562773
14.964938
14.567971
14.439821
14.522672
14.382601
14.214516
14.015436
14.240742
14.754534
14.618635
14.612675
15.596747
15.927553
16.248822
16.295910
16.380548
16.568899
16.810894
17.329454
17.178655
17.301440
17.462969
17.504692
18.063784
18.035769
18.428564
18.382668
18.717647
18.796921
18.579960
18.921494
19.164681
18.722415
18.751621
19.277930
19.020438
##ZVALUE=280
0.624657
0.622869
0.722408
0.683665
0.623465
0.778437
0.641942
0.628829
0.550747
0.729561
0.639558
0.734925
0.897646
0.671744
0.816584
0.963807
0.950694
0.953674
1.108646
1.155734
1.237988
1.437664
6.366968
22.326708
76.377988
144.431591
279.471874
414.619446
603.641868
733.074546
818.518996
843.508840
777.387619
611.814857
463.600755
276.079774
171.787739
83.527565
53.943992
43.848753
53.263903
73.069930
89.517832
110.500455
124.735832
132.462978
130.031705
116.934776
102.721453
79.345703
62.436461
43.771863
32.590628
22.475719
18.025637
15.287995
14.852881
13.702512
13.452768
13.406873
13.511777
13.044477
13.629794
13.124943
13.289452
13.268590
13.429523
13.774633
14.624596
14.466643
15.175939
15.626550
15.461445
15.611649
16.270876
16.207695
16.431808
16.499758
16.948581
16.761422
17.282963
17.102957
17.476678
18.102527
18.193722
17.984509
18.143654
18.638968
17.983913
18.271804
18.245578
18.350482
18.650889
18.248558
18.493533
18.148422
##ZVALUE=285
0.645518
0.615716
0.731945
0.565648
0.765920
0.628829
0.600815
0.546575
0.751615
0.586510
0.801682
0.634789
0.667572
0.618696
0.812411
0.740886
0.832677
0.819564
0.885725
0.906587
0.963807
1.241565
1.158714
1.457930
3.203750
10.703802
39.425492
87.672472
197.245479
314.262509
497.699976
640.906692
796.336532
854.668021
816.760659
722.638965
532.818437
380.021930
211.286545
123.277903
55.577755
33.577681
30.636787
39.572716
59.320927
75.131655
97.175837
108.982921
120.111704
120.390654
110.201836
96.262693
75.542927
59.300661
40.237904
28.544664
18.726587
14.987588
12.335777
11.289716
11.606812
11.803508
11.876822
12.361407
12.227893
12.767911
13.334751
13.418794
13.588667
14.430881
14.910698
15.100837
15.442967
15.850663
15.916824
16.257763
16.289949
16.768575
16.906857
17.017722
17.364621
17.418861
17.760992
17.768741
17.959476
18.092990
18.347502
18.337965
18.320680
18.318892
18.028617
18.089414
18.293858
18.074512
17.698407
18.135905
##ZVALUE=290
0.557899
0.601411
0.500679
0.624657
0.433922
0.581741
0.534654
0.576973
0.669956
0.528693
0.561476
0.475645
0.556707
0.499487
0.544786
0.735521
0.764728
0.756979
0.808835
0.866652
0.827909
0.743866
0.914931
1.079440
1.108646
1.137853
1.567602
4.190803
21.400452
52.574873
105.527639
229.325891
370.123982
581.382513
721.322894
847.928524
862.887502
779.439807
655.321479
455.794930
309.098959
158.624649
84.265471
34.318566
21.405816
24.856925
33.995509
50.731897
65.706968
87.771416
101.134777
111.680627
114.084482
105.288625
93.092918
72.521567
56.049824
37.325621
27.316809
17.708540
14.287829
11.846423
11.294484
11.280775
11.234879
11.702776
12.410879
12.703538
13.111830
14.130473
14.110804
15.038848
15.666485
15.663505
15.959740
16.292930
16.870499
16.884804
17.216802
17.156601
17.313957
18.129945
17.838478
17.694831
18.179417
18.225908
18.697977
18.337965
18.525720
18.094778
18.087626
18.158555
17.742515
18.118620
17.765760
18.120408
##ZVALUE=295
0.573993
0.452995
0.578761
0.542998
0.495911
0.501871
0.538826
0.597835
0.617504
0.505447
0.606775
0.599623
0.583529
0.492930
0.558496
0.611544
0.573993
0.641942
0.730753
0.852942
0.771880
0.941753
0.771880
0.955462
0.808835
1.005530
1.026988
1.020432
1.187921
2.169609
6.483793
30.655861
72.651505
180.520415
298.028588
496.995449
646.858811
805.915594
860.389471
827.353001
732.212663
544.206500
388.552547
214.236975
118.047595
44.423938
22.252798
15.584826
19.962788
31.219721
44.363737
63.622594
79.485774
96.615553
104.363561
107.315779
101.610422
87.201595
72.746873
52.265525
39.432645
25.739670
18.917918
13.897419
12.345910
11.601448
11.499524
12.165904
12.755990
13.688803
13.811588
14.749765
15.122890
15.528798
15.449524
16.244650
16.427636
16.511679
17.151833
17.314553
17.706752
18.156767
17.754436
18.107891
18.150806
18.310547
18.417835
18.294454
18.540621
18.367767
18.172860
18.229485
17.846823
18.028617
18.034577
17.906427
##ZVALUE=300
0.598431
0.445843
0.379682
0.620484
0.619888
0.471473
0.647902
0.694990
0.444651
0.592470
0.606775
0.495911
0.629425
0.615716
0.598431
0.574589
0.606775
0.562668
0.782609
0.685453
0.570416
0.670552
0.731945
0.776649
0.935793
0.871420
0.927448
0.834465
1.008511
1.190901
1.273751
1.516938
2.870560
17.295480
45.172572
122.821927
218.374729
394.693613
548.736453
734.737515
833.901763
862.391591
800.991654
634.343028
479.836464
282.168984
170.966983
77.223778
35.982728
14.374852
12.441874
18.149614
25.625825
40.641427
55.498481
74.851513
88.897943
99.290609
102.276802
96.984506
87.889433
68.940520
56.218505
39.475560
28.839707
19.507408
15.631914
13.170838
12.941957
13.227463
13.828874
14.146566
14.649630
15.271902
15.753508
16.315579
16.647577
16.817451
17.203689
17.457604
17.983913
18.263459
18.458962
18.422604
18.776655
19.152761
18.583536
18.824935
18.768907
18.831491
18.593669
18.447638
18.350482
18.230677
18.452406
18.274784
##ZVALUE=305
0.415444
0.444651
0.637770
0.440478
0.610948
0.421405
0.510812
0.583529
0.499487
0.599623
0.566840
0.501871
0.706911
0.568628
0.461936
0.623465
0.560880
0.683665
0.490546
0.660419
0.559688
0.673532
0.798702
0.597835
0.611544
0.748634
0.821948
0.741482
0.836849
0.873804
0.787973
1.203418
1.213551
1.539588
1.926422
9.663701
28.123856
85.430741
162.704587
318.672657
464.964509
663.862824
790.172815
868.316889
846.337676
705.390573
567.548871
373.863578
239.754915
111.103654
54.305792
18.834472
10.535717
11.462569
16.063452
26.449561
37.441850
54.417849
68.656802
85.915923
94.404817
98.256469
94.822645
83.309412
71.010590
52.206516
40.498972
28.675795
21.570921
16.849637
15.180707
14.774799
14.800429
15.135407
15.678406
15.947819
16.554594
17.208457
17.324686
17.887950
18.201470
18.593669
18.511415
19.287467
19.169450
19.598603
19.686818
19.384623
19.420981
18.966794
18.868446
18.634796
18.896461
18.286705
18.596649
18.411875
##ZVALUE=310
0.445843
0.525713
0.517964
0.421405
0.582933
0.532866
0.486970
0.593662
0.439882
0.533462
0.491738
0.738502
0.436902
0.532866
0.642538
0.554919
0.570416
0.499487
0.585914
0.715852
0.573993
0.628829
0.662804
0.589490
0.698566
0.589490
0.695586
0.737906
0.858903
0.781417
0.975728
0.927448
0.959635
0.914931
1.081824
1.220703
1.388788
4.050732
13.720989
50.034523
103.598833
229.038000
361.900926
564.795732
713.703632
853.178501
876.382589
803.253651
688.130856
483.066440
331.801772
171.640515
91.894865
33.010840
14.140606
8.796453
10.559559
15.217662
21.823645
34.521818
46.513677
64.832568
76.850653
90.061426
93.719959
90.914965
84.129572
70.371628
56.739450
41.037798
31.844974
23.327470
19.574761
16.686916
15.913844
16.442537
16.656518
16.970634
17.589927
17.992854
18.510818
18.625855
19.226670
19.567609
19.854903
19.593835
19.845963
19.956827
19.533634
19.599795
19.505620
19.452572
19.000769
19.137859
19.216537
18.790960
##ZVALUE=315
0.347495
0.259876
0.381470
0.342727
0.210404
0.271797
0.355840
0.380874
0.415444
0.292659
0.188947
0.273585
0.212789
0.287890
0.402927
0.303984
0.427961
0.266433
0.323653
0.383854
0.489950
0.310540
0.300407
0.433922
0.351667
0.401735
0.457764
0.486970
0.512600
0.477433
0.672936
0.616908
0.622869
0.688434
0.818968
0.839829
0.771880
0.926852
0.937581
1.696944
6.462932
29.638410
71.152449
174.714923
291.867852
490.756631
640.169978
799.530745
870.690942
850.178599
760.456920
576.997995
419.867635
233.285427
129.851699
48.424602
20.185709
8.941889
8.244514
10.232925
13.476610
21.726489
30.323863
45.065880
58.185458
75.055957
84.068775
89.691877
88.615417
78.982711
69.296956
54.523945
43.860674
30.753613
24.590492
19.801855
18.176436
17.449856
17.295480
17.934442
18.230677
18.339753
19.025803
18.968582
19.614697
20.029545
19.839406
19.622445
19.561648
19.661784
19.721985
19.361973
19.177794
19.242764
19.147992
19.233823
##ZVALUE=320
0.476837
0.391603
0.500679
0.474453
0.580549
0.531673
0.400543
0.456572
0.383854
0.426769
0.476837
0.401735
0.385642
0.410676
0.478625
0.491738
0.451803
0.630617
0.477433
0.502467
0.558496
0.463724
0.548959
0.515580
0.590682
0.579953
0.536442
0.608563
0.619888
0.701547
1.000762
0.807643
0.809431
0.809431
0.762939
0.797510
0.779629
0.752807
0.932813
1.057982
1.076460
1.304746
3.028512
15.564561
43.289661
122.290850
213.572979
378.237963
530.438423
726.490617
828.452706
875.734687
823.125839
668.450594
509.948730
299.097896
177.014470
76.715946
34.259558
11.984706
8.154511
8.464456
10.073781
14.009476
19.345880
30.232668
41.195750
57.124496
69.609880
81.525445
86.437464
85.510612
79.756975
66.601634
55.392981
41.545630
33.031702
25.372505
21.664500
19.450784
19.140840
18.991828
19.188523
19.256473
19.541979
19.709468
19.681454
20.081997
20.033717
20.151734
19.787550
19.824505
19.435883
19.423962
19.398928
19.337535
##ZVALUE=325
0.371933
0.364780
0.359416
0.398755
0.481606
0.533462
0.428557
0.470877
0.497699
0.467896
0.403523
0.499487
0.587702
0.344515
0.391603
0.457764
0.455976
0.432730
0.393987
0.526905
0.479817
0.534654
0.427961
0.554919
0.454783
0.584722
0.411868
0.639558
0.622869
0.607967
0.659823
0.667572
0.624657
0.763535
0.696778
0.770688
0.698566
0.822544
0.804663
0.920892
0.922680
1.012683
1.090765
1.142621
1.898408
9.889603
28.244853
80.559850
153.791904
308.308005
452.498794
652.642846
775.545835
866.691470
846.954584
717.510581
569.721460
366.969705
230.140686
104.946494
50.657988
16.557574
9.174943
8.101463
8.612871
11.019707
13.662577
20.266771
28.929710
43.220520
54.943562
68.492889
77.604651
83.781481
82.213879
74.689984
65.483451
52.486658
42.530894
31.910539
26.369691
21.766424
20.375848
19.551516
19.548535
19.602776
19.619465
19.768476
19.430518
19.986629
19.516945
19.610524
19.330978
19.419789
19.482970
19.319654
##ZVALUE=330
0.273585
0.394583
0.355840
0.353456
0.425577
0.487566
0.335574
0.251532
0.390410
0.373721
0.371933
0.467896
0.369549
0.440478
0.327826
0.241995
0.254512
0.264645
0.375509
0.387430
0.470877
0.340939
0.432730
0.457764
0.452995
0.307560
0.381470
0.437498
0.479817
0.401735
0.457764
0.529885
0.448823
0.629425
0.570416
0.686646
0.583529
0.527501
0.698566
0.652671
0.750422
0.754595
0.962615
0.778437
0.889897
0.929832
1.114607
3.063679
16.513467
44.659972
119.715929
211.383700
385.394692
532.892942
721.592903
823.410749
851.154923
787.881017
629.957914
480.686426
282.757878
166.798830
69.902539
31.473637
11.251569
8.264780
8.604527
9.111762
11.305809
14.504790
21.423697
28.276443
40.259957
51.930547
65.620542
73.787570
78.815818
78.939795
72.005987
63.609481
49.941540
41.971803
32.624602
27.361512
22.982955
20.864606
19.701719
19.229650
19.178987
18.976927
18.979907
19.099712
18.717647
18.859506
18.667579
18.808842
##ZVALUE=335
0.384450
0.260472
0.358820
0.437498
0.456572
0.302792
0.394583
0.361800
0.337958
0.316501
0.325441
0.465512
0.455976
0.408888
0.406504
0.427961
0.357628
0.449419
0.444651
0.255704
0.377893
0.260472
0.367761
0.416636
0.602603
0.520945
0.421405
0.637770
0.480413
0.433922
0.779629
0.583529
0.602603
0.587702
0.568628
0.697970
0.609756
0.489950
0.613928
0.581741
0.648499
0.451803
0.650883
0.637770
0.695586
0.896454
0.891685
0.796914
0.987649
1.905560
6.708503
30.103922
68.510771
165.791512
282.444954
480.164886
631.372929
784.095526
841.580629
809.136629
714.737773
521.412492
370.081663
203.105807
109.059811
38.970709
17.038584
9.130836
8.534789
9.115934
9.970665
11.858940
14.258623
21.156669
27.720928
40.109754
49.748421
61.883926
70.239902
75.702667
75.179935
68.542957
61.498880
51.565766
42.932630
33.096671
27.696490
23.020506
20.699501
18.789768
19.045472
18.473864
18.322468
18.228889
18.283725
18.222928
##ZVALUE=340
0.479817
0.293851
0.354648
0.422597
0.370741
0.272989
0.234842
0.424981
0.525713
0.454783
0.430942
0.582933
0.341535
0.386834
0.349879
0.365973
0.452995
0.346899
0.482798
0.427961
0.413656
0.500679
0.422597
0.387430
0.406504
0.482798
0.549555
0.447631
0.464916
0.392795
0.546575
0.459552
0.636578
0.466704
0.542998
0.453591
0.498891
0.558496
0.535846
0.586510
0.489950
0.681877
0.632405
0.623465
0.827909
0.763535
0.731945
0.764728
0.984669
1.106858
1.088977
1.387596
3.091693
17.464757
47.038794
127.005577
227.659941
398.722887
547.606945
725.153685
810.068846
825.326443
757.653713
596.904755
439.579487
244.274735
140.050650
57.988763
24.569631
9.950995
8.877516
9.039640
9.508729
10.448694
12.007952
15.408993
19.989610
28.296709
36.771894
50.463676
59.296489
68.675876
72.092414
71.207881
67.352653
58.705807
50.656796
39.898753
33.258796
26.546717
22.780895
19.399524
18.361807
17.410517
17.777681
17.639995
##ZVALUE=345
0.449419
0.309944
0.376701
0.301600
0.235438
0.419617
0.377893
0.379682
0.370741
0.259876
0.404716
0.373721
0.421405
0.453591
0.458956
0.369549
0.348687
0.332594
0.298619
0.368953
0.443459
0.340939
0.181794
0.270605
0.428557
0.570416
0.365973
0.468493
0.540614
0.466704
0.542998
0.462532
0.519753
0.426769
0.483990
0.466704
0.480413
0.553727
0.433922
0.626445
0.504851
0.598431
0.620484
0.594854
0.663996
0.679493
0.713468
0.609756
0.762939
0.799894
0.813603
1.010895
0.921488
1.074672
1.800656
9.321570
29.121637
87.713599
162.632465
311.887860
451.058745
647.329688
758.774877
825.631618
795.765519
654.408932
510.821939
318.837762
188.161731
77.467561
35.125613
12.739897
9.420514
9.187460
9.320974
9.934902
10.370612
11.971593
14.669895
20.029545
26.142597
36.423802
44.810772
54.599643
60.966611
66.726804
66.457987
63.038468
57.670474
47.878623
40.532947
31.221509
26.115775
20.962954
18.999577
17.513633
##ZVALUE=350
0.327826
0.323653
0.388622
0.371933
0.279546
0.393987
0.444651
0.311732
0.430942
0.377893
0.341535
0.309944
0.361800
0.407696
0.392795
0.394583
0.391603
0.477433
0.461936
0.360608
0.444651
0.273585
0.413656
0.429749
0.470877
0.432730
0.510812
0.412464
0.387430
0.449419
0.435710
0.612736
0.367761
0.510812
0.434518
0.348687
0.547767
0.640750
0.551939
0.461936
0.622869
0.569820
0.464916
0.496507
0.624657
0.478625
0.684857
0.657439
0.718832
0.573993
0.614524
0.754595
0.882745
0.889897
0.931621
0.955462
1.408458
3.638864
18.179417
45.903921
122.174621
217.530727
386.587977
531.659722
707.545877
794.667602
802.754760
730.168819
544.203520
385.253429
205.665827
115.968585
46.049953
19.779801
9.507537
8.580685
8.677840
8.819699
9.592772
10.082722
11.893511
14.346838
18.671751
23.644567
31.928420
39.714575
49.692988
55.984855
60.861707
61.668754
58.362484
53.725839
45.001507
38.061738
29.692650
25.083423
##ZVALUE=355
0.356436
0.295639
0.372529
0.350475
0.382662
0.342727
0.346899
0.404716
0.379682
0.381470
0.372529
0.378489
0.324845
0.273585
0.431538
0.348687
0.425577
0.460744
0.478625
0.404716
0.457764
0.354648
0.335574
0.422597
0.519753
0.451803
0.362992
0.596642
0.418425
0.441670
0.437498
0.564456
0.410676
0.486970
0.438690
0.443459
0.542998
0.606775
0.526905
0.489950
0.546575
0.629425
0.597835
0.697970
0.609756
0.527501
0.617504
0.665784
0.588894
0.615716
0.581741
0.812411
0.604987
0.693798
0.750422
0.846982
0.813603
0.949502
0.869632
2.393723
8.132458
35.000443
77.670813
175.440907
288.683772
474.304557
620.495677
762.032866
802.090764
741.938949
631.240010
443.985462
296.262503
139.159560
68.653822
22.650957
10.789633
8.379817
8.256435
8.413792
8.979440
9.576678
9.981990
11.573434
13.053417
16.761422
20.869970
28.208494
35.054684
43.402910
49.693584
55.085421
56.640506
54.266453
50.569773
43.466687
##ZVALUE=360
0.271797
0.347495
0.407696
0.299811
0.333786
0.432730
0.356436
0.418425
0.409484
0.315905
0.302792
0.415444
0.505447
0.396967
0.392795
0.427961
0.367761
0.386834
0.504851
0.344515
0.275970
0.351667
0.617504
0.407696
0.397563
0.447631
0.525713
0.358820
0.487566
0.428557
0.549555
0.475645
0.446439
0.474453
0.618696
0.358820
0.464916
0.514984
0.448823
0.347495
0.567436
0.566840
0.483990
0.535846
0.596642
0.469685
0.513792
0.649691
0.501871
0.572801
0.720620
0.695586
0.717640
0.744462
0.634789
0.764728
0.688434
0.846982
0.855923
0.969768
0.998974
1.336932
3.594756
16.777515
45.014620
122.460723
214.747787
377.729535
526.159406
699.054599
772.552490
766.766667
683.235526
499.821901
356.511474
195.737481
104.914904
37.157536
15.745759
8.099675
7.639527
7.928610
8.097887
8.483529
8.810759
9.154677
9.940863
11.684895
13.673902
17.946959
22.554994
30.411482
36.555529
44.371486
49.090981
51.272511
##ZVALUE=365
0.353456
0.463724
0.450611
0.298619
0.367761
0.394583
0.421405
0.392795
0.407696
0.439882
0.308752
0.401735
0.557899
0.371933
0.309944
0.379682
0.301600
0.379682
0.387430
0.403523
0.442863
0.408888
0.439882
0.358820
0.544786
0.465512
0.439882
0.437498
0.541806
0.308752
0.368953
0.536442
0.314713
0.588894
0.488758
0.422597
0.350475
0.475645
0.556707
0.509620
0.500679
0.401735
0.583529
0.488758
0.452995
0.477433
0.567436
0.477433
0.573993
0.587702
0.569820
0.548959
0.673532
0.741482
0.527501
0.843406
0.784993
0.727773
0.674725
1.005530
1.092553
0.873804
1.121759
1.273751
1.927614
6.823540
29.727817
69.301724
173.889399
292.780995
477.081537
605.420470
733.011961
770.702958
711.022019
604.248643
418.996811
272.412896
127.992630
62.067509
19.610524
9.588599
7.256866
7.188916
7.536411
7.601976
7.801652
8.061528
8.445978
8.854866
10.290742
11.865497
15.652776
19.716620
26.080608
31.533837
##ZVALUE=370
0.417829
0.269413
0.428557
0.407696
0.413656
0.328422
0.401735
0.269413
0.242591
0.278950
0.168681
0.258684
0.257492
0.267625
0.467896
0.338554
0.502467
0.445843
0.195503
0.463724
0.276566
0.429749
0.329614
0.539422
0.329614
0.344515
0.444651
0.440478
0.316501
0.526905
0.432730
0.504851
0.399947
0.322461
0.447631
0.508428
0.315905
0.440478
0.374913
0.392795
0.605583
0.272989
0.529885
0.485778
0.354648
0.380874
0.496507
0.373721
0.554919
0.384450
0.370741
0.457764
0.597835
0.658631
0.675917
0.455976
0.546575
0.659823
0.665784
0.673532
0.669956
0.748634
0.809431
0.821948
0.888705
1.156926
1.430511
4.423857
15.511513
56.692958
113.882422
234.841704
364.008546
556.635857
676.403642
758.141875
741.181970
630.359650
494.421721
299.244523
177.809596
73.411465
34.458637
12.494922
7.367730
6.743670
6.711483
6.878972
6.907582
7.085800
7.423759
7.514954
7.894635
9.390712
10.528564
13.757944
##ZVALUE=375
0.288486
0.267625
0.340939
0.427961
0.287890
0.338554
0.246763
0.267625
0.318885
0.257492
0.327826
0.266433
0.240803
0.153780
0.486970
0.394583
0.335574
0.356436
0.296831
0.218749
0.268817
0.340939
0.251532
0.399947
0.371933
0.419617
0.244975
0.356436
0.351667
0.427961
0.547767
0.380874
0.219941
0.323653
0.387430
0.372529
0.379682
0.403523
0.406504
0.454783
0.617504
0.450611
0.323653
0.451803
0.401735
0.372529
0.478625
0.373721
0.451803
0.402927
0.421405
0.397563
0.529885
0.520945
0.459552
0.434518
0.482798
0.497699
0.595450
0.587702
0.623465
0.515580
0.695586
0.720620
0.722408
0.788569
0.869632
0.922680
1.153946
2.264977
7.913709
31.218529
73.187947
178.659558
294.127464
475.039482
605.041981
721.361637
749.899745
675.521493
557.150841
368.226767
245.087743
126.825571
65.036416
21.670461
9.266734
6.083846
5.764961
6.085634
6.152987
6.440878
6.540418
6.763935
7.069707
7.518530
##ZVALUE=380
0.322461
0.314713
0.175834
0.273585
0.284910
0.143647
0.226498
0.327826
0.312924
0.347495
0.401735
0.352859
0.365973
0.281930
0.300407
0.356436
0.337958
0.314713
0.321865
0.326633
0.380874
0.383854
0.400543
0.255704
0.325441
0.421405
0.267625
0.360608
0.276566
0.262856
0.397563
0.355840
0.424981
0.542998
0.390410
0.470877
0.348687
0.238419
0.403523
0.310540
0.252724
0.471473
0.341535
0.488758
0.471473
0.441670
0.434518
0.522733
0.568628
0.274777
0.539422
0.430942
0.463724
0.564456
0.479817
0.525713
0.550747
0.493526
0.455976
0.617504
0.592470
0.611544
0.569820
0.586510
0.726581
0.717640
0.690818
0.764728
0.945926
1.053810
1.244545
1.414418
3.985763
21.236539
53.476691
136.537552
235.998631
397.925973
537.304878
686.636567
738.707781
699.551702
612.518787
456.687808
325.628519
170.990825
91.504455
33.591986
13.985634
6.511807
5.358458
5.501509
5.477667
5.946755
5.801916
6.017685
##ZVALUE=385
0.304580
0.310540
0.274777
0.479817
0.253916
0.255704
0.369549
0.216961
0.412464
0.293851
0.253916
0.253916
0.291467
0.218749
0.198483
0.282526
0.430942
0.204444
0.260472
0.257492
0.258684
0.410676
0.343919
0.377893
0.321865
0.289679
0.204444
0.442863
0.443459
0.355840
0.512600
0.297427
0.436902
0.450611
0.489950
0.449419
0.492930
0.291467
0.367761
0.418425
0.309944
0.399947
0.275970
0.426769
0.457764
0.421405
0.319481
0.351667
0.444651
0.402927
0.453591
0.551939
0.489950
0.487566
0.610948
0.425577
0.423789
0.364780
0.382662
0.427961
0.539422
0.547767
0.552535
0.484586
0.783801
0.651479
0.629425
0.717640
0.812411
0.863671
0.912547
1.037717
0.965595
0.983477
4.319549
29.344559
33.718944
113.159418
171.797872
311.184525
574.571490
602.225661
704.790950
681.038499
675.703883
471.604466
388.680696
150.517821
128.408670
30.868649
22.116899
5.325675
5.116463
5.088449
5.034804
5.394816
##ZVALUE=390
0.235438
0.395775
0.255704
0.285506
0.295639
0.262856
0.289679
0.276566
0.347495
0.219941
0.219941
0.161529
0.204444
0.288486
0.322461
0.290871
0.354648
0.110865
0.250936
0.343919
0.390410
0.278950
0.256896
0.322461
0.353456
0.529885
0.279546
0.329614
0.463724
0.339746
0.356436
0.442863
0.397563
0.393987
0.344515
0.445843
0.374913
0.444651
0.489950
0.347495
0.530481
0.473857
0.453591
0.423789
0.378489
0.418425
0.414848
0.283718
0.394583
0.390410
0.464916
0.374913
0.327826
0.343919
0.495911
0.373721
0.543594
0.493526
0.320673
0.424981
0.543594
0.393987
0.618696
0.572801
0.568628
0.627637
0.757575
0.759959
0.787973
0.770688
0.828505
0.916719
0.846982
0.840425
0.862479
0.867844
1.270771
4.090667
22.066832
55.953860
144.015551
241.248608
394.639969
523.450971
666.307807
726.338625
714.537501
639.035702
475.740433
342.143774
187.731981
101.168752
36.349893
14.482737
5.541444
4.754663
##ZVALUE=395
0.232458
0.256896
0.285506
0.341535
0.255704
0.289679
0.200868
0.266433
0.364780
0.272989
0.207424
0.515580
0.271797
0.268817
0.252724
0.295639
0.221729
0.399947
0.215769
0.193715
0.250936
0.435710
0.330806
0.405908
0.367761
0.370741
0.366569
0.401735
0.448823
0.398755
0.309944
0.496507
0.489950
0.420809
0.428557
0.507832
0.472665
0.443459
0.457764
0.466704
0.475645
0.441670
0.363588
0.438690
0.483990
0.500679
0.596642
0.294447
0.407696
0.529885
0.419617
0.380874
0.469685
0.458956
0.526905
0.560880
0.471473
0.392795
0.410676
0.264645
0.450611
0.353456
0.394583
0.485778
0.567436
0.561476
0.591874
0.703931
0.754595
0.748634
0.804663
0.757575
0.789762
0.753999
0.688434
0.784993
0.845790
0.836849
1.115799
2.682805
10.555983
42.586923
90.478659
195.713639
306.410789
476.530790
601.148605
714.231730
742.276907
681.829453
572.046638
389.143825
261.723399
132.606626
65.995455
22.071600
##ZVALUE=400
0.264645
0.303984
0.260472
0.133514
0.290871
0.219941
0.352859
0.240803
0.246763
0.460744
0.272989
0.315905
0.175834
0.272989
0.234842
0.346899
0.414848
0.297427
0.356436
0.192523
0.383854
0.161529
0.426769
0.284910
0.424981
0.359416
0.374913
0.284910
0.437498
0.297427
0.571609
0.389814
0.488758
0.425577
0.474453
0.383854
0.511408
0.495911
0.609756
0.639558
0.434518
0.577569
0.588894
0.532866
0.373721
0.224710
0.423789
0.430942
0.426769
0.508428
0.508428
0.435710
0.313520
0.482798
0.338554
0.474453
0.404716
0.321865
0.489950
0.324845
0.438690
0.537634
0.470877
0.500679
0.558496
0.656843
0.679493
0.583529
0.841618
0.830889
0.738502
0.836849
0.670552
0.707507
0.676513
0.718832
0.616908
0.751615
0.699759
0.779629
0.892878
1.422763
5.325675
22.690892
54.091811
134.172440
229.265690
387.217999
511.474609
646.212697
708.484650
690.641999
609.027743
444.271564
315.489769
172.742605
##END
