##TITLE=D1-2
##FORMAT=SPECTACLE-ASCII V-1.2
##DATA TYPE=ULTRAVIOLET SPECTRUM
##SECOND TYPE=ULTRAVIOLET SPECTRUM
##DATE=01/24/18
##TIME=14:25:13
##SPECTROMETER/DATA SYSTEM=SPECTACLE
##XUNITS=NM EM
##YUNITS=ENERGY
##YFACTOR=1
##FIRSTX=220
##LASTX=410
##NPOINTS=96
##3DDATA=Equidistant
##ZUNITS=NM EX
##FIRSTZ=210
##LASTZ=400
##ZPOINTS=39
##XYDATA=(Y..Y)
##ZVALUE=210
72.228909
76.635480
47.920942
25.193691
17.251968
14.493465
14.680624
16.392469
16.308427
17.446876
17.323494
18.003583
18.972754
18.122792
20.818710
21.585822
22.924542
24.370551
26.743412
26.324987
29.563904
32.117963
31.532645
35.961866
40.576458
43.475628
46.921968
48.004985
51.618814
55.812597
59.754848
67.172647
77.042580
83.328485
94.119906
101.252794
120.590925
129.243731
147.900581
159.174800
173.465610
190.836787
202.735662
226.201415
239.035487
253.957510
275.491476
292.816758
310.877562
317.733884
336.868763
349.156857
359.908938
360.781550
374.334455
374.363661
380.605459
386.786461
380.381942
376.073718
372.426510
365.726948
361.456871
354.933739
347.970724
343.299508
348.171592
354.658961
371.297002
387.359858
418.393016
437.799692
474.792719
495.585799
515.556931
516.277552
506.355762
490.647554
463.345647
426.727533
379.170775
350.639820
301.847458
256.024599
218.765736
198.263526
165.277719
158.532858
146.231651
149.138570
145.645738
152.262449
164.925456
179.724693
215.519667
237.126946
##ZVALUE=215
383.657813
374.021530
298.008919
198.225975
127.672553
69.270730
41.624904
25.012493
24.810433
22.899508
24.624467
24.810433
22.682548
21.518469
23.476481
23.665428
23.852587
23.878813
25.892854
28.973818
32.766461
34.313798
36.104918
38.895607
41.034818
48.058629
48.213601
53.139925
57.888627
64.015985
67.455769
79.353452
85.501671
96.146464
108.414888
128.268003
144.749880
166.478753
185.328722
207.721591
235.299468
267.820954
294.109583
320.272446
351.213813
386.425853
414.601564
454.926491
476.413965
503.916740
536.665916
548.497438
566.548705
592.204928
585.608482
602.433681
613.645911
616.201758
611.225963
614.557862
606.113672
587.841868
576.636791
557.207465
550.086498
528.168678
515.156984
510.990620
510.118008
514.532924
538.084507
554.458499
574.494004
588.728786
594.431758
592.667460
579.867959
546.987653
517.477989
463.737845
428.853631
375.624895
338.265896
288.919806
265.981555
227.693915
212.012529
190.901756
176.587701
163.579583
156.916976
151.426792
143.525004
146.193504
149.506927
163.398981
##ZVALUE=220
1014.748812
1010.916829
1015.462875
915.972590
767.816901
545.650721
380.737782
201.498866
111.168623
61.406493
39.065480
40.229559
39.074421
36.198497
34.729838
32.931566
32.819510
31.431913
30.333996
33.076406
33.087730
37.634969
40.363669
45.662522
46.454668
51.119924
54.816604
57.569742
60.541630
69.157481
74.944496
86.940527
97.308755
122.684836
143.044591
176.758766
200.504661
240.587592
278.482437
326.908827
366.118550
414.519906
467.141867
529.068708
578.902960
664.911866
713.893771
773.624778
814.329982
869.699717
912.756920
951.912999
996.447802
1016.069651
1016.069651
1016.069651
1016.069651
1016.069651
1016.069651
1016.069651
1016.069651
1016.069651
1008.656621
970.651507
938.753486
913.167000
881.478786
848.453641
839.957595
831.264853
826.881528
827.983022
832.484961
821.986794
808.050632
790.445805
756.658912
716.334581
670.216680
613.790751
569.212437
499.572754
449.713469
402.904749
352.538824
317.960978
292.837620
265.210867
248.588920
227.940679
215.400457
200.223923
190.294981
181.687474
168.166757
164.606571
##ZVALUE=225
1016.069651
1016.069651
1016.069651
1016.069651
1016.069651
1016.069651
1016.069651
1016.069651
863.124728
537.671447
230.367780
112.836957
65.813661
54.154992
57.367682
51.659942
48.343539
46.806931
42.698979
39.460659
41.430593
43.643713
46.427846
45.658946
50.696731
53.877831
56.799650
58.154464
64.342618
73.856711
82.719922
99.591613
115.297437
148.422718
180.119872
233.091712
275.171995
342.338681
398.194790
472.805500
550.269485
635.996461
712.480545
804.973841
894.339681
1004.091501
1016.069651
1016.069651
1016.069651
1016.069651
1016.069651
1016.069651
1016.069651
1016.069651
1016.069651
1016.069651
1016.069651
1016.069651
1016.069651
1016.069651
1016.069651
1016.069651
1016.069651
1016.069651
1016.069651
1016.069651
1016.069651
1016.069651
1016.069651
1016.069651
1016.069651
1016.069651
1016.069651
1016.069651
1016.069651
1007.061005
961.228609
893.625021
838.029981
768.698454
709.241629
631.894469
583.670735
522.205830
483.828783
434.339643
397.181511
362.571478
339.161754
311.571956
289.044976
263.930559
249.527693
233.898759
221.354961
214.827657
##ZVALUE=230
1016.069651
1016.069651
1016.069651
1016.069651
1016.069651
1016.069651
1016.069651
1016.069651
1016.069651
1016.069651
1016.069651
1016.069651
564.531684
276.128650
116.789937
85.641742
79.004765
80.570579
76.057911
69.570541
62.952638
57.691932
57.890415
55.834651
57.271719
58.383942
60.428977
66.550970
70.158839
77.586770
83.911419
109.886527
132.179856
171.552896
212.775469
278.762579
337.659717
435.650945
509.538651
619.103909
703.516006
823.628902
933.507681
1016.069651
1016.069651
1016.069651
1016.069651
1016.069651
1016.069651
1016.069651
1016.069651
1016.069651
1016.069651
1016.069651
1016.069651
1016.069651
1016.069651
1016.069651
1016.069651
1016.069651
1016.069651
1016.069651
1016.069651
1016.069651
1016.069651
1016.069651
1016.069651
1016.069651
1016.069651
1016.069651
1016.069651
1016.069651
1016.069651
1016.069651
1016.069651
1016.069651
1016.069651
1016.069651
1007.713675
907.313824
835.964680
742.189884
672.471523
601.480007
555.947423
502.455831
468.431711
428.046584
403.679609
366.845727
348.959565
324.840546
303.703547
284.742713
267.795920
254.375935
##ZVALUE=235
305.142999
367.487669
777.986646
1016.069651
1016.069651
1016.069651
1016.069651
1016.069651
1016.069651
1016.069651
1016.069651
1016.069651
1016.069651
1016.069651
1016.069651
602.949858
219.823718
132.101774
119.847655
119.070411
115.262866
101.930499
94.363689
88.488460
79.297423
77.489614
73.839426
79.106688
80.356002
86.091757
96.474886
109.591484
140.018463
175.109506
226.189494
270.966887
335.403681
408.844948
502.334833
578.990579
652.074814
771.780014
852.797031
984.659791
1016.069651
1016.069651
1016.069651
1016.069651
1016.069651
1016.069651
1016.069651
1016.069651
1016.069651
1016.069651
1016.069651
1016.069651
1016.069651
1016.069651
1016.069651
1016.069651
1016.069651
1016.069651
1016.069651
1016.069651
1016.069651
1016.069651
1016.069651
1016.069651
1016.069651
1016.069651
1016.069651
1016.069651
1016.069651
1016.069651
1016.069651
1016.069651
1016.069651
1016.069651
929.677486
860.520005
767.130852
707.480907
638.199449
606.444478
544.784665
511.593819
456.182957
422.627926
393.234491
369.710922
338.818431
318.898559
296.548009
280.207992
264.526606
257.102847
##ZVALUE=240
20.112991
26.765466
102.629662
476.181507
984.748602
1016.069651
1016.069651
1016.069651
1016.069651
1016.069651
1016.069651
1016.069651
1016.069651
1016.069651
1016.069651
1016.069651
1016.069651
993.331671
547.616482
207.072496
165.411830
162.943006
160.985589
149.391890
141.416788
122.245550
114.986897
106.821656
101.681948
98.727942
104.701519
119.460821
134.576559
160.720944
185.547471
227.026939
260.301828
312.500596
361.990929
435.622931
489.172935
574.002862
642.632842
722.263455
800.127983
888.110995
971.484780
1016.069651
1016.069651
1016.069651
1016.069651
1016.069651
1016.069651
1016.069651
1016.069651
1016.069651
1016.069651
1016.069651
1016.069651
1016.069651
1016.069651
1016.069651
1016.069651
1016.069651
1016.069651
1016.069651
1016.069651
1016.069651
1016.069651
1016.069651
1016.069651
1016.069651
1016.069651
999.289751
956.624746
929.400921
884.038806
820.710659
756.575465
684.350729
640.919805
570.367575
527.192950
470.339656
439.326763
411.172509
378.745794
353.940725
334.446430
313.841701
294.052958
278.481841
258.850455
246.070623
236.914754
223.148465
##ZVALUE=245
11.542439
12.751818
13.576746
18.864870
62.880516
329.430699
834.012628
1016.069651
1016.069651
1016.069651
1016.069651
1016.069651
1016.069651
1016.069651
1016.069651
1016.069651
1016.069651
1016.069651
1016.069651
1016.069651
803.249478
274.400711
180.077553
175.679922
181.970000
175.012946
166.906714
155.024529
142.993927
125.870705
123.565793
118.030906
118.474960
128.455758
138.871670
165.560842
178.593993
211.699605
239.288807
278.838873
308.651924
361.914635
404.396653
460.841656
506.636500
576.022863
620.841980
679.793954
731.444955
791.234970
829.403996
878.960490
924.395919
953.176022
974.234939
997.006893
1002.229452
1012.018919
1000.368595
1005.155444
986.411572
958.852768
948.596001
910.049677
898.131728
858.621597
832.697749
815.292597
792.030692
768.964887
762.654543
762.682557
753.671527
731.748939
711.417794
676.597953
643.404722
598.030686
549.575686
507.385731
468.032956
420.057774
389.408469
352.077484
330.038667
301.771760
289.939642
271.123648
257.919431
242.493749
233.099461
218.953490
207.089782
203.346610
194.831491
188.948512
##ZVALUE=250
9.711981
10.097623
11.040568
12.334585
14.035702
17.664433
30.068755
191.055536
570.482612
1016.069651
1016.069651
1016.069651
1016.069651
1016.069651
1016.069651
1016.069651
1016.069651
1016.069651
1016.069651
1016.069651
1016.069651
1016.069651
1016.069651
419.612527
207.133889
179.425478
193.290710
192.599893
193.423629
181.459785
166.939497
154.688954
145.169497
143.951774
145.303607
156.106949
169.897676
195.927620
226.721764
257.225633
292.433500
341.962576
385.420918
447.778702
491.684675
563.685894
609.833002
677.898526
724.414587
786.858797
832.704902
884.259939
920.511484
961.920619
984.999537
1003.649831
1008.364558
1012.535691
1016.004682
1013.957858
994.191766
986.274481
953.498483
941.366553
905.430913
887.585878
855.929852
812.223554
798.924565
776.523948
762.149692
753.913522
731.085539
716.477633
693.090558
647.517443
614.745617
568.931699
541.487932
485.937595
449.681878
407.437682
378.763676
347.387791
319.954753
295.573473
282.726884
260.824561
251.099467
235.133767
222.061872
211.552978
203.052759
195.273757
185.347795
177.179575
##ZVALUE=255
9.394884
9.022951
9.975433
10.435581
11.623502
12.496710
15.174747
17.202497
24.254918
74.764490
428.361893
980.841517
1016.069651
1016.069651
1016.069651
1016.069651
1016.069651
1016.069651
1016.069651
1016.069651
1016.069651
1016.069651
1016.069651
1016.069651
1016.069651
770.623684
293.514729
185.488462
190.695524
201.667547
207.165480
210.532546
210.851431
208.349824
199.783444
206.423998
217.278600
245.093703
271.793008
325.781703
358.538628
430.072546
489.524007
565.875769
628.751516
722.915530
793.301463
874.200463
945.820808
1013.057828
1016.069651
1016.069651
1016.069651
1016.069651
1016.069651
1016.069651
1016.069651
1016.069651
1016.069651
1016.069651
1016.069651
1016.069651
1016.069651
1016.069651
1016.069651
1016.069651
1016.069651
1016.069651
1014.506817
979.750752
953.013897
916.131735
887.058973
849.087834
813.903809
762.022734
718.008876
669.188499
625.009537
567.376614
519.507527
472.736955
438.467860
409.162641
375.816822
348.705649
325.942636
302.397609
285.321474
266.895890
251.456499
235.838890
219.035745
211.265683
200.657845
190.057755
##ZVALUE=260
9.010434
8.696914
9.030700
9.779930
10.641813
11.193752
12.659431
13.886690
16.410947
18.111467
20.305514
41.394830
164.237022
719.535947
1016.069651
1016.069651
1016.069651
1016.069651
1016.069651
1016.069651
1016.069651
1016.069651
1016.069651
1016.069651
1016.069651
1016.069651
1016.069651
1016.069651
509.912968
243.433714
187.450647
210.736990
235.145688
264.057517
285.772681
307.143927
331.795812
359.983444
393.912792
454.378724
503.622890
595.979691
670.663714
785.899758
883.392692
1005.485654
1016.069651
1016.069651
1016.069651
1016.069651
1016.069651
1016.069651
1016.069651
1016.069651
1016.069651
1016.069651
1016.069651
1016.069651
1016.069651
1016.069651
1016.069651
1016.069651
1016.069651
1016.069651
1016.069651
1016.069651
1016.069651
1016.069651
1016.069651
1016.069651
1016.069651
1016.069651
1016.069651
1016.069651
1016.069651
976.986885
918.030739
841.123462
786.625743
718.326569
667.545795
607.787967
565.463901
523.883700
490.783453
447.562933
414.151549
379.294753
358.210802
328.918695
308.615565
283.053517
263.024569
245.802999
231.076479
218.244791
##ZVALUE=265
8.232594
8.608699
9.218454
9.319782
9.442568
10.234714
11.228919
12.771487
13.479590
14.771819
16.313791
18.069744
20.913482
24.652481
74.489713
424.766541
971.985459
1016.086936
1016.086936
1016.086936
1016.086936
1016.086936
1016.086936
1016.086936
1016.086936
1016.086936
1016.086936
1016.086936
1016.086936
1016.086936
1016.128063
404.026508
234.425664
262.406468
308.648944
379.531980
436.846614
507.907867
561.044812
652.632713
726.679564
840.166807
932.316780
1016.086936
1016.086936
1016.086936
1016.086936
1016.086936
1016.086936
1016.086936
1016.086936
1016.086936
1016.086936
1016.086936
1016.086936
1016.086936
1016.086936
1016.086936
1016.086936
1016.086936
1016.086936
1016.086936
1016.086936
1016.086936
1016.086936
1016.086936
1016.086936
1016.086936
1016.086936
1016.086936
1016.086936
1016.086936
1016.086936
1016.086936
1016.086936
1016.086936
1016.086936
1016.086936
1002.251506
916.773677
857.470036
771.401525
729.124546
665.704012
618.279576
559.215546
519.759655
471.133590
443.024635
407.466888
377.644897
340.858698
318.561792
295.216441
276.434422
257.971883
##ZVALUE=270
8.795857
8.407831
8.789897
9.097457
9.553432
9.973645
10.740757
11.630654
11.817813
13.167858
14.169812
15.161633
16.933680
18.639565
20.223856
23.859739
33.806562
185.080767
592.705607
1015.814543
1015.814543
1015.814543
1015.814543
1015.814543
1015.814543
1015.814543
1015.814543
1015.814543
1015.814543
1015.814543
1015.814543
1015.814543
1015.814543
747.807622
407.183766
400.669575
482.868552
612.521768
718.953609
861.866474
977.687836
1015.814543
1015.814543
1015.814543
1015.814543
1015.814543
1015.814543
1015.814543
1015.814543
1015.814543
1015.814543
1015.814543
1015.814543
1015.814543
1015.814543
1015.814543
1015.814543
1015.814543
1015.814543
1015.814543
1015.814543
1015.814543
1015.814543
1015.814543
1015.814543
1015.814543
1015.814543
1015.814543
1015.814543
1015.814543
1015.814543
1015.814543
1015.814543
1015.814543
1015.814543
1015.814543
1015.814543
1015.814543
1015.814543
1015.814543
1015.814543
954.156518
893.644691
819.593668
759.599805
693.807006
643.462539
577.645898
538.363457
487.748981
449.748635
410.512686
379.217863
349.485874
325.276852
303.929448
##ZVALUE=275
8.439422
9.131432
9.147525
9.546876
9.819865
10.495782
10.590553
11.920929
12.446642
12.707710
13.755560
14.149547
14.395714
16.133785
17.260909
18.204451
20.792484
23.411512
26.272535
88.311434
367.731452
975.168943
1016.069651
1016.069651
1016.069651
1016.069651
1016.069651
1016.069651
1016.069651
1016.069651
1016.069651
1016.069651
1016.069651
1016.069651
1016.069651
1016.069651
803.838968
659.001470
770.604610
957.147479
1016.069651
1016.069651
1016.069651
1016.069651
1016.069651
1016.069651
1016.069651
1016.069651
1016.069651
1016.069651
1016.069651
1016.069651
1016.069651
1016.069651
1016.069651
1016.069651
1016.069651
1016.069651
1016.069651
1016.069651
1016.069651
1016.069651
1016.069651
1016.069651
1016.069651
1016.069651
1016.069651
1016.069651
1016.069651
1016.069651
1016.069651
1016.069651
1016.069651
1016.069651
1016.069651
1016.069651
1016.069651
1016.069651
1016.069651
1016.069651
1016.069651
1016.069651
1016.069651
943.664908
875.299573
796.514750
738.744736
664.209723
615.820885
558.708906
514.407754
464.423895
431.096554
395.633578
369.713902
339.979529
##ZVALUE=280
8.797646
9.337664
8.945465
9.546876
9.451509
9.985566
10.519624
11.119843
11.456609
12.008548
12.655854
13.412833
13.727546
14.631748
15.363693
16.403794
17.704964
20.168424
21.236539
24.064779
28.769970
41.437149
287.141800
899.897814
1016.069651
1016.069651
1016.069651
1016.069651
1016.069651
1016.069651
1016.069651
1016.069651
1016.069651
1016.069651
1016.069651
1016.069651
1016.069651
1016.069651
1016.069651
1015.949845
1016.069651
1016.069651
1016.069651
1016.069651
1016.069651
1016.069651
1016.069651
1016.069651
1016.069651
1016.069651
1016.069651
1016.069651
1016.069651
1016.069651
1016.069651
1016.069651
1016.069651
1016.069651
1016.069651
1016.069651
1016.069651
1016.069651
1016.069651
1016.069651
1016.069651
1016.069651
1016.069651
1016.069651
1016.069651
1016.069651
1016.069651
1016.069651
1016.069651
1016.069651
1016.069651
1016.069651
1016.069651
1016.069651
1016.069651
1016.069651
1016.069651
1016.069651
1016.069651
984.537601
919.654965
830.691457
769.254565
696.269870
645.270944
587.189794
542.092919
487.284660
450.939536
411.673784
386.839509
357.486606
##ZVALUE=285
8.674860
8.684993
8.634925
9.039640
9.519458
10.035634
10.314584
10.394454
10.603666
11.580586
12.140870
12.444854
12.382865
13.844967
13.404489
14.476776
15.786886
17.333627
17.745495
20.182729
21.626949
24.384856
27.923584
33.087730
120.487809
455.286503
1016.069651
1016.069651
1016.069651
1016.069651
1016.069651
1016.069651
1016.069651
1016.069651
1016.069651
1016.069651
1016.069651
1016.069651
1016.069651
1016.069651
1016.069651
1016.069651
1016.069651
1016.069651
1016.069651
1016.069651
1016.069651
1016.069651
1016.069651
1016.069651
1016.069651
1016.069651
1016.069651
1016.069651
1016.069651
1016.069651
1016.069651
1016.069651
1016.069651
1016.069651
1016.069651
1016.069651
1016.069651
1016.069651
1016.069651
1016.069651
1016.069651
1016.069651
1016.069651
1016.069651
1016.069651
1016.069651
1016.069651
1016.069651
1016.069651
1016.069651
1016.069651
1016.069651
1016.069651
1016.069651
1016.069651
1016.069651
1011.369824
932.685733
864.697695
787.225962
727.542639
659.974813
614.188910
558.982491
515.859723
461.151004
427.780747
390.612483
361.919999
334.284902
##ZVALUE=290
8.563995
8.516908
8.719563
8.957982
8.815527
9.328723
9.891987
10.177493
10.286570
11.374950
11.323690
11.975765
11.872649
12.885928
13.063550
13.254881
14.827847
15.177727
15.683770
17.689466
19.046664
19.886494
22.970438
25.319457
29.587746
32.482743
52.644610
189.145803
921.858549
1016.065478
1016.065478
1016.065478
1016.065478
1016.065478
1016.065478
1016.065478
1016.065478
1016.065478
1016.065478
1016.065478
1016.065478
1016.065478
1016.065478
1016.065478
1016.065478
1016.065478
1016.065478
1016.065478
1016.065478
1016.065478
1016.065478
1016.065478
1016.065478
1016.065478
1016.065478
1016.065478
1016.065478
1016.065478
1016.065478
1016.065478
1016.065478
1016.065478
1016.065478
1016.065478
1016.065478
1016.065478
1016.065478
1016.065478
1016.065478
1016.065478
1016.065478
1016.065478
1016.065478
1016.065478
1016.065478
1016.065478
1016.065478
1016.065478
1016.065478
1016.065478
973.376632
878.797770
820.787549
753.337741
698.511004
636.047721
590.876937
537.126660
496.079922
452.471972
417.960882
373.494625
349.415541
316.906571
296.455622
270.793438
##ZVALUE=295
7.860661
7.977486
8.379817
8.708835
8.416772
8.439422
8.663535
9.516478
9.660721
9.748936
10.498762
10.739565
10.533929
11.432767
11.696815
12.176633
12.382865
13.470650
14.215708
14.765859
15.802979
17.471910
18.601418
21.147728
22.162795
25.635958
28.464794
33.207536
38.764477
106.219649
432.912707
1016.069651
1016.069651
1016.069651
1016.069651
1016.069651
1016.069651
1016.069651
1016.069651
1016.069651
1016.069651
1016.069651
1016.069651
1016.069651
1016.069651
1016.069651
1016.069651
1016.069651
1016.069651
1016.069651
1016.069651
1016.069651
1016.069651
1016.069651
1016.069651
1016.069651
1016.069651
1016.069651
1016.069651
1016.069651
1016.069651
1016.069651
1016.069651
1016.069651
1016.069651
1016.069651
1016.069651
1016.069651
1016.069651
1016.069651
1016.069651
1016.069651
1016.069651
1016.069651
986.933708
910.620689
854.694843
786.221623
739.297867
670.560598
625.584722
571.219921
530.665517
484.743714
452.169776
416.612625
388.883948
354.929566
327.678919
298.859477
274.602771
249.387622
234.871507
215.447545
203.840733
187.702775
##ZVALUE=300
7.288456
7.401705
7.168651
7.209778
7.432699
8.069873
8.334517
8.384585
8.398890
9.098649
9.005666
9.630919
9.897947
10.136962
10.395646
10.543466
11.044741
11.762977
11.593699
12.943745
13.238788
14.546514
15.671849
16.745925
18.565655
20.410419
21.577477
25.035739
28.123856
31.620860
37.630796
49.615502
162.793398
947.268605
1016.069651
1016.069651
1016.069651
1016.069651
1016.069651
1016.069651
1016.069651
1016.069651
1016.069651
1016.069651
1016.069651
1016.069651
1016.069651
1016.069651
1016.069651
773.797631
698.971748
744.930506
787.312984
844.414830
887.175798
937.186480
964.738727
983.629823
986.310840
965.629816
948.127508
907.468796
873.548985
832.239985
799.980760
757.853985
728.924870
694.477558
667.882562
631.897449
609.859824
579.668880
552.458763
519.092679
487.982631
453.447700
426.554680
392.112732
368.094444
334.632993
311.691761
286.242962
270.720720
248.450637
235.367417
216.281414
204.550624
187.395811
178.601742
165.184736
154.668689
143.351555
134.618878
124.976635
118.325949
112.528801
##ZVALUE=305
6.639957
6.380677
6.738901
7.043481
7.155538
7.285476
7.571578
7.670522
8.202791
8.032918
8.301735
8.937716
8.928776
8.995533
9.467602
9.950995
9.884834
10.732412
10.887980
11.641979
12.408495
12.774467
13.871789
14.794469
15.835762
16.933680
17.842650
20.192862
21.845698
24.905801
27.529597
30.905604
36.349893
45.983791
93.469620
669.823885
1016.069651
1016.069651
1016.069651
1016.069651
1016.069651
1016.069651
1016.069651
1016.069651
1016.069651
1016.069651
1016.069651
1016.069651
1016.069651
1016.069651
1016.069651
630.706549
372.079611
346.055031
358.031392
381.160975
399.531722
425.042510
442.056060
459.530950
462.720990
454.096794
438.286662
414.258838
388.886929
354.763865
331.138968
303.744674
291.990638
276.317000
269.025564
258.135796
251.754522
239.988565
228.983760
211.083889
200.587511
184.265971
173.809528
158.718824
149.375796
138.037801
131.859779
124.026537
118.214488
110.616684
103.645921
99.159479
95.122457
90.463758
86.404681
80.962777
78.104734
75.099468
72.462559
70.536733
##ZVALUE=310
6.263852
6.227493
6.367564
6.423593
6.453991
6.506443
7.113814
7.237792
7.367730
7.444620
7.809997
7.857680
8.488894
8.787513
8.436441
9.034872
9.238720
9.853840
9.653568
10.123849
10.985732
11.351705
11.591911
12.684464
13.948679
13.896823
15.140772
16.271472
18.321872
19.381642
21.484494
24.151802
26.475787
31.459928
35.688877
42.850971
54.279566
282.732844
928.218961
1016.067863
1016.067863
1016.067863
1016.067863
1016.067863
1016.067863
1016.067863
1016.067863
1016.067863
1016.067863
1016.067863
1016.067863
1016.067863
1016.067863
903.110504
333.923697
160.877705
156.780481
160.117745
168.172717
183.589458
197.481513
217.396617
230.315924
234.998465
233.152509
222.186446
208.540559
184.080601
165.783763
146.089792
137.137771
127.308965
122.948885
116.477609
112.644434
104.943514
97.543597
91.340542
85.081458
79.659820
74.441433
69.869757
67.834854
65.901875
64.026713
61.782598
61.011910
59.145689
56.901574
55.291653
53.185821
52.295923
50.909519
49.956441
48.245788
48.106909
##ZVALUE=315
5.827546
6.053448
6.136894
6.235838
6.423593
6.118417
6.437898
6.744862
6.608963
7.274747
7.248521
7.451773
7.410645
7.809997
7.787943
7.947683
8.515716
8.690953
9.131432
9.225607
9.899735
10.038614
10.629892
11.211634
11.697412
12.528896
13.470650
14.984608
15.121698
17.131567
18.225908
19.898415
21.705627
24.641752
27.121902
31.392574
34.594536
41.665435
48.548579
125.148892
524.647832
1016.069651
1016.069651
1016.069651
1016.069651
1016.069651
1016.069651
1016.069651
1016.069651
1016.069651
1016.069651
1016.069651
1016.069651
1016.069651
1016.069651
1016.069651
475.055575
132.154822
100.374818
95.747709
98.681450
107.146502
117.277503
134.791732
147.996545
165.315866
171.694756
171.905756
164.676905
153.333545
140.604973
122.659802
109.952688
96.016526
85.674524
75.324774
70.046782
62.745810
60.119629
54.699779
52.087903
51.070452
49.627423
48.733950
48.087835
46.092868
45.766830
45.621991
45.214891
43.041706
43.168664
41.968822
41.103959
40.934682
40.246844
39.610863
##ZVALUE=320
5.646944
5.316734
5.519986
5.829930
5.699992
6.061792
5.985498
5.979538
6.377697
6.762743
6.862879
6.894469
7.047653
7.125735
7.528663
7.891655
7.632971
7.923841
8.119941
8.323789
8.803606
9.191632
9.493828
10.063648
10.787845
11.393428
11.867881
12.652874
13.747811
14.313459
15.305877
16.494989
18.226504
20.100474
21.913648
24.323463
26.607513
31.206608
34.067631
39.836764
45.594573
65.453649
219.899416
1016.069651
1016.069651
1016.069651
1016.069651
1016.069651
1016.069651
1016.069651
1016.069651
1016.069651
1016.069651
1016.069651
1016.069651
1016.069651
1016.069651
1016.069651
889.816880
196.412802
91.984868
78.645945
75.878501
78.820586
84.690452
98.766685
111.895800
131.396651
146.903992
159.987807
163.500905
158.119798
148.902535
128.686428
111.445785
89.000463
76.005459
62.368512
55.270791
48.802495
46.204925
45.166612
44.148564
43.511987
42.758584
42.676926
43.048859
41.352510
40.974617
40.587783
39.337873
38.302541
38.583875
37.417412
37.245750
37.063956
##ZVALUE=325
5.253553
5.173683
5.195737
5.667806
5.423427
5.476475
5.721450
5.871654
6.041527
6.142855
6.242990
6.521940
6.495714
6.988645
6.946921
6.907582
7.223487
7.409453
7.461905
7.813573
8.528829
8.464456
9.157658
9.261966
9.604692
9.784698
11.224747
11.446476
11.903644
12.739897
13.012886
14.230609
15.052557
16.347766
18.553734
21.055937
22.162795
26.419759
26.968718
32.563806
34.172535
43.440461
48.440695
51.760674
151.023269
637.253523
1016.069651
1016.069651
1016.069651
1016.069651
1016.069651
1016.069651
1016.069651
1016.069651
1016.069651
1016.069651
1016.069651
1016.069651
1016.069651
1016.069651
1016.069651
454.247594
80.028772
75.121522
70.974827
69.160461
69.945455
80.647469
93.842745
116.191506
132.881999
149.721503
157.388449
157.081485
148.832798
131.442547
113.408566
89.576840
74.739456
61.224699
53.321719
46.283603
44.731498
42.820573
42.039752
41.160583
41.003823
40.579438
40.456653
39.648414
38.671494
37.961602
37.209988
36.071539
36.189556
36.141872
##ZVALUE=330
4.838705
4.871488
4.781485
5.154610
5.031824
5.390644
5.339980
5.730987
5.549788
5.768538
5.939603
6.376505
6.472468
6.402731
6.442666
6.528497
6.916523
6.970763
6.927848
7.053614
7.738471
7.624626
7.906556
8.265972
8.967519
9.239912
9.269714
9.948611
10.659695
11.102557
11.947751
12.841821
13.341904
14.670491
15.736818
17.043948
18.231869
20.298958
22.125840
23.925900
26.209950
29.332638
32.015443
35.785437
40.983558
48.166513
65.172911
359.954834
1011.700034
1016.069651
1016.069651
1016.069651
1016.069651
1016.069651
1016.069651
1016.069651
1016.069651
1016.069651
1016.069651
1016.069651
1016.069651
1016.069651
1016.069651
677.419901
199.021697
77.318549
70.136786
66.699982
69.099665
75.535774
85.545778
100.461841
114.712715
130.623579
140.825510
143.078566
138.948560
127.384663
113.937855
95.886588
81.954598
65.560937
58.139563
49.048662
46.640635
41.969419
40.839911
40.518641
39.438605
38.817525
37.939548
37.562847
36.645532
35.545826
35.106540
34.865737
##ZVALUE=335
4.668832
4.582405
4.920959
4.988909
5.021691
4.983544
5.244613
5.416870
5.353689
5.658865
5.659461
5.872846
5.855560
5.834699
5.810857
6.491542
6.469488
6.511807
6.586909
6.738901
7.155538
7.181764
7.575750
7.785559
8.092523
8.461475
8.900762
9.295940
9.730458
10.076761
10.583997
11.176467
11.878610
12.522936
13.506413
14.753938
15.328526
17.278790
18.162727
19.532442
21.474957
23.494959
25.353432
28.087497
30.629635
35.257936
38.609505
44.021606
50.297379
147.286654
587.767959
1016.197801
1016.197801
1016.197801
1016.197801
1016.197801
1016.197801
1016.197801
1016.197801
1016.197801
1016.197801
1016.197801
1016.197801
1016.197801
1016.197801
924.031734
315.839648
92.502832
74.296594
71.325898
71.788430
74.502826
79.024434
86.954832
94.128847
104.668736
111.931562
121.333003
125.903487
122.320652
115.102530
102.350712
92.010498
76.288581
65.594912
54.415464
48.902631
44.374466
41.494966
39.133430
37.910938
37.176609
36.674738
35.375953
35.312772
35.195947
##ZVALUE=340
4.339814
4.521608
4.623532
4.477501
4.660487
4.730821
4.869699
4.788637
5.140901
5.264878
5.241632
5.320907
5.396605
5.524755
5.658865
5.860925
5.674958
5.682707
5.895495
6.275773
6.175637
6.824732
6.981492
6.916523
7.218719
7.712841
7.997751
8.454919
8.853674
9.012818
9.501576
10.099411
10.349751
11.190772
12.137890
13.000965
13.197660
14.616847
15.644431
17.195940
17.762780
19.583702
20.492673
22.962689
24.608970
27.004480
28.674603
32.656789
35.156608
41.350722
46.298504
75.261593
274.346471
1016.069651
1016.069651
1016.069651
1016.069651
1016.069651
1016.069651
1016.069651
1016.069651
1016.069651
1016.069651
1016.069651
1016.069651
1016.069651
1016.069651
1016.069651
547.930598
117.939711
82.913637
77.446699
75.185895
71.620941
69.962740
69.255829
71.630478
79.568624
88.054538
101.151466
110.206604
116.540790
115.469694
109.244585
100.931525
87.171793
75.699687
62.667727
54.557920
46.330690
41.735768
38.703680
36.478639
35.426617
35.617948
35.181642
##ZVALUE=345
4.330873
4.650950
4.650950
4.636645
4.746914
4.813671
4.974604
4.855990
4.937649
4.963875
5.193949
5.218983
5.299449
5.237460
5.515814
5.429983
5.552769
5.635619
5.743504
6.036758
6.190538
6.519556
6.501675
6.459951
6.705523
7.419586
7.749796
7.615685
7.950664
8.360744
8.618832
9.180903
9.853840
9.942651
10.563731
11.599660
12.037754
13.177991
13.857484
14.443994
15.365481
16.512871
17.788410
18.973947
20.058751
21.868944
22.991896
25.720596
27.720928
30.583739
33.406615
37.957430
41.422844
51.344633
116.006732
816.085935
1016.069651
1016.069651
1016.069651
1016.069651
1016.069651
1016.069651
1016.069651
1016.069651
1016.069651
1016.069651
1016.069651
1016.069651
1016.069651
1016.069651
898.032784
213.982463
101.054907
82.527995
76.332688
67.404509
60.947537
56.944489
56.746602
61.579943
68.906546
81.865788
91.592669
102.906823
106.754899
107.536912
105.453730
94.958544
86.025596
73.101521
63.319802
52.074790
46.006441
41.086674
38.858652
36.631823
##ZVALUE=350
4.737973
4.848838
4.719496
4.855990
4.848838
4.895926
5.176663
5.236864
5.506873
5.246997
5.348921
5.529523
5.715489
5.470514
5.676746
5.670786
5.877614
5.807877
5.850792
6.293654
6.127954
6.494522
6.796718
6.796718
6.870627
7.575750
7.623434
7.588863
7.861853
8.063912
8.768439
8.980632
9.438992
9.883642
10.419488
10.836720
11.236668
11.701584
12.557507
13.148785
13.854504
14.696717
15.758872
16.757846
17.808676
19.242764
19.947886
21.672845
22.927523
24.672747
26.684999
29.129982
32.073855
35.003424
40.680766
45.170784
76.752901
302.011371
1016.069651
1016.069651
1016.069651
1016.069651
1016.069651
1016.069651
1016.069651
1016.069651
1016.069651
1016.069651
1016.069651
1016.069651
1016.069651
1016.069651
995.754600
385.359526
109.905005
79.057813
66.682696
59.853792
53.428411
50.909519
50.400496
52.824616
58.523417
65.142512
76.033473
84.382892
93.828440
99.868774
101.764798
99.225640
91.369748
82.988739
69.378614
60.912967
51.476955
45.756698
##ZVALUE=355
5.189776
5.171895
5.393624
5.399585
5.527735
5.456805
5.665421
5.571842
5.809665
6.055832
5.757809
6.048679
6.026626
6.236434
6.373525
6.396770
6.311536
6.587505
6.772876
6.704926
7.038713
6.853938
7.426739
7.524490
7.904768
7.883906
8.288622
8.218884
8.622408
8.696914
8.993745
9.237528
9.576678
10.140538
10.328889
11.107922
11.498928
11.877418
12.394786
13.297796
13.685822
14.411807
15.166998
15.573502
16.349554
17.251968
18.443465
19.436479
20.692945
22.062659
23.316741
25.459528
26.981831
29.172897
31.526685
35.490990
38.443804
44.599771
51.940084
181.018710
707.287788
1016.069651
1016.069651
1016.069651
1016.069651
1016.069651
1016.069651
1016.069651
1016.069651
1016.069651
1016.069651
1016.069651
1016.069651
1016.069651
1016.069651
486.846566
147.211552
73.024631
64.617991
56.925416
53.594708
50.011873
48.558712
48.472881
50.974488
56.252480
61.170459
71.220994
78.624487
88.612437
92.924833
96.070766
94.492435
87.042451
80.112815
69.589615
##ZVALUE=360
5.765557
5.764961
5.714893
5.436540
5.783439
5.869865
5.912781
6.093979
6.168485
6.274581
6.258488
6.284714
6.788969
6.385446
6.697774
6.855726
6.797910
7.090569
7.166862
7.056594
7.639527
7.549524
7.977486
7.705688
8.105636
8.080602
8.320808
8.771420
8.899570
9.202957
9.585619
9.831786
10.177493
10.443926
10.838509
11.103749
11.681914
12.270808
12.802482
13.465881
13.566613
13.891459
14.688969
15.225410
15.842915
16.837716
17.303824
18.306971
19.309521
20.731688
21.490455
22.882819
24.260879
26.278496
27.392507
29.768944
32.521486
35.194755
38.890839
44.524670
50.253868
84.408522
295.907855
1016.069651
1016.069651
1016.069651
1016.069651
1016.069651
1016.069651
1016.069651
1016.069651
1016.069651
1016.069651
1016.069651
1016.069651
1016.069651
1016.069651
905.456543
300.351977
81.461668
66.431761
58.424473
54.893494
50.566792
48.182607
47.233701
46.760440
47.419667
50.305724
55.419803
62.272549
70.948601
78.572631
84.405541
87.172985
87.679625
##ZVALUE=365
5.879998
5.817413
5.799532
5.807877
5.979538
5.945563
6.052852
5.916953
6.277561
6.404519
6.284714
6.544590
6.401539
6.669760
6.636977
6.862879
6.703734
6.860495
6.982684
7.294416
7.537603
7.341504
7.609725
7.770658
7.950664
8.069873
8.186698
8.778572
8.760691
8.812547
9.107590
9.733438
9.914637
9.944439
10.422468
10.911822
11.316538
11.856556
11.968613
12.633801
12.757778
13.458729
13.736486
14.559627
15.107989
15.768409
16.285777
16.960502
16.899705
17.603636
19.166470
20.267963
21.107793
22.015572
23.522973
25.173426
26.326776
28.512478
31.212568
34.498572
37.869811
44.264793
49.254894
59.090853
126.423836
798.192024
1016.069651
1016.069651
1016.069651
1016.069651
1016.069651
1016.069651
1016.069651
1016.069651
1016.069651
1016.069651
1016.069651
1016.069651
1016.069651
1016.069651
527.026653
105.656981
64.899921
56.842566
52.760839
48.398972
46.326518
43.814778
42.555928
41.814446
42.075515
44.633746
48.129559
54.250956
61.323643
69.966912
##ZVALUE=370
5.267859
5.443692
5.562901
5.786419
5.511642
5.727410
5.754828
5.653501
5.661845
5.896688
5.856752
6.174445
5.943775
6.213784
6.012917
6.438494
6.479621
6.296635
6.699562
6.530881
6.721616
6.675720
7.056594
6.983876
7.440448
7.315874
7.484555
7.596612
7.612705
8.114576
8.279681
8.583665
8.777976
8.747578
9.060502
9.467602
9.827614
10.191798
10.432601
11.172891
11.241436
11.706948
12.252927
12.680888
12.938976
13.359785
13.915896
14.134645
14.443994
15.237927
15.714765
16.845465
17.318726
17.905831
18.842816
20.056963
21.048784
22.392869
23.588538
25.259852
27.570724
31.339526
34.036636
38.220882
41.989684
48.828721
70.056915
408.656597
1016.069651
1016.069651
1016.069651
1016.069651
1016.069651
1016.069651
1016.069651
1016.069651
1016.069651
1016.069651
1016.069651
1016.069651
1016.069651
1016.069651
867.532492
185.944438
72.687864
54.500699
51.033497
46.335459
44.044852
41.494966
39.722919
37.781596
37.261844
38.138628
39.605498
43.472648
##ZVALUE=375
4.750490
4.943609
4.835725
5.036592
4.848838
5.037785
5.055666
4.918575
5.225539
5.151629
5.245805
5.402565
5.165935
5.557537
5.419850
5.236864
5.232692
5.700588
5.564690
5.677938
5.755424
5.782843
5.878806
5.872846
6.133914
6.249547
6.543994
6.414652
6.509423
6.848574
6.805658
7.323623
7.328987
7.876754
7.909536
8.339882
8.389950
8.895993
9.062886
9.486675
9.660721
10.318756
10.613799
10.932684
11.170506
11.437535
11.714697
12.033582
12.437701
12.762547
13.257861
13.925433
14.221668
14.905930
15.485883
16.516447
17.152429
18.371940
19.027591
19.790530
21.200776
23.490787
24.505854
27.211905
29.135942
32.996535
36.619902
44.076443
52.939653
180.629492
708.503723
1016.069651
1016.069651
1016.069651
1016.069651
1016.069651
1016.069651
1016.069651
1016.069651
1016.069651
1016.069651
1016.069651
1016.069651
1016.069651
1016.069651
446.151495
129.185915
56.813955
51.536560
47.214627
43.287873
40.163994
38.895607
36.668777
35.489798
35.302639
##ZVALUE=380
4.050732
4.030466
4.125834
4.245639
4.121661
4.435778
4.290938
4.216433
4.388690
4.442930
4.359484
4.445910
4.217625
4.371405
4.633665
4.656911
4.653931
4.981756
4.687905
4.752874
4.723668
5.104542
4.921556
5.123615
5.351901
5.329847
5.406737
5.762577
5.706549
5.773902
5.946755
6.230474
6.415844
6.868839
6.591678
7.080436
7.397532
7.744431
8.154511
8.752942
8.774996
9.217858
9.716749
9.595752
9.933710
10.682940
10.892749
11.256933
11.809468
12.280941
12.372732
12.742877
13.265610
14.005899
14.383793
14.866590
15.563965
16.552806
16.750693
17.832518
18.515587
19.409657
20.749569
21.956563
23.569465
26.134849
28.705597
33.890605
38.624406
45.727491
52.389503
95.809698
377.247930
1016.069651
1016.069651
1016.069651
1016.069651
1016.069651
1016.069651
1016.069651
1016.069651
1016.069651
1016.069651
1016.069651
1016.069651
1016.069651
1016.069651
817.615986
262.895823
71.524978
52.565932
46.493411
43.949485
39.927959
38.122535
36.219954
##ZVALUE=385
3.519654
3.440976
3.336668
3.638864
3.703833
3.526807
3.728867
3.866553
3.653765
3.737807
3.924966
3.775954
3.759861
3.726482
3.903508
3.929734
4.051924
3.838539
4.073977
4.171729
4.246831
4.365444
4.341602
4.420877
4.582405
4.689693
4.850626
5.037785
4.953742
5.118847
5.500913
5.683899
5.864501
6.263852
6.506443
6.844997
7.316470
7.503629
7.804632
8.125901
8.588433
8.789897
9.199977
9.943843
10.391474
10.778904
11.358857
11.494756
11.863708
12.252927
12.902617
13.194680
13.686419
14.140606
14.667511
14.892817
15.489459
15.803576
16.482472
16.916990
17.952919
18.171668
19.689798
20.094514
21.633506
23.088455
25.691986
27.726889
32.075644
35.679936
40.026903
44.045448
48.880577
55.508614
195.492506
755.279660
1016.069651
1016.069651
1016.069651
1016.069651
1016.069651
1016.069651
1016.069651
1016.069651
1016.069651
1016.069651
1016.069651
1016.069651
1016.069651
1016.069651
522.478819
143.616796
53.126812
46.410561
42.134523
39.631724
##ZVALUE=390
3.338456
3.351569
3.289580
3.259778
3.254414
3.331900
3.478527
3.404617
3.598928
3.413558
3.629923
3.567934
3.497601
3.791451
3.716946
3.747940
3.817677
3.914833
3.934503
3.887415
4.100800
4.159808
3.988743
4.314780
4.365444
4.421473
4.767776
4.862547
4.715919
5.148649
5.168915
5.564690
5.540848
6.262660
6.463528
6.842613
7.240772
8.026958
8.135438
8.647442
8.931756
9.876490
10.269880
10.837913
11.092424
11.889935
12.284517
12.587905
13.107657
13.891459
14.016628
14.846921
15.168786
15.592575
15.651584
16.478896
16.630888
17.486811
17.749667
18.324852
18.608570
18.632412
19.512773
20.540953
21.253824
22.575855
24.623871
27.219653
30.067563
33.755898
36.128759
38.440824
39.528608
41.472912
43.326616
48.303008
85.012317
549.252629
1016.075015
1016.075015
1016.075015
1016.075015
1016.075015
1016.075015
1016.075015
1016.075015
1016.075015
1016.075015
1016.075015
1016.075015
1016.075015
1016.075015
1004.250050
276.804566
80.212951
47.490001
##ZVALUE=395
3.176928
3.241897
3.221631
3.330708
3.173947
3.303885
3.414750
3.348589
3.445745
3.489852
3.426671
3.497601
3.561974
3.683567
3.647804
3.634691
3.712773
3.730655
4.093647
3.756881
3.760457
4.138947
4.003644
4.222989
4.145503
4.459620
4.633665
4.670620
4.687905
4.995465
5.507469
5.396605
5.678535
6.198883
6.765723
7.074475
7.697940
8.083582
8.893609
9.392500
10.253787
10.481477
11.263490
11.454821
12.627840
13.100505
13.549924
14.288425
14.717579
15.514493
15.887618
16.354918
16.586781
16.939640
17.683506
18.003583
18.375516
18.565655
19.338727
19.229650
19.365549
19.960999
20.468831
20.791888
21.956563
22.715926
24.739504
26.479959
29.386878
31.629801
33.866763
34.877658
35.953522
35.625696
36.453605
37.596822
40.583611
44.212937
64.724684
235.227942
1016.069651
1016.069651
1016.069651
1016.069651
1016.069651
1016.069651
1016.069651
1016.069651
1016.069651
1016.069651
1016.069651
1016.069651
1016.069651
1016.069651
1016.069651
647.220612
##ZVALUE=400
3.217459
3.172755
3.088713
3.171563
2.901554
3.126860
3.196597
3.370643
3.389716
3.466606
3.578663
3.534555
3.487468
3.393888
3.541708
3.633499
3.695488
3.646612
3.639460
3.787875
3.741980
3.746748
4.023910
4.035830
4.332662
4.225969
4.780889
4.515648
4.719496
4.856586
5.144477
5.263686
5.677938
6.188750
6.430745
7.355809
7.811785
8.373857
9.151697
9.855628
10.759830
11.291504
11.988878
12.781620
13.558865
13.890862
14.760494
15.299916
16.022921
16.613603
17.316937
17.422438
18.201470
18.597841
18.855929
19.097924
19.892454
19.871593
19.843578
20.190477
20.763874
20.578504
21.638870
21.602511
22.449493
23.188591
25.053620
26.687980
28.927922
30.913949
32.023787
32.636523
32.730699
31.609535
31.844974
31.464696
32.542944
34.407973
38.040876
41.658878
50.862432
112.173557
678.302646
1016.069651
1016.069651
1016.069651
1016.069651
1016.069651
1016.069651
1016.069651
1016.069651
1016.069651
1016.069651
1016.069651
1016.069651
1016.069651
##END
