##TITLE=D1-4
##FORMAT=SPECTACLE-ASCII V-1.2
##DATA TYPE=ULTRAVIOLET SPECTRUM
##SECOND TYPE=ULTRAVIOLET SPECTRUM
##DATE=01/24/18
##TIME=14:33:49
##SPECTROMETER/DATA SYSTEM=SPECTACLE
##XUNITS=NM EM
##YUNITS=ENERGY
##YFACTOR=1
##FIRSTX=220
##LASTX=410
##NPOINTS=96
##3DDATA=Equidistant
##ZUNITS=NM EX
##FIRSTZ=210
##LASTZ=400
##ZPOINTS=39
##XYDATA=(Y..Y)
##ZVALUE=210
85.078478
73.917508
50.648451
26.001930
17.348528
14.462471
16.719699
17.841458
16.202927
17.603636
19.270778
17.968416
19.478798
19.501448
22.299886
22.550821
21.802783
24.860501
25.435686
26.855469
30.500889
32.234788
38.254857
38.957000
41.765571
43.483973
49.028993
52.716732
53.518414
59.869885
66.155791
75.851679
79.985857
88.865757
102.488995
113.386512
126.671791
143.426657
157.115459
175.745487
193.761587
208.346844
225.386620
245.234966
267.995000
292.713642
304.217935
330.842733
346.048474
363.806486
373.519659
390.979648
398.141742
414.963961
426.249504
425.591469
429.732800
437.282920
437.382460
425.757766
418.446660
409.787893
404.126644
400.859714
388.336778
377.967954
373.739004
378.688574
396.470428
420.908928
434.923768
475.080609
511.250496
542.431474
554.270744
564.123988
560.404658
536.136627
508.321524
464.899540
429.261923
370.424986
337.204933
281.288624
246.425867
207.417607
186.787844
168.419480
158.718824
157.567859
157.387853
163.735747
175.119638
197.384953
220.089555
251.385570
##ZVALUE=215
401.410460
384.861827
306.382775
200.101733
132.899880
72.069764
44.290423
26.738644
27.446747
27.099848
26.628971
25.189519
25.621653
24.588704
24.698973
24.069548
26.752949
26.668906
28.811693
30.881763
34.353733
36.322474
37.287474
41.422844
45.824647
51.953793
52.518845
57.128668
61.070919
65.864921
70.858002
82.371831
92.729926
106.681585
124.073625
139.242411
163.084865
183.587670
209.639668
235.315561
258.733630
299.438834
325.716734
363.753438
390.949845
441.187620
462.327600
503.485799
526.987910
560.361743
595.696568
617.347956
647.009015
667.513013
685.814619
689.944029
703.645945
698.894858
698.860884
680.182576
668.701530
648.994446
626.204610
615.027547
603.291988
596.795678
580.801964
572.378635
568.196774
581.436753
591.382980
608.573556
641.765594
644.621849
645.619035
654.181838
639.244914
603.155494
564.581752
514.887571
469.220877
422.311425
368.793011
331.198573
286.611915
255.135894
225.333571
205.542445
189.187527
179.035664
169.788003
161.598921
157.287717
159.983635
163.728595
177.344680
##ZVALUE=220
1016.020775
1016.069651
1016.069651
974.338651
791.617036
622.083545
398.191810
235.201716
104.417801
60.111880
42.275786
38.446784
39.186478
37.063956
36.120415
34.241676
31.744838
33.184886
29.480457
33.740997
36.605000
38.636923
42.812824
45.213699
50.126910
53.055882
57.245493
62.616467
67.149997
71.664453
84.208846
92.323422
109.184980
133.134723
153.162479
191.455483
223.332644
267.567635
307.241678
356.601477
403.823853
474.556684
520.222783
601.671934
647.935867
720.771551
776.726007
846.778750
912.776589
976.699591
1016.069651
1016.069651
1016.069651
1016.069651
1016.069651
1016.069651
1016.069651
1016.069651
1016.069651
1016.069651
1016.069651
1016.069651
1016.069651
1016.069651
1016.069651
1016.069651
992.003679
964.218974
929.555893
926.810503
915.634632
907.542706
904.954672
902.668834
887.371898
863.471031
817.721486
776.314735
732.035637
667.069554
624.845624
559.241772
507.314801
450.258851
405.515432
357.400775
320.825577
292.806625
274.926424
249.667764
237.221718
219.943523
209.003687
196.240544
183.733702
178.826451
##ZVALUE=225
1016.069651
1016.069651
1016.069651
1016.069651
1016.069651
1016.069651
1016.069651
1016.069651
983.278751
648.030639
287.227631
137.384534
67.703724
62.182546
59.456825
56.958795
51.104426
49.441457
47.539473
43.917894
41.673779
44.979453
47.195554
50.597787
54.385662
58.807731
59.999824
65.790415
71.399808
82.033873
89.535713
105.922818
132.266879
167.256594
196.384788
251.632929
304.852724
374.018550
436.087847
526.929498
601.933599
699.921846
792.803764
903.561711
999.154449
1016.069651
1016.069651
1016.069651
1016.069651
1016.069651
1016.069651
1016.069651
1016.069651
1016.069651
1016.069651
1016.069651
1016.069651
1016.069651
1016.069651
1016.069651
1016.069651
1016.069651
1016.069651
1016.069651
1016.069651
1016.069651
1016.069651
1016.069651
1016.069651
1016.069651
1016.069651
1016.069651
1016.069651
1016.069651
1016.069651
1016.069651
1016.069651
981.688499
910.007954
828.452706
772.083998
703.314543
640.923977
570.113659
529.914498
470.419526
440.296531
404.222608
382.497907
346.791744
324.564576
293.916464
284.709930
263.200998
247.062445
230.877995
##ZVALUE=230
1016.069651
1016.069651
1016.069651
1016.069651
1016.069651
1016.069651
1016.069651
1016.069651
1016.069651
1016.069651
1016.069651
1016.069651
664.271712
249.876976
121.059418
90.798736
88.782907
85.678697
80.189705
73.848963
69.511533
62.586665
61.259866
59.992671
60.930848
62.688589
68.828464
68.793893
76.246858
83.000660
97.502470
116.715431
144.249797
190.056562
232.982635
306.289792
365.049839
469.225645
540.365577
653.621554
759.184957
887.022018
1001.404524
1016.069651
1016.069651
1016.069651
1016.069651
1016.069651
1016.069651
1016.069651
1016.069651
1016.069651
1016.069651
1016.069651
1016.069651
1016.069651
1016.069651
1016.069651
1016.069651
1016.069651
1016.069651
1016.069651
1016.069651
1016.069651
1016.069651
1016.069651
1016.069651
1016.069651
1016.069651
1016.069651
1016.069651
1016.069651
1016.069651
1016.069651
1016.069651
1016.069651
1016.069651
1016.069651
1016.069651
996.618867
926.911831
833.899975
764.187574
687.226653
628.470778
561.786890
519.703627
471.326709
437.840819
409.152508
377.353430
347.661972
324.921608
307.687521
285.091996
275.438428
##ZVALUE=235
289.498568
349.944830
768.882632
1016.069651
1016.069651
1016.069651
1016.069651
1016.069651
1016.069651
1016.069651
1016.069651
1016.069651
1016.069651
1016.069651
1016.069651
662.208796
223.236680
131.945610
125.344992
122.352839
118.649602
114.112496
101.723671
88.213682
86.153746
83.931684
82.165003
82.884431
83.031654
99.521875
106.190443
122.943521
148.050785
197.050571
230.730772
295.815468
357.931852
447.537899
526.457429
636.609793
721.480846
840.172768
943.175554
1016.069651
1016.069651
1016.069651
1016.069651
1016.069651
1016.069651
1016.069651
1016.069651
1016.069651
1016.069651
1016.069651
1016.069651
1016.069651
1016.069651
1016.069651
1016.069651
1016.069651
1016.069651
1016.069651
1016.069651
1016.069651
1016.069651
1016.069651
1016.069651
1016.069651
1016.069651
1016.069651
1016.069651
1016.069651
1016.069651
1016.069651
1016.069651
1016.069651
1016.069651
1016.069651
1016.069651
929.018855
863.021612
755.957961
703.853965
636.558533
594.415665
529.971719
488.227606
450.270772
418.232679
392.394662
373.559594
347.464681
328.297615
295.625925
289.118886
275.085568
##ZVALUE=240
18.537641
22.340417
125.756860
378.277898
1006.824970
1016.069651
1016.069651
1016.069651
1016.069651
1016.069651
1016.069651
1016.069651
1016.069651
1016.069651
1016.069651
1016.069651
1016.069651
984.352827
502.109528
196.811557
160.973668
161.156654
161.786675
154.913664
137.504935
136.277676
118.750930
113.409758
106.360912
105.440617
108.036995
123.286843
138.038993
160.097480
192.210674
237.610936
272.458792
325.032473
377.361774
449.040532
512.002707
581.796765
658.579469
743.277669
818.002820
926.878452
986.169577
1016.069651
1016.069651
1016.069651
1016.069651
1016.069651
1016.069651
1016.069651
1016.069651
1016.069651
1016.069651
1016.069651
1016.069651
1016.069651
1016.069651
1016.069651
1016.069651
1016.069651
1016.069651
1016.069651
1016.069651
1016.069651
1016.069651
1016.069651
1016.069651
1016.069651
1016.069651
1016.069651
999.172926
951.453447
914.991498
841.410756
777.443647
717.049837
656.024814
582.776666
549.154878
496.369600
460.151434
419.651866
388.208628
362.190604
338.646770
316.639543
299.222469
280.978680
268.383622
251.812935
242.160559
234.520435
##ZVALUE=245
12.841821
12.756586
13.920665
19.825697
59.605837
304.755569
776.125789
1016.069651
1016.069651
1016.069651
1016.069651
1016.069651
1016.069651
1016.069651
1016.069651
1016.069651
1016.069651
1016.069651
1016.069651
1016.069651
848.093629
275.883675
179.790854
178.985000
183.268785
178.128481
171.024799
158.203840
148.118734
133.998990
125.912428
125.897527
125.167966
135.697722
147.713423
169.605613
189.116597
224.424005
250.620842
283.548832
325.989723
374.292731
417.167544
479.661822
522.675514
594.892502
646.660924
704.912543
752.555728
807.397962
860.411525
907.438993
935.872793
990.333557
995.590687
1015.353799
1016.069651
1016.069651
1016.069651
1016.069651
1014.830470
989.278555
972.370505
951.823592
919.053555
889.091492
862.839818
832.765698
814.077854
800.426602
784.395933
780.792832
763.589740
752.951503
734.117627
696.992874
656.455755
615.297556
574.384928
527.730584
483.601689
433.778763
406.675935
363.976955
341.848731
317.934752
299.065709
281.032920
269.581676
250.979662
237.834454
224.974751
214.374661
205.537677
201.021433
188.788772
##ZVALUE=250
11.026859
10.583997
11.605620
12.400746
14.788508
17.218590
29.697418
177.348852
549.810529
1016.069651
1016.069651
1016.069651
1016.069651
1016.069651
1016.069651
1016.069651
1016.069651
1016.069651
1016.069651
1016.069651
1016.069651
1016.069651
1016.069651
449.398756
216.494799
180.811882
191.044807
198.059678
197.297931
183.136463
178.168416
164.608955
155.437589
149.588585
150.226951
160.231590
175.478458
205.494761
230.319500
268.423557
304.347873
360.997915
400.632620
458.901525
513.065457
586.456656
638.272762
700.487494
753.517747
811.536908
857.275724
910.135508
943.741798
983.078480
1010.723710
1016.069651
1016.069651
1016.069651
1016.069651
1016.069651
1016.069651
1014.630795
992.077589
954.886675
932.611823
899.802446
878.482461
848.048925
812.522769
808.838010
787.733793
775.310993
755.591989
735.173821
713.230968
676.659942
628.398657
591.524839
551.641583
499.238968
470.400453
420.732498
394.439697
352.794528
327.991843
306.671858
291.692615
269.324780
259.642601
240.752697
232.594609
218.686461
204.904675
196.252465
188.308954
184.379816
##ZVALUE=255
8.585453
8.572936
9.884834
10.729432
11.893511
12.923479
15.926957
17.147660
24.096966
70.304871
405.748487
955.484509
1016.088724
1016.088724
1016.088724
1016.088724
1016.088724
1016.088724
1016.088724
1016.088724
1016.088724
1016.088724
1016.088724
1016.088724
1016.088724
830.978751
318.053961
191.298723
191.396475
202.638507
211.084485
214.258432
216.095448
208.989978
205.810666
211.658478
224.770904
250.350833
279.438496
337.759852
375.971794
443.530679
502.221584
584.579706
654.119849
751.622915
821.254849
894.632936
970.135927
1016.088724
1016.088724
1016.088724
1016.088724
1016.088724
1016.088724
1016.088724
1016.088724
1016.088724
1016.088724
1016.088724
1016.088724
1016.088724
1016.088724
1016.088724
1016.088724
1016.088724
1016.088724
1016.088724
1016.088724
1010.092497
985.846519
960.492492
920.653939
870.659947
840.638876
789.140463
740.538836
679.397583
632.950664
571.742654
539.122820
493.513942
454.638004
420.060754
394.221544
358.218551
335.423946
311.920643
296.717882
274.522901
257.674456
241.525769
234.801769
214.545727
208.106637
192.124844
##ZVALUE=260
9.009838
8.578897
8.901954
9.678602
10.018945
11.295676
12.539625
14.363527
15.910864
17.381907
20.603538
32.636523
190.087557
547.543764
1016.069651
1016.069651
1016.069651
1016.069651
1016.069651
1016.069651
1016.069651
1016.069651
1016.069651
1016.069651
1016.069651
1016.069651
1016.069651
1016.069651
669.703484
244.902968
188.362598
216.158628
237.928629
269.770622
289.101005
317.720771
333.416462
373.515487
408.252478
466.254950
523.387790
612.552762
689.803958
811.702609
900.470018
1016.069651
1016.069651
1016.069651
1016.069651
1016.069651
1016.069651
1016.069651
1016.069651
1016.069651
1016.069651
1016.069651
1016.069651
1016.069651
1016.069651
1016.069651
1016.069651
1016.069651
1016.069651
1016.069651
1016.069651
1016.069651
1016.069651
1016.069651
1016.069651
1016.069651
1016.069651
1016.069651
1016.069651
1016.069651
1016.069651
1007.017493
948.326588
870.674849
814.153552
740.484595
689.724684
631.468892
582.683682
533.614755
499.244928
458.674431
428.136587
395.412445
371.354818
338.486433
318.186879
287.970901
271.219611
251.778960
242.208838
224.229693
##ZVALUE=265
8.722544
8.258820
9.479523
9.801984
10.482669
10.643601
11.391640
12.740493
14.156699
16.083717
17.450452
18.493533
21.462440
26.285648
68.881512
397.285819
950.642824
1016.093493
1016.093493
1016.093493
1016.093493
1016.093493
1016.093493
1016.093493
1016.093493
1016.093493
1016.093493
1016.093493
1016.093493
1016.093493
1029.563546
444.472432
241.728425
265.696645
316.774845
389.088988
445.313454
526.199937
582.143664
669.326782
743.829608
857.520700
964.471698
1016.093493
1016.093493
1016.093493
1016.093493
1016.093493
1016.093493
1016.093493
1016.093493
1016.093493
1016.093493
1016.093493
1016.093493
1016.093493
1016.093493
1016.093493
1016.093493
1016.093493
1016.093493
1016.093493
1016.093493
1016.093493
1016.093493
1016.093493
1016.093493
1016.093493
1016.093493
1016.093493
1016.093493
1016.093493
1016.093493
1016.093493
1016.093493
1016.093493
1016.093493
1016.093493
1016.093493
949.485898
885.109901
799.361467
747.588873
687.201619
640.446544
575.675964
541.175008
484.948754
459.152460
417.420864
387.602448
352.767706
332.386494
306.038857
286.728740
266.205668
##ZVALUE=270
9.144545
9.539723
9.075999
9.227991
10.136962
10.777712
11.573434
12.311935
12.770891
14.393926
15.109777
16.075969
17.871857
19.533634
20.712614
23.072958
105.552077
166.365504
746.136904
1016.069651
1016.069651
1016.069651
1016.069651
1016.069651
1016.069651
1016.069651
1016.069651
1016.069651
1016.069651
1016.069651
1016.069651
1016.069651
1016.069651
810.582638
386.049747
403.787494
484.139919
622.352958
730.136037
961.217880
1007.202864
1016.069651
1016.069651
1016.069651
1016.069651
1016.069651
1016.069651
1016.069651
1016.069651
1016.069651
1016.069651
1016.069651
1016.069651
1016.069651
1016.069651
1016.069651
1016.069651
1016.069651
1016.069651
1016.069651
1016.069651
1016.069651
1016.069651
1016.069651
1016.069651
1016.069651
1016.069651
1016.069651
1016.069651
1016.069651
1016.069651
1016.069651
1016.069651
1016.069651
1016.069651
1016.069651
1016.069651
1016.069651
1016.069651
1016.069651
1016.069651
992.310643
927.821994
848.647952
790.262818
717.869997
665.813684
601.547956
560.186505
511.996746
470.399857
427.640676
394.297838
360.014439
340.126753
314.705968
##ZVALUE=275
9.905696
10.565519
10.424852
10.779500
11.207461
11.141896
11.629462
12.341738
13.122559
13.828874
14.306903
15.301704
16.861558
18.042922
19.448996
20.487905
22.141933
25.314689
28.419495
87.975860
354.093909
941.606760
1016.883850
1016.883850
1016.883850
1016.883850
1016.883850
1016.883850
1016.883850
1016.883850
1016.883850
1016.883850
1016.883850
1016.883850
1016.883850
1016.883850
873.163939
682.844520
786.928535
981.495976
1016.883850
1016.883850
1016.883850
1016.883850
1016.883850
1016.883850
1016.883850
1016.883850
1016.883850
1016.883850
1016.883850
1016.883850
1016.883850
1016.883850
1016.883850
1016.883850
1016.883850
1016.883850
1016.883850
1016.883850
1016.883850
1016.883850
1016.883850
1016.883850
1016.883850
1016.883850
1016.883850
1016.883850
1016.883850
1016.883850
1016.883850
1016.883850
1016.883850
1016.883850
1016.883850
1016.883850
1016.883850
1016.883850
1016.883850
1016.883850
1016.883850
1016.883850
1016.883850
976.229906
907.696486
826.903582
766.397715
698.676705
646.148920
583.792925
537.532568
482.584834
448.175669
408.486724
380.381942
355.704427
##ZVALUE=280
9.721518
9.006858
9.402633
9.803772
10.545850
10.644794
11.078715
11.767745
12.611747
12.626648
13.173819
13.476610
14.847517
15.042424
15.441775
17.754436
18.070936
19.586682
22.431612
25.141835
28.568506
38.070679
230.652690
838.102698
1016.069651
1016.069651
1016.069651
1016.069651
1016.069651
1016.069651
1016.069651
1016.069651
1016.069651
1016.069651
1016.069651
1016.069651
1016.069651
1016.069651
1016.069651
1016.069651
1016.069651
1016.069651
1016.069651
1016.069651
1016.069651
1016.069651
1016.069651
1016.069651
1016.069651
1016.069651
1016.069651
1016.069651
1016.069651
1016.069651
1016.069651
1016.069651
1016.069651
1016.069651
1016.069651
1016.069651
1016.069651
1016.069651
1016.069651
1016.069651
1016.069651
1016.069651
1016.069651
1016.069651
1016.069651
1016.069651
1016.069651
1016.069651
1016.069651
1016.069651
1016.069651
1016.069651
1016.069651
1016.069651
1016.069651
1016.069651
1016.069651
1016.069651
1016.069651
1016.069651
948.646665
864.775777
804.246664
727.902651
675.124526
612.645745
566.744804
505.617857
475.403666
432.958603
399.077535
370.486975
##ZVALUE=285
9.456873
9.271502
9.477735
9.741783
10.182858
10.525584
10.225773
11.341572
11.758804
12.447834
12.540817
13.303757
14.140606
14.242530
15.070438
16.141534
16.845465
18.172860
19.092560
20.874739
22.828579
26.434660
29.567480
37.092566
95.871091
584.978461
1016.069651
1016.069651
1016.069651
1016.069651
1016.069651
1016.069651
1016.069651
1016.069651
1016.069651
1016.069651
1016.069651
1016.069651
1016.069651
1016.069651
1016.069651
1016.069651
1016.069651
1016.069651
1016.069651
1016.069651
1016.069651
1016.069651
1016.069651
1016.069651
1016.069651
1016.069651
1016.069651
1016.069651
1016.069651
1016.069651
1016.069651
1016.069651
1016.069651
1016.069651
1016.069651
1016.069651
1016.069651
1016.069651
1016.069651
1016.069651
1016.069651
1016.069651
1016.069651
1016.069651
1016.069651
1016.069651
1016.069651
1016.069651
1016.069651
1016.069651
1016.069651
1016.069651
1016.069651
1016.069651
1016.069651
1016.069651
1016.069651
961.671472
899.145007
819.970965
758.875608
696.088672
643.705726
573.802590
532.095432
479.514003
441.782475
405.780673
377.621651
345.570445
##ZVALUE=290
9.147525
9.275675
9.476542
9.566545
9.817481
10.061860
10.764599
10.410547
11.543632
11.408925
12.224913
12.634993
13.027787
13.457537
13.934970
14.422536
14.708638
15.692711
16.741753
18.896461
19.378662
20.795465
23.753643
26.523471
31.632781
34.657717
52.320957
183.216929
918.372869
1016.058922
1016.058922
1016.058922
1016.058922
1016.058922
1016.058922
1016.058922
1016.058922
1016.058922
1016.058922
1016.058922
1016.058922
1016.058922
1016.058922
1016.058922
1016.058922
1016.058922
1016.058922
1016.058922
1016.058922
1016.058922
1016.058922
1016.058922
1016.058922
1016.058922
1016.058922
1016.058922
1016.058922
1016.058922
1016.058922
1016.058922
1016.058922
1016.058922
1016.058922
1016.058922
1016.058922
1016.058922
1016.058922
1016.058922
1016.058922
1016.058922
1016.058922
1016.058922
1016.058922
1016.058922
1016.058922
1016.058922
1016.058922
1016.058922
1016.058922
1016.058922
1003.548503
907.166600
845.384598
781.162977
724.697709
658.030510
610.345602
552.261472
513.460636
470.028520
429.979563
389.735699
361.725688
330.919623
308.342576
283.126831
##ZVALUE=295
8.663535
8.676648
8.429885
8.965731
8.959770
9.456873
9.933710
9.869933
10.501742
10.428429
11.099577
11.277795
11.359453
12.424588
12.348890
13.350844
13.651848
14.045835
15.721917
15.771985
16.706586
17.206669
19.953847
21.412969
25.045872
26.611686
29.898882
35.440922
39.372444
100.081563
418.017507
1016.069651
1016.069651
1016.069651
1016.069651
1016.069651
1016.069651
1016.069651
1016.069651
1016.069651
1016.069651
1016.069651
1016.069651
1016.069651
1016.069651
1016.069651
1016.069651
1016.069651
1016.069651
1016.069651
1016.069651
1016.069651
1016.069651
1016.069651
1016.069651
1016.069651
1016.069651
1016.069651
1016.069651
1016.069651
1016.069651
1016.069651
1016.069651
1016.069651
1016.069651
1016.069651
1016.069651
1016.069651
1016.069651
1016.069651
1016.069651
1016.069651
1016.069651
1016.069651
1013.397574
947.350860
885.684490
816.705823
763.747692
692.607760
649.096966
583.950877
550.029874
501.461625
468.885899
426.739454
397.161841
362.909436
339.836478
308.778882
287.714005
261.401534
245.139599
225.837827
213.432908
197.224617
##ZVALUE=300
7.549524
7.851720
8.225441
8.295774
8.481741
8.976460
8.883476
9.234548
9.515882
10.200739
10.213852
10.200739
10.457635
11.156797
11.350513
11.893511
12.454987
12.542605
13.641715
13.790727
14.269948
15.573502
17.106533
17.861724
19.642711
21.941662
23.419857
26.171803
29.963851
33.227801
38.210750
51.007867
162.118077
952.474475
1016.069651
1016.069651
1016.069651
1016.069651
1016.069651
1016.069651
1016.069651
1016.069651
1016.069651
1016.069651
1016.069651
1016.069651
1016.069651
1016.069651
1016.069651
808.735490
707.522035
759.267807
804.566741
865.100026
910.612941
963.608027
990.409851
1013.360620
1013.105512
990.530849
969.665647
927.477479
894.284844
854.453444
818.269849
775.452852
747.557878
711.159706
686.168671
649.151802
626.217723
595.730543
572.430491
536.908507
511.222482
464.967489
440.004468
404.644012
377.882719
345.931649
320.635438
296.837687
277.664661
259.982944
243.592858
225.084424
212.738514
195.676684
183.413625
172.599554
161.003470
149.739981
142.303705
132.221580
125.657916
119.780898
##ZVALUE=305
7.390976
7.379651
7.513762
7.672906
7.666945
7.521510
8.215904
8.643866
8.634925
8.838773
9.176731
9.575486
9.741783
10.190606
10.334849
10.890961
11.238456
11.082888
12.137890
11.958480
12.633801
13.672709
14.641881
15.950799
17.064810
17.797947
19.100904
22.278428
23.341775
26.470423
29.221773
34.544468
39.671659
48.606992
96.477866
671.057701
1016.069651
1016.069651
1016.069651
1016.069651
1016.069651
1016.069651
1016.069651
1016.069651
1016.069651
1016.069651
1016.069651
1016.069651
1016.069651
1016.069651
1016.069651
712.983012
394.921899
356.246829
368.402004
389.328599
410.050750
431.293845
450.732708
464.024544
471.792817
467.741489
450.458527
423.224568
399.611592
364.190936
339.644551
315.984488
299.504995
285.720825
276.334882
270.305872
261.755586
247.315764
238.773823
219.986439
208.346844
191.010833
179.075599
164.345503
155.547857
145.095587
137.271881
128.604770
123.702884
114.876628
110.715628
105.272532
100.974441
95.117688
90.933442
87.315440
84.243417
80.781579
77.575445
75.917840
##ZVALUE=310
6.923676
6.630421
6.842613
7.085800
7.144809
7.659793
7.520914
8.055568
8.019805
8.120537
8.450747
8.607507
8.932948
8.955598
9.484887
8.946657
9.708405
10.374784
10.270476
10.902882
11.389852
11.734962
12.710690
13.437867
14.767647
15.309453
16.666651
17.935634
18.756986
21.247864
22.246838
26.056767
28.709769
34.128428
38.037896
46.111941
57.574511
294.483900
943.572521
1016.069651
1016.069651
1016.069651
1016.069651
1016.069651
1016.069651
1016.069651
1016.069651
1016.069651
1016.069651
1016.069651
1016.069651
1016.069651
1016.069651
958.218575
378.228426
171.119571
162.462592
166.941881
174.155831
189.269781
204.414725
222.875476
235.260725
242.126584
242.116451
227.668881
212.749839
189.198852
171.181560
153.726935
144.027472
134.666562
131.877661
124.849677
119.738579
110.592842
104.948878
96.727610
90.809464
83.118677
80.973506
76.124668
72.365999
70.297718
67.827702
65.952539
64.860582
63.196421
62.578917
58.793426
57.415962
56.730509
54.757595
54.304600
53.665638
52.553415
##ZVALUE=315
6.551743
6.440878
6.382465
6.568432
6.969571
6.880760
7.045865
7.113814
7.311702
7.319450
7.641912
7.858872
8.050799
8.465648
8.655787
9.015799
8.945465
9.451509
9.418726
10.260940
10.734797
10.724664
11.829734
12.114644
12.620687
13.470650
14.116764
15.168786
16.678572
17.893910
19.241571
21.229982
22.751689
26.443601
28.906465
33.901930
38.119555
45.297742
51.100850
123.892426
521.262884
1016.055942
1016.055942
1016.055942
1016.055942
1016.055942
1016.055942
1016.055942
1016.055942
1016.055942
1016.055942
1016.055942
1016.055942
1016.055942
1016.055942
1016.055942
556.155443
146.559477
106.230974
100.989938
102.808475
111.002922
121.359825
137.312412
150.639415
169.075727
175.410509
175.584555
171.286464
157.664418
146.418810
130.306482
117.940903
103.290677
93.309879
81.957579
75.205564
67.588687
63.151717
58.563948
56.613684
53.652525
52.726865
52.620769
51.137805
50.500631
50.119758
49.719810
48.390627
47.279596
46.467781
45.257807
44.884682
43.832660
44.330955
43.755770
##ZVALUE=320
6.237626
5.964637
5.935431
6.129742
6.270409
6.236434
6.655455
6.911755
6.829500
6.766915
7.305741
7.517934
7.456541
7.926822
8.136630
8.213520
8.326769
8.672476
8.901954
8.834600
9.452701
10.046959
10.300875
11.006594
11.269450
12.508631
13.221502
13.548732
14.512539
15.260577
16.189814
17.580986
19.380450
21.501780
22.890568
25.939941
29.189587
32.801628
36.379695
43.101907
48.301816
68.351030
223.996639
1016.069651
1016.069651
1016.069651
1016.069651
1016.069651
1016.069651
1016.069651
1016.069651
1016.069651
1016.069651
1016.069651
1016.069651
1016.069651
1016.069651
1016.069651
965.532064
236.105919
101.394653
84.425807
80.627799
82.371831
87.740421
101.952553
114.561915
136.255622
151.701570
163.498521
168.773532
164.908767
155.548453
135.837793
117.892623
95.586777
82.005858
67.606568
60.072541
53.510666
51.013827
49.230456
47.663450
46.824813
45.857430
45.900941
45.666695
45.473576
44.233799
44.322610
43.104887
42.522550
41.829944
42.153001
41.106939
41.528940
##ZVALUE=325
5.493760
5.398989
5.888939
5.817413
5.770922
6.140471
6.196499
6.426573
6.451607
6.860495
6.526709
6.953478
7.153749
7.529855
7.414818
7.520914
7.803440
7.795691
8.030534
8.399487
9.089708
9.127855
9.680986
9.758472
10.586977
10.717511
11.437535
12.028813
13.088584
14.034510
14.660954
15.029907
15.871525
18.236637
19.451976
21.628737
23.461580
25.198460
27.870536
31.987429
34.930706
41.019917
46.418905
56.315660
119.186640
820.365548
1016.064882
1016.064882
1016.064882
1016.064882
1016.064882
1016.064882
1016.064882
1016.064882
1016.064882
1016.064882
1016.064882
1016.064882
1016.064882
1016.064882
1016.064882
373.493433
123.523474
81.507564
76.163411
73.654652
76.558590
85.123777
98.518729
119.903684
137.705803
155.145526
163.418651
163.280964
156.012774
135.833621
117.675662
94.978809
79.976916
64.330697
56.857467
50.529838
48.003793
46.347976
45.215487
44.395924
44.396520
43.851733
43.755770
42.465925
42.455792
41.891932
41.810870
40.692687
41.198730
41.084886
##ZVALUE=330
5.277991
5.209446
5.448461
5.652905
5.410910
5.811453
5.672574
6.002784
6.008744
6.299615
6.130934
6.493926
6.730556
6.670952
7.290840
6.971955
7.326603
7.557869
7.730722
7.751584
7.897615
8.565784
8.821487
8.786917
9.299517
9.777546
10.581613
11.015534
11.173487
11.970997
12.800694
13.636947
14.366508
15.720725
16.454458
17.842650
19.107461
21.332502
22.867918
25.557876
27.354956
30.412674
33.593774
38.029552
43.434501
51.227808
68.209767
365.419984
1016.069651
1016.069651
1016.069651
1016.069651
1016.069651
1016.069651
1016.069651
1016.069651
1016.069651
1016.069651
1016.069651
1016.069651
1016.069651
1016.069651
1016.069651
763.475895
223.730803
82.889795
75.269938
72.096586
73.766708
81.268549
90.875626
107.398629
120.994449
136.264563
145.956874
148.632526
145.317912
133.774877
120.379925
100.556612
86.482763
69.827437
61.826706
52.671432
48.563480
46.259761
44.722557
43.298602
43.018460
41.756630
41.817427
41.211843
41.372776
41.142702
41.049719
41.019917
##ZVALUE=335
5.202889
5.188584
5.113482
5.443692
5.208850
5.524755
5.723834
5.642772
5.775690
5.843639
5.598664
6.202459
6.300807
6.408691
6.344914
6.611943
6.472468
6.572604
7.123947
7.165670
7.322431
7.711649
7.982850
8.129478
8.705854
8.950830
9.284616
9.555817
10.190606
10.615587
11.026859
12.234449
12.633801
13.209581
14.557838
15.752912
16.653538
18.206835
19.400716
21.068454
22.620559
25.266409
26.826859
29.679537
32.973886
37.181973
40.756464
47.015548
53.728819
150.340796
604.791641
1016.049981
1016.049981
1016.049981
1016.049981
1016.049981
1016.049981
1016.049981
1016.049981
1016.049981
1016.049981
1016.049981
1016.049981
1016.049981
1016.049981
972.201824
354.448557
100.474954
79.668760
76.995492
77.434778
80.712438
84.270835
92.407465
98.696947
109.350681
117.634535
128.262639
130.296946
127.850771
120.543838
107.064843
96.189976
82.073808
71.129799
59.472919
52.803755
47.663450
44.508576
42.599440
42.509437
41.757822
41.798949
41.272640
41.960478
41.883588
##ZVALUE=340
4.982948
4.737973
4.987717
4.966855
5.092621
5.099773
5.243421
5.201697
5.526543
5.602837
5.724430
5.686879
5.692840
5.743504
5.687475
6.075501
6.035566
6.619692
6.546974
6.992817
7.297993
7.095933
7.618666
7.572770
8.121729
8.029938
8.515716
8.936524
9.470582
9.585619
10.223985
10.798573
11.304617
12.194514
12.554526
13.872981
14.846921
15.870929
16.933680
18.040538
19.216537
21.004677
22.380948
23.360848
25.811791
28.310418
30.642748
34.669638
37.748814
43.764710
48.522949
76.836348
280.462503
1016.072035
1016.072035
1016.072035
1016.072035
1016.072035
1016.072035
1016.072035
1016.072035
1016.072035
1016.072035
1016.072035
1016.072035
1016.072035
1016.072035
1016.072035
616.998672
127.800703
89.105964
84.555745
82.129836
78.044534
75.953603
74.667931
76.929927
83.684921
92.367530
105.643868
113.407969
120.189786
119.263530
113.376975
105.285645
91.277957
81.650615
67.576766
60.115457
51.830411
47.480464
44.356585
43.329597
42.586923
42.689443
42.814612
##ZVALUE=345
4.623532
4.798770
4.852414
4.874468
5.025864
5.158782
5.231500
5.315542
5.329847
5.512834
5.348921
5.467534
5.675554
5.659461
5.948544
5.734563
6.135702
6.168485
6.021857
6.560683
6.375909
6.629825
7.077456
7.160902
7.298589
7.839799
8.006692
8.376837
8.650422
8.905530
9.330511
9.931922
10.160804
10.626912
11.323690
12.284517
12.866855
14.000535
14.486909
15.781522
16.581416
17.833710
19.099712
20.401478
21.375418
23.377538
24.636984
27.023554
29.078722
32.813549
35.023689
40.366650
44.598579
53.691864
122.771859
836.724639
1016.069651
1016.069651
1016.069651
1016.069651
1016.069651
1016.069651
1016.069651
1016.069651
1016.069651
1016.069651
1016.069651
1016.069651
1016.069651
1016.069651
952.003002
239.353776
109.971762
90.682507
82.802773
72.808862
67.158937
61.198473
60.761571
66.672564
72.895885
86.380839
95.995665
106.285810
111.374855
112.218857
110.374689
101.788640
92.385411
79.109669
68.462491
58.171749
53.094625
48.050880
46.768785
45.101643
##ZVALUE=350
4.996657
5.120635
5.270839
5.423427
5.151629
5.355477
5.595684
5.661845
5.676746
5.726814
5.675554
5.973577
6.096959
6.083846
6.017685
6.220937
6.393790
6.301999
6.515980
6.495714
6.803870
6.852746
7.055998
7.379651
7.638931
7.388592
7.884502
8.156896
8.534789
8.832812
9.022951
9.650588
9.950995
10.597706
10.955930
11.581779
11.988878
12.863874
13.920665
14.252663
14.974475
15.961528
16.713738
17.846823
18.419623
19.824505
21.204948
23.000836
24.120808
26.894808
28.136969
31.077862
33.682585
37.856698
41.998625
48.833489
69.327950
394.573808
1016.016006
1016.016006
1016.016006
1016.016006
1016.016006
1016.016006
1016.016006
1016.016006
1016.016006
1016.016006
1016.016006
1016.016006
1016.016006
1016.016006
1016.016006
362.203717
124.229789
82.255602
73.203444
63.567758
58.459640
54.810643
54.588914
57.369471
61.217546
69.090724
76.755881
89.495778
97.832680
105.460882
106.192827
104.459524
98.969936
87.427497
79.910755
68.741441
62.576532
55.728555
##ZVALUE=355
5.811453
5.947948
6.059408
6.009936
5.890727
5.954504
6.039739
6.413460
6.175637
6.540418
6.634593
6.638765
6.882548
6.694794
6.616712
6.782413
6.673932
7.033944
7.090569
7.268786
7.568598
7.584691
7.721782
8.229613
8.068681
8.531809
8.719563
8.942485
9.276867
9.178519
9.565949
9.979606
10.380745
10.799766
11.299849
11.784434
12.226701
12.860894
12.916923
13.990998
14.513731
15.630722
16.202927
17.099977
17.629862
18.813610
19.589663
20.807981
22.126436
23.762584
24.672747
27.127862
28.367639
30.907989
33.860803
37.811995
41.060448
46.784878
54.286718
172.533989
719.064474
1016.069651
1016.069651
1016.069651
1016.069651
1016.069651
1016.069651
1016.069651
1016.069651
1016.069651
1016.069651
1016.069651
1016.069651
1016.069651
1016.069651
540.674925
161.629915
79.083443
69.382787
62.005520
58.460832
55.207610
53.149462
53.189993
54.832697
59.412718
65.202713
74.112415
81.898570
92.579722
99.923611
102.506876
101.591945
96.808672
89.775920
80.398917
##ZVALUE=360
6.296635
6.209612
6.149411
6.515980
6.151795
6.440878
6.358624
6.587505
6.872416
6.912947
7.054806
7.066727
7.233620
7.313490
7.366538
7.576942
7.735491
7.767677
7.677674
7.732511
7.964969
8.201599
8.370876
8.823872
9.013414
9.100437
9.291768
9.652972
9.658933
10.072589
10.371804
10.449886
10.864735
11.442900
11.905432
12.098551
12.906790
13.196468
13.348460
14.195442
14.635921
15.210509
15.599728
16.750693
17.416477
17.966628
18.855929
19.576550
20.873547
21.791458
23.162961
24.578571
26.112795
28.082728
29.277802
31.696558
33.735633
37.250519
41.352510
47.834516
53.924918
88.464618
307.061672
1016.172767
1016.172767
1016.172767
1016.172767
1016.172767
1016.172767
1016.172767
1016.172767
1016.172767
1016.172767
1016.172767
1016.172767
1016.172767
1016.172767
955.581665
330.163836
87.446570
71.107745
62.961578
58.865547
55.310726
52.515864
50.970912
50.584674
52.602887
55.280924
60.934424
67.117810
78.117847
86.312890
92.996955
97.594857
98.888874
##ZVALUE=365
6.227493
6.183982
6.266832
6.451607
6.361604
6.510615
6.399751
6.766915
6.624460
6.759763
6.761551
6.755590
7.128716
7.315874
7.094741
7.159710
7.297993
7.301569
7.655621
7.739663
7.698536
8.442998
8.338690
8.461475
8.606911
8.734465
9.161830
9.269714
9.255409
9.801984
9.978414
10.054708
10.383725
11.074543
11.033416
11.572838
11.837482
12.797713
13.117790
13.565421
14.081597
14.462471
15.412569
15.718937
16.316772
17.018914
17.420650
18.143654
18.192530
19.511580
20.226836
21.644831
22.560954
24.004579
24.944544
26.545525
28.313994
30.172467
32.756925
36.703944
40.208697
46.875477
52.373409
61.894655
123.736858
777.255893
1016.069651
1016.069651
1016.069651
1016.069651
1016.069651
1016.069651
1016.069651
1016.069651
1016.069651
1016.069651
1016.069651
1016.069651
1016.069651
1016.069651
591.038465
116.121769
70.164800
61.211586
56.891441
52.552819
50.140619
48.139691
46.671629
46.880841
47.460794
51.156878
55.114627
62.738657
70.442557
79.249740
##ZVALUE=370
5.842447
5.841851
5.767941
6.061792
5.998611
6.243587
6.247759
6.230474
6.202459
6.197691
6.377697
6.508827
6.523728
6.479621
6.645918
6.561875
6.767511
6.806850
7.049441
7.164478
7.197857
7.279515
7.389784
7.682443
7.464886
7.898808
7.915497
8.380413
8.403659
8.795857
8.824468
9.204745
9.415746
9.342432
9.840727
10.414720
10.646582
11.018515
11.301637
11.795759
12.033582
12.690425
13.212562
12.970567
13.765693
14.006495
14.671683
14.910698
15.641451
16.238689
17.017722
17.696619
18.211603
19.170642
19.711852
21.619797
22.312999
23.955703
25.504827
27.036667
29.575825
33.057928
36.279559
40.180683
44.164658
50.980449
73.456764
425.468683
1016.069651
1016.069651
1016.069651
1016.069651
1016.069651
1016.069651
1016.069651
1016.069651
1016.069651
1016.069651
1016.069651
1016.069651
1016.069651
1016.069651
900.913477
202.959776
78.355670
57.651997
54.514408
51.018596
48.837662
46.052933
45.230985
44.280887
44.057965
46.078563
47.983527
53.273439
##ZVALUE=375
5.190969
5.227923
5.386472
5.379915
5.269647
5.451441
5.470514
5.675554
5.555749
5.579591
5.593896
5.726814
5.784631
5.599856
5.919933
5.698800
5.751848
5.932450
5.994439
6.103516
6.196499
6.435513
6.429553
6.425977
6.539822
6.750822
7.054806
7.030964
7.201433
7.402897
7.328987
7.637739
7.971525
8.095503
8.227825
8.640885
9.055734
9.400845
9.668469
10.095835
10.281801
10.835528
10.970831
11.201501
11.523962
11.991858
12.519956
12.852550
13.237596
13.415813
14.227629
14.617443
15.270710
15.742779
16.602874
17.375946
17.810464
19.456744
20.116568
20.975471
22.586584
24.079680
25.962591
28.958917
30.520558
35.126805
38.648844
46.201944
55.569410
197.283626
742.089748
1016.069651
1016.069651
1016.069651
1016.069651
1016.069651
1016.069651
1016.069651
1016.069651
1016.069651
1016.069651
1016.069651
1016.069651
1016.069651
1016.069651
541.495681
152.820945
62.007904
56.276917
51.491857
49.069524
46.233535
45.099854
44.002533
43.911934
43.761730
##ZVALUE=380
4.398823
4.429817
4.464984
4.428625
4.614592
4.555583
4.582405
4.556775
4.620552
4.656911
4.667640
4.787445
4.760623
4.820824
4.941821
4.856586
4.896522
5.022883
4.801750
5.260706
5.118847
5.469918
5.374551
5.531907
5.489588
5.535483
5.744696
5.869865
6.168485
6.259680
6.435513
6.580949
6.614923
7.070899
7.395744
7.567406
8.023977
8.189678
8.920431
8.990765
9.310842
9.784698
9.923577
10.431409
10.658503
11.160970
11.515617
11.710525
12.197495
12.764931
13.368726
13.564825
14.202595
14.654994
15.216470
15.865564
16.372800
17.104745
17.989874
19.045472
19.573569
20.571947
21.453500
23.161769
24.887919
27.600527
30.348897
35.290718
40.275455
48.176646
54.681897
96.935630
381.677747
1016.069651
1016.069651
1016.069651
1016.069651
1016.069651
1016.069651
1016.069651
1016.069651
1016.069651
1016.069651
1016.069651
1016.069651
1016.069651
1016.069651
881.746411
291.288495
77.906847
57.550669
51.867962
49.508810
46.376586
45.065880
43.912530
##ZVALUE=385
3.729463
3.594756
3.637671
3.773570
3.713965
3.855824
3.912449
3.941655
4.069805
3.932714
3.978610
4.171729
3.993511
4.208684
4.234910
4.295707
4.233718
4.486442
4.367828
4.458427
4.584789
4.727840
4.725456
4.781485
5.176663
5.065799
5.064607
5.305409
5.523562
5.486608
5.715489
6.148815
6.154776
6.759763
6.893873
7.185936
7.677674
8.065701
8.329749
8.780956
9.215474
9.754896
10.145903
10.396838
10.669827
11.355877
11.533499
11.910796
12.356639
12.874603
13.129711
14.182925
14.122725
14.745593
15.208721
15.439987
15.989542
16.713738
17.233491
17.607808
18.537641
19.314885
20.151734
21.120906
22.235513
24.423599
26.629567
29.864907
32.931566
37.879944
41.837692
46.531558
50.321817
61.719418
174.266696
945.001841
1016.073823
1016.073823
1016.073823
1016.073823
1016.073823
1016.073823
1016.073823
1016.073823
1016.073823
1016.073823
1016.073823
1016.073823
1016.073823
1016.073823
693.564415
126.333833
61.645508
52.449703
49.158931
45.924783
##ZVALUE=390
3.472567
3.329515
3.335476
3.501773
3.554821
3.536940
3.742576
3.589988
3.783703
3.766418
3.762841
3.703833
3.868937
3.901720
3.973842
3.946424
3.867745
4.004836
4.204512
4.270673
4.246831
4.286766
4.356503
4.604459
4.753470
4.871488
4.758835
5.084872
4.987717
5.413890
5.661845
5.725622
6.206632
6.595850
6.776452
7.238984
7.821918
8.213520
8.739829
9.236932
9.786487
10.228753
10.807514
11.338592
12.026429
12.489557
12.883544
13.470650
13.930798
14.201999
14.853477
15.098453
15.397668
15.984774
16.493797
16.839504
17.214417
17.892718
18.165708
18.807650
19.134879
19.973516
20.437837
21.248460
22.060871
23.945570
25.621653
28.771758
31.407475
35.451651
37.924647
40.827990
42.327642
43.526888
45.825839
50.528646
87.868571
557.086468
1016.069651
1016.069651
1016.069651
1016.069651
1016.069651
1016.069651
1016.069651
1016.069651
1016.069651
1016.069651
1016.069651
1016.069651
1016.069651
1016.069651
1016.069651
309.282541
90.685487
53.489804
##ZVALUE=395
3.416538
3.378987
3.350973
3.517866
3.525615
3.655553
3.382564
3.758669
3.731847
3.678799
3.656745
3.783703
3.782511
3.931522
3.881454
3.952980
4.016757
4.193783
4.006624
4.174709
4.079938
4.209876
4.340410
4.288554
4.596710
4.521608
4.742742
4.783869
5.086660
5.277991
5.429983
6.007552
6.056428
6.517768
6.825924
7.468462
8.132458
8.660555
9.195805
9.971857
10.477901
11.173487
11.408925
12.441874
12.817979
13.679862
14.297962
14.782548
15.515685
15.976429
16.620755
17.002821
17.583966
17.977953
18.347502
18.928647
19.169450
19.436479
19.567609
20.493865
20.516515
20.826459
21.151900
21.651983
22.685528
24.344921
25.736690
28.333664
30.485988
33.316612
34.892559
37.250519
37.106872
37.487745
37.892461
39.464831
41.934848
45.821667
57.899952
301.005840
979.707837
1016.069651
1016.069651
1016.069651
1016.069651
1016.069651
1016.069651
1016.069651
1016.069651
1016.069651
1016.069651
1016.069651
1016.069651
1016.069651
1016.069651
557.052493
##ZVALUE=400
3.292561
3.352761
3.411770
3.255606
3.519654
3.439784
3.625751
3.521442
3.752708
3.602505
3.698468
3.810525
3.736615
3.776550
3.973842
3.819466
3.732443
3.714561
3.938675
3.925562
3.984571
4.137754
4.238486
4.307628
4.378557
4.284978
4.725456
4.786849
4.984736
5.117655
5.393624
5.814433
5.991459
6.747842
7.118583
7.511973
8.048415
8.779764
9.176731
10.252595
10.766983
11.445880
12.587905
13.199449
13.835430
14.615655
15.209913
16.244650
16.536713
17.650723
17.942786
18.488765
18.726587
19.545555
19.829869
20.008683
20.334721
20.614862
20.952821
21.195412
21.299720
21.915436
22.267699
22.420883
23.264885
24.313927
25.918484
28.268695
30.099750
32.155514
33.455491
34.815669
34.786463
34.150481
33.768415
33.368468
34.489632
36.759973
39.402843
44.635534
50.742626
146.216750
611.765981
1016.069651
1016.069651
1016.069651
1016.069651
1016.069651
1016.069651
1016.069651
1016.069651
1016.069651
1016.069651
1016.069651
1016.069651
1016.069651
##END
