##TITLE=D4-1
##FORMAT=SPECTACLE-ASCII V-1.2
##DATA TYPE=ULTRAVIOLET SPECTRUM
##SECOND TYPE=ULTRAVIOLET SPECTRUM
##DATE=01/24/18
##TIME=13:13:11
##SPECTROMETER/DATA SYSTEM=SPECTACLE
##XUNITS=NM EM
##YUNITS=ENERGY
##YFACTOR=1
##FIRSTX=220
##LASTX=410
##NPOINTS=96
##3DDATA=Equidistant
##ZUNITS=NM EX
##FIRSTZ=210
##LASTZ=400
##ZPOINTS=39
##XYDATA=(Y..Y)
##ZVALUE=210
15.256405
14.589429
13.108850
12.114644
11.381507
10.301471
10.449886
8.763671
8.722544
5.842447
4.094839
3.234744
2.987981
2.745986
2.713799
2.949834
2.650619
2.857447
2.460480
2.961755
2.902746
3.430843
3.089905
4.062653
3.651977
4.819632
5.127788
5.365610
6.199479
6.276965
7.541776
7.519722
8.069873
8.167624
8.336902
8.122921
7.347465
8.118749
7.815957
8.131862
7.545948
7.807612
7.054806
7.244945
7.524490
7.568598
7.116795
6.836653
7.096529
7.311702
6.740689
6.366968
7.257462
6.435513
6.972551
8.087754
7.232428
7.074475
7.065535
7.013679
7.556677
6.118417
6.544590
7.408857
6.590486
6.984472
7.030964
6.608963
8.494854
7.380843
8.710623
9.990931
10.139942
10.315776
11.067986
11.875629
11.181831
11.137724
11.886954
10.175705
9.423494
7.832646
7.459521
6.553531
6.443858
4.859567
6.212592
5.561709
4.862547
5.699992
8.871555
10.998845
15.124679
17.824769
21.309853
26.951432
##ZVALUE=215
39.921999
38.627982
34.253597
24.303794
21.358728
17.685890
18.059611
15.957952
17.314553
14.671683
13.242960
10.476708
7.249713
5.628467
3.925562
3.381968
2.927780
2.711415
3.201962
2.977848
3.587604
3.190637
3.557801
3.913641
4.104972
5.058646
6.298423
6.770492
8.419752
7.228851
8.616447
8.171797
9.239912
10.782480
8.661747
9.959936
10.560751
9.650588
9.366870
8.792877
8.735657
8.814931
9.019971
8.530617
8.839965
8.319616
8.182526
9.476542
9.865761
7.864833
8.822680
9.094477
8.674860
9.490848
8.739829
9.191632
8.304715
7.870793
8.946657
9.241700
8.848906
8.316636
8.280873
7.583499
7.284880
8.364916
7.955432
7.843971
8.038878
8.697510
8.945465
9.032488
10.720491
9.801984
9.758472
10.904670
10.357499
11.463761
10.229945
10.619760
9.480715
8.675456
8.424520
6.914735
6.074905
5.565882
5.740523
4.794598
4.921556
4.144907
4.532933
4.006624
4.036427
5.222559
7.394552
9.735823
##ZVALUE=220
78.796744
78.679919
78.365803
69.701672
59.535503
46.422482
38.954616
28.001666
24.694800
27.792454
25.893450
26.368499
22.569895
19.224882
15.999675
11.937618
7.705688
5.157590
4.015565
3.882647
3.111959
3.097653
3.220439
4.190803
3.871918
5.009770
5.074739
7.175803
7.858872
8.581877
8.651614
9.534955
10.797977
11.494756
10.887980
11.059642
10.903478
11.304617
10.980964
9.275675
9.909868
10.666847
8.928776
10.296702
10.810494
9.931922
9.946823
10.880828
9.814501
11.104941
11.958480
11.464953
10.729432
11.899471
12.290478
12.059808
12.014508
11.612773
11.738539
12.183785
11.155605
12.558699
11.431575
10.681748
10.567904
8.869767
10.315776
9.041429
9.807944
9.807944
9.351969
10.683537
11.253953
11.328459
12.145638
12.232661
11.630654
12.256503
10.636449
9.875894
9.621978
7.830858
8.167624
7.746816
7.252693
6.054640
5.463958
4.970431
5.419850
4.963875
5.103946
4.695654
5.139709
4.677773
4.420877
4.959702
##ZVALUE=225
96.136928
91.867447
113.734603
132.704973
134.908557
122.131705
109.290481
79.996586
64.634681
50.856471
39.944649
39.930940
42.345524
43.546557
38.530827
34.093857
26.056767
21.233559
15.688539
9.916425
6.145835
4.132986
5.073547
4.345775
5.449653
5.437732
5.461574
6.826520
7.514954
8.064508
8.005500
8.877516
8.521676
9.685755
9.280443
10.331869
10.681748
10.175705
10.175705
10.184646
10.529757
10.009408
10.525584
9.365678
10.568500
11.471510
10.326505
11.121631
10.996461
12.095571
13.578534
14.043450
13.596416
13.529658
14.020801
14.386773
13.831854
14.232993
14.590621
14.969707
14.708638
15.049577
12.904406
13.492703
13.517737
12.721419
13.143420
12.993813
12.010932
11.993647
11.628866
12.107491
13.038516
12.009740
12.017488
12.630820
12.050867
10.795593
10.968447
10.294914
10.826588
8.118749
7.908940
6.796718
6.461740
6.620884
6.615520
5.920529
5.546808
6.159544
4.793406
4.987717
5.069971
4.689693
5.691648
5.119443
##ZVALUE=230
59.268475
67.076683
96.411705
145.821571
178.657770
208.274722
225.771666
216.184855
187.641978
158.048868
112.441778
83.516836
62.359571
58.703423
62.266588
65.127611
61.335564
62.473416
51.410794
42.665601
31.901598
20.157695
13.622642
9.321570
6.762743
6.097555
6.101727
5.920529
6.590486
6.344914
6.996989
6.347895
7.562637
7.092953
7.049441
7.886887
8.456707
10.291934
9.107590
9.631515
9.553432
10.054708
10.533929
9.843707
10.802746
9.905696
11.600852
11.273623
10.762811
12.845993
13.173819
13.235807
14.148951
14.023781
14.285445
13.760924
16.298890
15.223622
14.931560
14.784932
13.878942
14.358759
13.768673
13.564825
13.835430
14.562607
13.226867
12.721419
13.454556
15.358925
12.722611
12.742877
13.750792
13.176799
14.901757
14.454722
15.057921
12.424588
12.033582
11.976957
11.134744
9.135604
9.218454
8.247495
8.854866
7.892847
6.914735
7.144809
8.018613
7.677674
6.233454
6.625652
6.691813
6.304979
6.272793
5.683899
##ZVALUE=235
16.241670
18.000603
36.548972
81.780553
128.808618
206.203461
264.233947
329.296589
352.922678
349.099636
305.416584
240.546465
184.319615
124.299526
98.813772
87.526441
81.417561
88.976622
93.135834
92.573762
85.444450
72.148442
54.499507
40.885806
24.894476
18.281937
12.204647
8.160472
7.858872
7.303953
7.388592
7.828474
7.350445
7.261634
8.372664
8.439422
9.448528
8.302927
9.042621
9.248853
8.477569
9.892583
10.176897
10.234714
9.695888
9.902716
11.004806
10.805726
11.454821
11.403561
11.639595
13.764501
12.615919
13.797879
12.982488
13.132691
12.804866
14.851689
11.538863
14.680624
12.512803
13.881922
14.537573
12.578964
13.548732
13.613701
13.262630
13.081431
14.582872
12.571812
13.690591
14.947653
14.782548
14.177561
13.589859
14.914870
14.287829
13.468862
13.679862
12.849569
12.120605
10.013580
10.753870
9.988546
9.965897
9.377599
9.167790
9.138584
8.075833
7.569790
6.695986
7.667542
7.020831
7.294416
6.924868
7.100701
##ZVALUE=240
1.712441
2.684593
5.909801
16.165972
44.082999
81.178546
161.298513
239.915848
355.748534
436.129570
486.834645
488.227606
449.338555
366.985798
292.163491
190.261006
138.607621
105.697513
100.227594
107.121468
120.958686
124.722719
119.538903
108.124614
88.458657
73.195696
50.548911
37.908554
23.206472
18.223524
14.189482
12.053847
11.586547
12.217760
11.381507
11.106730
9.654760
10.343790
10.297894
9.814501
10.043979
10.421872
10.799766
10.991693
11.687875
10.077953
11.028647
11.755824
10.575652
11.104941
10.909438
11.846423
12.171865
11.418462
11.324883
11.886954
11.881590
12.623668
11.729598
12.776852
12.326837
11.278987
12.368560
12.448430
11.855960
13.217926
13.026595
12.519956
13.769865
13.629794
13.048649
15.576482
14.903545
14.750957
15.618801
13.089776
14.872551
13.346672
12.590885
12.514591
12.230873
11.935830
11.743903
10.427833
10.282993
9.498596
9.487867
8.076429
9.061694
8.949637
8.141994
8.669496
6.961823
8.348823
6.939769
7.015467
##ZVALUE=245
1.770854
1.705885
2.064705
1.991987
3.452897
11.480451
28.028488
74.037910
135.509968
244.240761
344.524980
471.535921
537.301898
576.493740
550.002456
483.759642
367.489457
276.226997
178.112984
127.162933
102.518797
108.973980
123.236775
138.001442
141.881704
135.796666
128.797889
100.342631
84.503889
59.933662
44.670701
28.070807
20.882487
15.181899
13.875961
12.369752
11.731982
11.863708
12.304783
11.295676
11.211634
11.242628
11.854768
11.446476
10.445714
11.329651
11.979938
9.996891
11.169910
10.924935
11.704564
11.531711
10.459423
10.481477
10.621548
10.782480
12.040734
9.773970
10.861754
11.046529
10.587573
10.376573
11.420846
10.339618
11.168718
10.350943
10.506511
10.462999
11.355877
11.545420
11.339784
12.277961
11.680722
12.686849
12.814999
12.278557
11.850595
12.055635
11.339784
11.499524
10.770559
9.506941
10.048747
8.322597
8.645654
8.587837
8.131862
7.844567
7.744431
7.493496
7.370710
7.276535
6.244779
7.084608
7.536411
6.047487
##ZVALUE=250
1.474619
2.050996
2.036691
1.705885
1.771450
2.014637
2.418756
7.871985
21.352768
48.746467
121.318698
207.294822
348.435640
457.828641
575.111508
640.780926
632.276535
582.660437
503.172874
355.554819
248.284936
149.381757
112.145543
99.238753
111.941695
130.069852
143.887997
151.919723
146.689415
128.803849
116.402507
84.696412
65.885782
41.827559
28.697848
20.274520
15.218854
14.554858
12.225509
11.816621
12.442470
11.697412
10.814667
10.529757
10.264516
11.235476
10.054708
10.451674
10.767579
11.259913
11.705756
10.481477
10.825992
10.417700
10.138750
11.118650
9.918809
10.043979
10.456443
10.084510
9.561777
10.266900
9.780526
8.887649
9.311438
9.294748
9.935498
9.748936
8.869767
9.417534
9.441972
9.682775
9.799600
11.169910
10.369420
10.307431
10.165572
8.490682
8.750558
7.988811
7.512569
7.128716
7.248521
6.453991
7.262826
6.521940
5.531907
6.144643
6.381869
6.126761
5.749464
4.955530
4.941821
4.821420
5.096793
4.963875
##ZVALUE=255
1.307726
1.522899
1.497865
1.536608
1.497865
1.711845
1.378655
1.765490
2.336502
4.655719
12.627840
43.493509
90.283751
192.887783
295.687914
449.783802
565.249920
673.045516
716.146827
677.992702
594.139695
481.270552
312.268734
205.379725
119.859576
96.537471
97.551942
110.533834
136.692524
149.300694
157.823563
152.794719
141.383410
114.779472
92.724562
63.469410
45.133829
27.287602
18.922687
13.605952
11.669993
11.456609
10.426641
11.213422
10.823607
11.055470
11.016726
10.672808
10.979772
10.253787
10.911822
10.954738
10.556579
10.686517
9.872913
10.907650
10.995865
10.387897
9.884834
10.026693
8.675456
9.867549
9.473562
8.659959
8.866787
8.863807
8.317828
8.149743
8.591413
7.646680
8.534789
8.698702
8.294582
9.078979
8.667707
9.390712
8.460879
7.231832
7.374883
6.631613
6.329417
6.396770
5.465746
5.564690
5.126595
5.443692
4.562736
4.867911
4.875660
4.534721
4.264712
4.539490
4.645586
4.419684
4.221797
4.460812
##ZVALUE=260
1.370907
1.150966
1.390576
1.405478
1.205802
1.422763
1.352429
1.404881
1.566410
1.508594
1.616478
1.994967
6.380677
26.001930
60.167909
141.503811
236.719847
397.880673
530.540943
700.488687
772.194862
786.697865
697.484612
571.795702
389.848948
268.167853
159.452558
107.132792
80.176592
88.221431
105.130672
133.660436
151.858926
162.931681
157.129765
138.858557
120.732784
85.562468
63.473582
42.052865
29.171705
18.077493
14.764667
12.155771
11.190772
12.365580
11.338592
11.323690
12.039542
12.080669
11.980534
11.324883
12.051463
11.717677
11.606812
11.738539
11.162758
11.015534
10.578632
10.630488
10.596514
9.634495
9.420514
9.533763
9.338856
8.863807
8.591413
8.611679
8.293986
8.122921
8.363724
8.000731
7.860661
8.078814
8.128881
6.971955
7.451773
6.980896
6.716847
6.751418
5.549788
5.432963
5.036592
4.394650
4.604459
4.352927
4.317760
4.461408
4.665852
4.311800
4.220605
3.575683
4.093647
3.797412
4.095435
4.096627
##ZVALUE=265
1.181960
1.264811
1.362562
1.008511
1.219511
1.177788
1.363754
1.206994
1.262426
1.577735
1.396537
1.670718
1.751781
1.778603
3.884435
17.386675
42.206645
108.090639
193.142891
371.249914
518.714786
657.351017
811.476707
853.117704
785.239935
677.149892
504.868627
358.548760
203.211904
128.821731
78.704953
70.802569
83.714724
113.998652
136.245489
156.515837
164.310932
155.220628
142.946839
115.142465
91.682673
63.286424
45.287609
28.027892
20.230412
14.427900
13.243556
12.639761
12.825727
13.110638
12.953877
13.598800
13.344884
13.604760
12.976527
12.856722
12.444854
12.388825
12.744665
10.992885
11.074543
11.313558
10.623932
9.975433
9.969473
9.574890
9.290576
8.061528
8.328557
8.596778
8.442998
7.997751
8.489490
7.734895
7.666945
7.557869
7.447600
6.536841
6.321669
5.675554
5.678535
4.988909
4.689693
4.917979
4.833937
4.487634
4.226565
4.279613
4.022717
4.089475
3.780723
3.693700
3.566742
4.023910
3.708601
3.512502
##ZVALUE=270
1.228452
1.323819
1.179576
1.248717
1.047850
1.287460
1.131892
1.251698
1.368523
1.355410
1.612902
1.325607
1.641512
1.748800
1.623631
1.908541
2.360940
8.144975
22.590756
75.148940
151.401758
267.553926
471.787453
638.960004
818.125010
877.770782
873.352885
788.092017
612.293482
468.961596
322.301984
174.508691
103.250742
63.033700
63.401461
88.976622
112.316608
141.663551
154.950619
162.889957
158.029795
142.323971
121.087432
90.197921
69.969893
43.777823
31.474829
21.872520
18.087626
14.915466
15.121698
14.954805
15.030503
14.779568
14.674664
14.237761
14.638901
14.168620
13.527870
13.128519
13.178587
12.104511
11.830926
11.634827
10.620952
10.795593
10.611415
9.717941
9.137988
9.521842
9.149909
9.066463
8.488894
8.164644
8.068681
7.822514
7.294416
6.992817
7.155538
6.356835
6.138682
5.560517
5.666614
4.913807
4.835725
4.965663
4.669428
4.546642
4.452467
3.716946
3.950000
3.694892
3.732443
3.478527
3.639460
3.476739
##ZVALUE=275
1.012683
0.904799
1.028776
1.089573
1.158714
0.939965
1.112819
1.255870
1.121759
1.243949
1.151562
1.122952
1.226664
1.202822
1.513958
1.335740
1.431704
1.632571
1.632571
3.248453
12.650490
49.080849
106.542706
239.300728
389.775038
597.630739
738.784671
876.122713
915.821791
861.515999
759.577751
552.174449
391.680002
217.109919
128.625631
65.544844
52.368641
64.975619
84.702969
114.937425
138.432980
159.766674
163.647532
157.452822
143.483877
116.319656
92.861652
66.443682
50.249696
32.311678
25.060773
18.798709
16.595721
15.809536
14.903545
14.888644
14.996529
14.506578
14.548898
13.517737
13.741851
12.997985
12.368560
12.073517
11.988878
11.485815
10.537505
10.271668
10.122657
9.517670
9.797812
9.642839
9.240508
9.084940
8.732677
8.890629
7.830858
7.518530
6.733537
6.309748
6.352663
6.060600
5.847812
5.518794
5.171895
5.005598
4.754663
4.336834
4.664660
4.499555
4.208684
3.929734
4.028678
3.983974
3.710985
3.634691
##ZVALUE=280
0.791550
0.591874
0.790954
0.724792
0.792742
0.832677
0.854731
1.032948
0.935793
0.923872
1.011491
0.889897
1.106858
0.941753
0.927448
1.001954
1.068711
1.035929
1.255870
1.360774
1.536608
1.682639
8.553863
28.087497
87.617636
167.165995
325.550437
479.958653
693.024993
824.272037
854.623914
913.113952
834.638476
640.823841
478.559732
272.519588
165.088773
77.738762
49.232841
46.807528
59.422851
86.336732
110.217929
138.424635
152.916908
158.105493
154.989958
137.853622
116.441846
89.326501
69.643855
45.420527
33.916831
22.980571
18.867850
15.373826
14.995933
14.297962
14.074445
13.093948
13.711452
12.380481
12.013912
11.924505
11.258721
11.551976
10.730624
10.200739
10.139942
9.479523
9.578466
9.621978
8.863807
8.589625
8.489490
7.868409
7.653832
7.197857
6.961823
6.881952
6.600618
5.323887
5.889535
5.283952
5.211830
4.943609
4.521608
4.275441
4.760623
4.622936
4.178882
3.781915
4.171729
3.943443
3.790855
3.506541
##ZVALUE=285
0.901818
1.078844
0.910759
0.878572
1.133680
0.978708
0.875592
1.025796
0.872612
1.082420
0.913739
0.972748
0.911951
1.179576
1.254678
1.044869
1.062751
1.290441
1.193881
1.232624
1.388788
1.627803
1.634955
1.853704
4.475713
14.787912
51.894784
105.283856
234.465003
374.773741
534.821749
744.018555
867.076516
937.166810
893.826485
738.041997
584.051013
362.665653
230.454803
109.225512
60.838461
36.120415
37.338734
57.116747
78.345537
109.505653
128.731728
148.911476
152.740479
150.382519
138.248801
112.499595
93.277693
66.335797
47.742724
30.063987
22.199750
15.593767
13.715625
11.809468
11.297464
11.253953
10.654926
10.618567
10.471940
10.659695
10.179877
9.790659
9.807944
8.914471
9.270906
9.672642
8.713603
8.674860
8.417964
7.909536
7.826686
7.310510
7.104874
6.489754
6.428957
6.257892
5.902648
5.930662
5.519986
5.227923
4.983544
4.573464
4.538894
4.466772
4.810691
3.904700
4.139543
4.203916
4.161596
4.209876
##ZVALUE=290
0.866652
0.883937
0.839829
0.843406
0.911951
0.953674
0.934601
0.829697
0.749826
1.003742
0.994802
0.883937
0.810623
0.990629
0.964999
0.990629
0.953674
1.146793
1.178980
1.302958
1.139641
1.172423
1.341701
1.452565
1.762509
1.671910
2.285838
5.767941
26.871562
66.512823
134.127736
285.319686
443.661809
684.955716
833.274722
947.731733
946.877599
809.598565
668.133497
448.019505
296.162963
147.392750
80.069900
35.622716
26.193857
36.535859
49.533844
74.025989
96.174479
121.932626
139.123797
147.566795
146.129727
127.585530
110.127926
83.181858
63.935518
41.642785
30.150414
18.445849
14.117956
11.002421
9.704828
9.006858
8.934736
9.202957
8.683801
8.456707
9.075999
8.679628
8.321404
8.314848
8.083582
8.385777
8.080602
7.599592
7.180572
7.101893
6.692410
6.567836
6.060600
5.928874
5.901456
5.548596
5.520582
5.247593
4.930496
5.102754
4.740953
4.186630
4.447699
4.269481
4.153848
4.133582
4.198551
3.620982
##ZVALUE=295
0.807643
0.757575
0.847578
0.698566
0.742674
0.928640
0.710487
0.560880
0.792742
0.743866
0.968575
0.978708
0.783801
1.005530
0.966787
1.080632
1.074672
1.132488
0.959635
1.018643
1.108646
1.201630
1.357794
1.176000
1.109838
1.291633
1.283884
1.680851
1.653433
2.929568
13.981462
41.511655
94.648004
227.041841
371.337533
599.682927
757.110715
906.141996
941.511989
871.904492
754.119754
540.576577
373.741984
197.565556
107.111931
41.502714
23.904443
21.605492
29.632449
47.968626
65.477490
93.940496
111.090541
131.089687
138.085485
135.297775
124.961734
103.492737
81.965923
58.262944
41.371584
25.479794
17.578602
11.298656
8.679628
7.705688
7.574558
7.439852
7.163882
7.151961
7.342696
7.433891
7.501841
7.602572
7.052422
6.621480
6.873608
6.917715
6.033778
5.852580
5.917549
5.689859
5.515814
4.951954
5.173683
4.515648
4.846454
4.550815
4.666448
4.380941
4.293919
4.316568
4.124641
4.025698
3.871918
4.021525
##ZVALUE=300
0.737906
0.795722
0.622869
0.630617
0.704527
0.801682
0.707507
0.821948
0.826716
0.905991
0.865459
0.801682
0.669956
0.952482
1.075864
1.094937
0.891685
0.770688
0.883937
0.907779
0.864863
0.709891
0.990629
1.087785
1.082420
1.315475
1.241565
1.224875
1.474619
1.528859
1.711845
2.006888
4.491806
24.705529
62.418580
161.918998
279.341936
485.172868
649.204850
834.965706
913.363695
907.878876
814.232826
619.737506
452.052951
254.728794
150.323510
66.301823
33.294559
16.168952
17.353892
27.704835
39.644837
60.317516
81.305504
105.374455
120.980740
129.547715
128.777623
115.264654
101.360679
76.640844
59.234500
38.344860
26.078820
15.187860
10.899901
7.749796
6.874800
5.997419
6.041527
6.589890
6.407499
6.271601
6.352663
6.148815
6.232858
5.656481
5.583763
5.301833
5.345941
4.953742
5.001426
5.061626
5.007982
4.515648
4.432797
4.404783
4.153848
4.239678
4.056692
3.917813
3.833771
4.041791
3.967881
3.905892
##ZVALUE=305
0.727773
0.843406
0.757575
0.579953
0.802875
0.777841
0.738502
0.826716
0.721812
0.682473
0.847578
0.754595
0.938773
0.764728
0.775456
0.984669
0.859499
0.857711
0.927448
0.758767
0.884533
0.938773
1.048446
1.032948
0.984669
1.049638
1.044869
1.114607
1.183748
1.152754
1.273751
1.538992
1.613498
1.749992
2.986789
14.467835
40.998459
119.194984
216.102600
404.451489
561.254621
764.896870
873.880982
913.400650
851.414800
677.485466
526.790619
334.237814
207.275748
94.836950
46.471953
18.044710
12.666583
16.403794
23.758411
40.818453
55.815578
79.201460
97.462535
114.789605
121.667981
121.225715
110.692978
93.173981
74.517727
52.221417
36.765933
23.495555
15.180707
9.884834
7.625818
6.244779
5.861521
5.801916
5.562901
5.519986
5.203485
4.950762
4.862547
4.963875
5.164742
4.717708
4.589558
4.662871
4.169941
4.384518
4.310608
4.006624
4.019737
3.951788
3.846884
3.592968
3.387928
3.500581
3.447533
3.590584
##ZVALUE=310
0.740886
0.848770
0.658631
0.822544
0.676513
0.612736
0.656843
0.761747
0.786781
0.662804
0.713468
0.705719
0.878572
0.903606
0.706911
0.584722
0.850558
0.960827
0.810623
0.917912
0.926852
0.979900
1.008511
0.992417
0.954866
1.069903
0.929832
1.054406
1.084805
1.047850
1.176596
1.294613
1.276731
1.411438
1.421571
1.615882
1.867414
6.224513
20.769835
72.077513
142.614841
298.771858
449.915528
665.736794
807.593465
908.543468
892.985463
777.579546
637.608767
428.560972
284.359455
142.295957
75.707436
27.812719
13.235807
10.709763
13.837814
21.935701
31.712651
50.988793
67.067742
89.574456
103.457570
113.653541
115.269423
105.328560
93.374848
71.028471
54.504871
35.336614
24.710894
14.490485
9.794831
6.338954
5.582571
4.828572
4.443526
4.430413
4.488826
4.187822
4.117489
3.791451
3.808737
3.940463
3.674626
3.576875
3.594756
3.961921
3.576875
3.543496
3.635883
3.174543
3.291965
3.198981
2.894998
3.220439
##ZVALUE=315
0.620484
0.605583
0.667572
0.651479
0.634789
0.642538
0.570416
0.775456
0.764728
0.669956
0.746846
0.729561
0.634789
0.823736
0.780821
0.752807
0.801682
0.828505
0.745654
0.848770
0.659823
0.885725
1.123548
0.884533
0.852942
0.858903
0.940561
1.034737
0.970960
1.109838
1.033545
1.037717
1.141429
1.182556
1.409650
1.062751
1.485944
1.579523
1.515746
3.107786
10.652542
44.239759
100.111961
231.799483
371.822715
587.830544
731.922984
863.691568
899.879932
834.138989
720.841885
522.318482
364.933014
194.084644
105.804801
39.603710
17.304420
9.055734
9.324551
13.353825
18.694997
31.337738
43.978691
64.492822
80.331564
99.357963
106.795430
107.983947
101.879835
84.122419
67.256689
47.861934
34.277439
20.561814
13.685822
8.269548
5.955696
4.699826
3.790855
3.637671
3.507733
3.410578
3.529787
3.281832
3.531575
3.274679
3.002882
3.039837
3.148913
3.332496
2.911687
3.050566
2.755523
3.058910
2.799630
2.792478
##ZVALUE=320
0.804663
0.682473
0.711679
0.688434
0.746846
0.603795
0.740886
0.621676
0.689626
0.681877
0.586510
0.645518
0.632405
0.648499
0.606775
0.719428
0.558496
0.660419
0.733733
0.711679
0.802875
0.772476
0.778437
0.730753
0.890493
0.873804
0.815988
0.791550
0.801682
0.989437
0.915527
0.886917
1.049638
1.048446
1.118779
1.158714
1.187921
1.222491
1.413822
1.338720
1.549721
1.900792
5.077720
26.460886
66.162944
167.649984
281.337500
471.271873
626.989007
806.506872
879.290700
873.425007
790.636539
605.099797
445.639491
247.690678
141.544938
60.592890
27.568936
10.320544
7.437468
8.199811
11.060834
17.469525
25.915504
42.498708
56.860447
77.422857
89.811683
99.766850
100.603700
94.551444
83.553791
62.567592
48.616529
30.984879
20.994544
12.274981
7.809997
4.712939
3.782511
3.140569
2.993941
2.767444
2.607703
2.449751
2.349615
2.493858
2.567768
2.474785
2.476573
2.641678
2.661943
2.214909
2.580881
2.531409
##ZVALUE=325
0.687838
0.722408
0.672936
0.642538
0.597835
0.604987
0.736713
0.586510
0.606775
0.802875
0.703931
0.731945
0.641942
0.663996
0.709891
0.822544
0.664592
0.723600
0.603795
0.735521
0.820756
0.791550
0.778437
0.810623
0.944734
0.649691
0.756979
0.913739
0.826716
0.903606
0.578761
0.961423
0.779629
0.971556
0.922680
1.015663
0.911951
1.107454
1.066923
1.305938
1.139641
1.430511
1.375675
1.686811
2.972484
16.601682
43.214560
113.720894
206.713676
390.478969
541.844964
729.952455
821.467638
855.242610
797.405839
628.371835
479.511619
293.365717
179.304481
78.282952
37.914515
13.151765
7.694960
6.817579
7.593632
10.883808
15.551448
25.935769
37.714839
57.624578
70.998669
85.247755
92.995763
92.600584
86.999536
73.067546
60.015917
42.740703
29.902458
17.495751
11.075735
6.227493
4.251599
3.110766
2.797842
2.452731
2.402663
2.268553
2.218485
2.118945
2.115965
2.235770
2.123713
2.146959
2.001524
1.899600
##ZVALUE=330
0.629425
0.580549
0.544786
0.557899
0.568628
0.639558
0.626445
0.738502
0.579953
0.606775
0.734925
0.672936
0.521541
0.724792
0.648499
0.808835
0.524521
0.649691
0.604987
0.744462
0.709891
0.688434
0.717640
0.655651
0.867844
0.701547
0.721812
0.800490
0.942945
0.778437
0.975728
0.873804
0.894666
0.866652
1.116991
0.881553
0.927448
1.018643
0.989437
0.996590
1.091957
1.161695
1.217723
1.223683
1.219511
1.378655
1.780987
6.950498
22.876859
77.965856
149.445534
298.365951
439.518690
632.609725
754.480958
834.928751
809.810758
688.755512
557.232499
356.480479
230.275989
107.559562
55.321455
20.243526
9.137988
6.145835
5.987883
6.808639
9.219646
15.459657
23.308992
36.711693
49.595833
67.588687
78.448653
87.589622
88.161826
81.887841
71.418881
53.709745
41.717887
26.427507
17.958879
10.580420
7.143617
4.276633
3.094673
2.594590
2.318621
2.191663
2.271533
1.918674
2.006888
1.868606
2.032518
2.012849
##ZVALUE=335
0.539422
0.460744
0.654459
0.562668
0.655651
0.524521
0.807643
0.621676
0.691414
0.529885
0.507832
0.594854
0.587702
0.755787
0.657439
0.659823
0.717640
0.656843
0.809431
0.582933
0.712872
0.653863
0.614524
0.732541
0.638962
0.761747
0.571609
0.574589
0.704527
0.784993
0.662804
0.825524
0.834465
0.857711
0.988841
0.879765
0.875592
0.928640
0.855923
0.959635
1.107454
1.009703
1.055598
1.084805
1.194477
1.135468
1.329780
1.466870
1.725554
3.557801
11.568666
47.033429
100.240707
222.745538
356.431603
560.274720
694.780946
805.449486
821.004510
732.697845
617.657900
426.441431
289.429426
151.023865
81.908703
29.222965
12.431741
6.245971
5.409718
5.542636
6.345510
8.846521
13.294816
22.600889
32.986999
48.758984
61.398745
74.165463
79.140663
81.520677
75.673461
64.641833
53.161979
38.137436
28.038621
17.548800
11.894703
6.779432
4.674792
2.880692
2.613664
2.151728
1.999736
1.820922
1.870990
1.983643
##ZVALUE=340
0.515580
0.524521
0.618696
0.498891
0.361800
0.525713
0.594854
0.651479
0.523925
0.607967
0.547767
0.535846
0.634789
0.563860
0.530481
0.546575
0.573993
0.578761
0.577569
0.500679
0.665784
0.709891
0.610948
0.617504
0.737906
0.517964
0.740886
0.664592
0.788569
0.797510
0.835657
0.840425
0.830889
0.593662
0.735521
0.905991
0.944734
0.790954
0.738502
0.606775
0.859499
0.772476
0.809431
0.932813
0.952482
1.122952
1.066923
1.110435
1.197457
1.283884
1.283884
2.098680
5.701780
28.840899
70.347786
173.834562
291.000605
471.799970
609.136820
744.363666
788.186789
749.149919
652.526617
482.111573
339.468718
175.190568
97.719431
39.636493
16.806722
6.695986
5.651712
5.069971
5.320907
6.126761
7.998943
13.391972
20.147562
31.774640
43.151975
59.442520
68.592429
75.438619
75.479746
71.228743
62.966943
49.570799
39.318800
26.267767
18.387437
11.317730
7.016659
4.086494
3.011823
2.415776
2.044439
1.968741
##ZVALUE=345
0.475645
0.306964
0.464916
0.430942
0.654459
0.458956
0.585914
0.630617
0.554919
0.657439
0.561476
0.474453
0.555515
0.559688
0.524521
0.547767
0.701547
0.387430
0.588894
0.578761
0.565648
0.264645
0.576973
0.713468
0.629425
0.653863
0.582933
0.616908
0.620484
0.620484
0.604987
0.617504
0.672936
0.701547
0.693798
0.747442
0.612736
0.807643
0.567436
0.627637
0.716448
0.649691
0.860691
0.686646
0.994802
0.825524
1.018643
0.994802
1.183748
0.907779
1.133680
1.009703
1.160502
1.376867
3.135800
11.789799
50.411820
103.771687
222.577453
346.923470
535.624623
659.191012
760.135651
765.208602
673.613548
559.281707
380.716920
250.139832
116.459727
57.559609
19.312501
9.191632
5.817413
4.931688
4.746914
4.769564
5.387664
6.931424
12.106895
18.059611
29.602647
39.382577
51.909685
60.962439
68.520904
69.461465
66.495538
60.646534
47.064424
38.121939
26.339889
18.753409
11.271834
6.815791
3.957748
3.080964
##ZVALUE=350
0.637770
0.517964
0.503659
0.574589
0.552535
0.462532
0.483990
0.485778
0.616908
0.565648
0.601411
0.602603
0.531673
0.671744
0.533462
0.610948
0.529885
0.480413
0.687838
0.614524
0.783801
0.622869
0.769496
0.592470
0.564456
0.470877
0.518560
0.630617
0.687838
0.656843
0.574589
0.762939
0.588894
0.639558
0.748634
0.728965
0.723600
0.658631
0.556707
0.741482
0.871420
0.752807
0.718832
0.763535
0.853539
0.782609
0.772476
0.841618
0.772476
0.930429
0.950694
0.863671
1.097918
1.048446
1.050830
1.390576
1.699924
7.476807
24.114847
78.655481
148.756504
296.834707
428.608656
595.576763
697.903037
744.763017
710.716844
586.324930
447.999835
267.655849
164.769888
76.346993
35.263896
10.817647
6.149411
4.975796
4.613996
4.157424
4.063845
4.779696
6.424785
10.719895
16.383529
25.111437
33.555627
45.338869
53.572655
61.523914
63.967705
61.493516
55.907965
45.186877
35.943985
24.898648
17.659664
11.321902
##ZVALUE=355
0.263453
0.396967
0.326633
0.323653
0.308752
0.344515
0.397563
0.437498
0.338554
0.486970
0.341535
0.420809
0.188947
0.235438
0.435710
0.383854
0.410676
0.526905
0.260472
0.307560
0.377893
0.284910
0.338554
0.497699
0.435710
0.400543
0.425577
0.358820
0.461936
0.492930
0.509620
0.402927
0.381470
0.490546
0.532866
0.507832
0.575781
0.471473
0.517964
0.632405
0.508428
0.528693
0.600815
0.498891
0.757575
0.673532
0.569820
0.618696
0.727773
0.654459
0.619888
0.597835
0.711679
0.897646
0.850558
0.990629
0.937581
1.004934
1.274943
3.389716
12.403727
50.120950
104.015470
219.630599
343.818665
529.505610
641.053915
721.919537
722.668767
611.978769
494.665504
330.320001
209.090710
94.029903
45.195818
14.410615
6.606579
4.513860
4.177690
3.791451
3.514886
3.508925
4.077554
5.544424
8.237958
13.932586
20.081997
30.366778
38.334727
48.075914
53.831935
57.561994
56.150556
50.309896
43.306947
33.283830
##ZVALUE=360
0.585914
0.473857
0.472665
0.577569
0.538826
0.514984
0.565648
0.572801
0.542998
0.593662
0.466704
0.625849
0.463724
0.554919
0.444651
0.614524
0.656843
0.653863
0.603795
0.597835
0.641942
0.601411
0.524521
0.667572
0.668764
0.579953
0.605583
0.738502
0.641942
0.619888
0.548959
0.659823
0.773668
0.600815
0.813603
0.772476
0.711679
0.636578
0.599623
0.676513
0.632405
0.830889
0.813603
0.690818
0.781417
0.789762
0.882745
0.726581
0.828505
0.824928
1.062751
1.030564
0.917912
1.141429
0.995994
1.073480
0.975728
0.998974
1.120567
1.348853
1.367927
2.007484
5.711913
26.565790
63.838959
157.538652
268.812776
443.548560
570.532680
680.803657
709.233880
646.256804
544.890761
372.429490
246.557593
121.399760
64.004660
23.793578
10.110736
4.995465
4.265904
3.922582
3.659725
3.728867
3.411770
3.946424
4.611611
7.347465
10.727644
17.161965
23.790598
33.895969
41.035414
48.097968
51.871538
51.922798
##ZVALUE=365
0.523925
0.530481
0.538826
0.565648
0.595450
0.634789
0.575781
0.650883
0.637770
0.447631
0.412464
0.636578
0.677705
0.420809
0.573993
0.665784
0.515580
0.646710
0.619888
0.751615
0.639558
0.706911
0.578761
0.499487
0.607967
0.548959
0.618696
0.725985
0.635982
0.803471
0.729561
0.692606
0.763535
0.494719
0.582933
0.570416
0.704527
0.681877
0.654459
0.681877
0.901818
0.556707
0.624657
0.667572
0.723600
0.690818
0.720620
0.739694
0.673532
0.825524
0.708699
0.836849
0.896454
0.824928
0.938773
0.931621
0.856519
0.992417
1.005530
1.084805
1.088977
1.289845
1.254678
1.581907
2.642870
14.165640
39.986968
108.486414
199.938416
370.082855
495.809913
631.551743
687.690973
666.463971
583.841801
425.845981
301.927924
167.324543
91.640949
33.516884
13.681650
5.299449
4.291534
3.831983
3.648996
3.627539
3.179908
3.022552
3.027916
3.961921
5.349517
9.210706
13.368726
21.678805
28.382540
36.842823
##ZVALUE=370
0.599623
0.641942
0.605583
0.491738
0.456572
0.481606
0.512600
0.630617
0.522733
0.610948
0.625849
0.625849
0.547767
0.555515
0.658631
0.723600
0.609756
0.517964
0.575781
0.653863
0.698566
0.583529
0.821948
0.610948
0.469685
0.566840
0.694990
0.704527
0.640750
0.596642
0.576973
0.808835
0.708699
0.564456
0.750422
0.653863
0.633597
0.580549
0.678897
0.783801
0.697970
0.746846
0.689626
0.546575
0.614524
0.791550
0.747442
0.759959
0.712872
0.837445
0.949502
0.912547
0.731945
0.852942
0.756979
0.834465
0.793934
0.928640
0.809431
0.979900
0.967979
1.137853
1.045465
1.187921
1.268983
1.502633
1.733899
7.322431
24.327636
82.126856
154.631734
292.079449
424.442887
591.140389
670.516491
682.317615
621.277690
484.702587
355.723500
198.462605
111.503005
43.803453
20.594597
7.782578
4.689693
3.781915
3.493428
3.244877
3.181696
2.813935
2.650619
3.048778
3.632903
5.354881
7.720590
12.193918
##ZVALUE=375
0.600815
0.584722
0.617504
0.464916
0.566840
0.553727
0.571609
0.488758
0.551939
0.467896
0.490546
0.438690
0.460744
0.641942
0.615716
0.613928
0.459552
0.486970
0.484586
0.455976
0.610948
0.470877
0.424981
0.702739
0.644922
0.567436
0.668764
0.659823
0.635982
0.662804
0.592470
0.695586
0.671744
0.588894
0.470877
0.646710
0.646710
0.615716
0.687838
0.733733
0.731945
0.734925
0.694990
0.723600
0.565648
0.736713
0.745654
0.649691
0.688434
0.783801
0.655651
0.723600
0.729561
0.758767
0.906587
0.834465
0.899434
0.804663
0.944734
0.851750
0.910759
0.864863
0.950694
0.875592
0.855923
0.983477
1.061559
1.322627
1.527667
4.050732
13.182759
49.266815
107.661486
237.320662
364.511013
533.487797
629.616976
682.080984
658.254027
539.155006
419.029593
255.453587
158.986449
73.300600
36.568642
12.324452
5.611777
3.715754
3.502965
3.166795
3.174543
2.788901
2.584457
2.710819
2.544522
2.976656
##ZVALUE=380
0.579953
0.522733
0.390410
0.482798
0.456572
0.558496
0.490546
0.567436
0.465512
0.627637
0.674725
0.646710
0.533462
0.611544
0.671744
0.431538
0.563860
0.511408
0.475645
0.441670
0.564456
0.627637
0.539422
0.484586
0.761747
0.635982
0.663996
0.665784
0.831485
0.659823
0.627637
0.657439
0.723600
0.654459
0.681877
0.725985
0.781417
0.790954
0.700951
0.724792
0.764728
0.724792
0.747442
0.690818
0.792742
0.832677
0.785589
0.734925
0.738502
0.745654
0.688434
0.811815
0.689626
0.801682
0.757575
0.904799
0.853539
0.840425
0.835657
0.738502
0.802875
0.833869
0.968575
1.019835
1.101494
0.903606
0.966787
1.127720
1.187921
1.244545
1.382828
2.030730
6.889701
33.959746
79.628825
188.435912
301.047564
467.501879
582.994819
672.680736
668.481588
568.931699
466.966629
323.733687
218.371749
106.897950
55.187941
19.986629
8.525848
4.202724
3.196597
3.174543
3.061891
3.011823
2.705455
2.628565
##ZVALUE=385
0.477433
0.477433
0.435710
0.447631
0.537634
0.451803
0.640750
0.481606
0.431538
0.554919
0.420809
0.594854
0.674725
0.548959
0.503659
0.484586
0.438690
0.546575
0.470877
0.587702
0.594854
0.558496
0.469685
0.586510
0.582933
0.721812
0.589490
0.711679
0.673532
0.884533
0.718832
0.785589
0.857711
0.680685
0.888705
0.766516
0.718832
0.712872
0.830889
0.763535
0.747442
0.757575
0.752807
0.784993
0.797510
0.767708
0.608563
0.638962
0.619888
0.773668
0.710487
0.651479
0.775456
0.599623
0.785589
0.746846
0.815988
0.791550
0.716448
0.805855
0.777841
0.743866
0.778437
0.798702
0.877976
0.880957
0.847578
0.932813
0.912547
1.098514
1.176596
1.249909
1.320839
1.511574
3.404617
18.152595
48.509836
126.321912
222.303867
390.006900
518.443584
635.922551
667.226911
623.389482
539.266467
390.237570
278.139710
151.175857
85.565448
35.903454
14.591813
4.839897
3.615618
3.214478
3.015995
3.043413
##ZVALUE=390
0.325441
0.375509
0.428557
0.350475
0.326633
0.354648
0.559688
0.333786
0.495911
0.422597
0.554919
0.469685
0.461936
0.426769
0.441670
0.357628
0.414848
0.435710
0.339746
0.421405
0.471473
0.451803
0.405908
0.312924
0.512600
0.667572
0.719428
0.620484
0.622869
0.703931
0.591874
0.697970
0.600815
0.706911
0.792742
0.812411
0.685453
0.657439
0.813603
0.781417
0.707507
0.687838
0.785589
0.674725
0.676513
0.701547
0.564456
0.608563
0.601411
0.669956
0.649691
0.579953
0.731945
0.648499
0.558496
0.588894
0.553727
0.660419
0.656843
0.651479
0.703931
0.605583
0.709891
0.585914
0.666976
0.674725
0.836849
0.896454
0.909567
0.992417
1.057982
0.934601
1.065731
1.289845
1.114607
1.061559
1.779795
9.710789
30.857921
95.708966
181.806684
343.025923
465.392470
595.715642
662.256479
674.368739
612.983704
475.154519
358.484983
217.157006
126.251578
50.923824
23.812652
7.709861
3.916621
3.087521
##ZVALUE=395
0.544786
0.566840
0.588894
0.495911
0.595450
0.376701
0.435710
0.489950
0.472665
0.431538
0.443459
0.468493
0.586510
0.531673
0.586510
0.594854
0.539422
0.433922
0.421405
0.607967
0.492930
0.558496
0.554919
0.604987
0.515580
0.661612
0.622869
0.685453
0.680685
0.685453
0.642538
0.758767
0.765920
0.660419
0.855923
0.701547
0.838637
0.932813
0.884533
0.733733
0.743866
0.831485
0.819564
0.734925
0.769496
0.834465
0.679493
0.855923
0.878572
0.885725
0.708699
0.847578
0.774860
0.853539
0.713468
0.813603
0.815988
0.903606
0.715852
0.768900
0.734925
0.689626
0.714660
0.788569
0.769496
0.780821
0.862479
1.108646
0.888705
0.970960
1.069903
1.211762
1.031756
1.188517
1.125932
1.089573
1.166463
1.024604
1.368523
5.297661
18.287897
65.832734
131.010413
260.218978
381.765962
542.624593
635.112524
687.692761
661.077499
552.623868
428.380966
261.435509
165.653825
77.298880
37.525892
12.222528
##ZVALUE=400
0.733733
0.679493
0.551939
0.546575
0.565648
0.707507
0.392795
0.517964
0.580549
0.389814
0.474453
0.574589
0.429749
0.569820
0.462532
0.381470
0.593662
0.496507
0.431538
0.625849
0.501871
0.540614
0.446439
0.680685
0.588894
0.650883
0.702739
0.668764
0.628829
0.775456
0.634789
0.676513
0.722408
0.767708
0.916719
0.785589
0.629425
0.841618
0.775456
0.784993
0.677705
0.764728
0.897646
0.703931
0.775456
0.847578
0.605583
0.758767
0.789762
0.769496
0.838637
0.712872
0.769496
0.776649
0.785589
0.653863
0.697970
0.662804
0.734925
0.749826
0.833869
0.696778
0.802875
0.680685
0.856519
0.772476
0.679493
0.891685
0.931621
0.877976
0.896454
1.105666
0.976920
1.000762
0.872612
0.908971
1.090765
1.030564
1.129508
1.257658
1.234412
3.132820
10.322928
37.184954
81.378818
185.759664
300.302505
465.409756
577.941537
660.896897
665.771961
579.021573
470.650792
307.911634
200.848579
101.100802
##END
