##TITLE=D4-3
##FORMAT=SPECTACLE-ASCII V-1.2
##DATA TYPE=ULTRAVIOLET SPECTRUM
##SECOND TYPE=ULTRAVIOLET SPECTRUM
##DATE=01/24/18
##TIME=13:20:12
##SPECTROMETER/DATA SYSTEM=SPECTACLE
##XUNITS=NM EM
##YUNITS=ENERGY
##YFACTOR=1
##FIRSTX=220
##LASTX=410
##NPOINTS=96
##3DDATA=Equidistant
##ZUNITS=NM EX
##FIRSTZ=210
##LASTZ=400
##ZPOINTS=39
##XYDATA=(Y..Y)
##ZVALUE=210
16.106963
16.904473
13.221502
12.083650
12.132525
9.779930
10.040998
8.140802
7.813573
5.061626
3.864765
3.599524
3.234744
2.581477
3.017783
2.443790
2.334714
2.575517
2.815723
3.400445
2.736449
3.789663
4.071593
3.992915
4.017949
4.469752
5.060434
5.419850
6.848574
6.854534
6.498694
7.316470
7.219911
8.481741
7.988811
8.106828
9.280443
8.165836
7.960796
7.394552
7.481575
7.357597
7.852912
7.714629
8.516908
7.015467
7.504821
6.835461
8.201599
6.648898
7.297993
8.040667
7.155538
8.343458
7.159710
7.681847
7.598996
7.030964
7.313490
7.398725
6.563663
7.170439
6.506443
7.372499
6.785989
7.621646
6.921887
6.974936
7.372499
7.239580
9.960532
9.095669
11.387467
12.300611
12.097955
11.959672
12.565851
12.750626
10.377765
11.662841
9.790659
10.057688
7.397532
7.728934
5.983710
6.005764
6.131530
5.102754
5.544424
6.965995
8.190870
10.952950
15.054941
19.495487
26.094913
31.537414
##ZVALUE=215
38.687587
42.034984
33.212900
24.150610
23.275614
18.633604
17.649531
16.952753
15.899539
15.030503
12.685657
9.843707
8.252859
4.915595
3.977418
4.006624
3.170967
2.630949
3.204942
2.711415
3.146529
3.163815
4.323721
3.652573
4.622936
5.014539
5.912781
7.078648
7.447600
8.228421
8.292794
9.101629
9.768605
9.909868
9.942651
11.054873
11.205673
10.546446
9.833574
10.202527
10.019541
9.630919
9.219646
8.682609
8.787513
8.871555
8.943677
7.260442
9.447932
9.228587
9.397864
9.466410
9.618998
8.843541
9.578466
8.799434
10.124445
9.577870
8.793473
9.383559
9.263754
8.548498
8.970499
7.719994
7.858872
8.226633
7.782578
8.081794
9.104609
8.729696
9.552836
9.642839
10.326505
11.670589
11.827946
13.077855
11.969805
11.587739
10.318756
9.963512
9.350777
9.124875
7.918477
7.708669
6.873608
5.797744
5.079508
4.730821
5.229712
4.608631
5.167723
4.645586
5.189776
6.230474
6.692410
10.719895
##ZVALUE=220
80.262423
82.534552
77.687502
69.878697
64.829588
47.834516
39.296746
32.829642
29.010773
25.747418
26.396513
24.925470
21.318793
18.918514
13.523698
10.160804
7.963777
5.686879
4.079938
3.994703
4.001856
3.533959
4.306436
3.972650
4.937649
4.986525
6.924868
6.768703
8.066893
7.776618
9.265542
9.626746
10.703802
10.589957
9.872913
11.322498
11.225939
10.481477
9.828806
10.681748
11.224747
9.763837
11.325479
10.129809
10.734797
10.453463
10.334849
10.969639
11.303425
11.082888
11.351705
11.486411
11.889935
12.128949
12.912750
13.151765
11.320710
11.085868
13.325810
12.063980
11.730790
12.065768
12.548566
11.030436
10.345578
9.434819
11.338592
9.629726
10.075569
10.117888
10.609627
11.291504
12.504458
13.489723
12.294650
13.328791
13.270974
13.059974
12.913942
13.130903
11.243820
10.008812
9.088516
7.916689
7.752776
6.914735
6.491542
6.179810
5.428791
5.249977
4.922748
4.815459
5.291700
4.090667
4.905462
5.180836
##ZVALUE=225
98.311901
101.307631
117.517710
135.767460
140.549541
127.526522
113.503933
88.680983
69.527626
52.063465
42.078495
39.253831
41.273832
42.616725
38.384795
36.508441
27.758479
20.383596
16.331673
10.217428
6.959438
5.428791
3.743768
4.387498
4.569888
5.034804
5.924702
6.861687
7.162690
7.070899
8.460879
9.213686
8.919835
9.258986
9.890795
10.855794
10.735989
10.185838
10.663867
11.596680
10.989904
10.344982
11.465549
10.013580
10.544658
11.781454
10.925531
13.011694
11.607409
12.205839
14.258623
14.226437
13.574958
13.069510
15.223622
14.597774
14.596581
16.201735
15.415549
16.438961
14.676452
14.795661
14.577508
13.338923
12.977719
12.561679
13.155937
12.065768
12.042522
12.744665
11.927485
12.413859
12.086630
13.409853
13.004541
13.241768
12.843609
12.910962
12.068748
10.648966
10.306835
9.662509
9.824634
7.942915
7.869601
7.671714
6.528497
6.125569
6.287694
5.558729
6.325841
4.784465
6.117821
5.053878
5.689859
5.250573
##ZVALUE=230
61.422586
64.467788
100.240707
148.979425
190.070868
224.336982
237.325430
228.429437
200.505853
169.370770
117.875934
85.661411
63.525438
61.044693
60.455799
62.801838
64.462423
64.234734
53.118467
42.195916
33.410788
20.363927
14.264584
8.587837
6.356835
5.383492
5.372763
5.589724
6.385446
6.191730
6.063581
6.529689
6.073713
6.655455
7.437468
8.584857
8.454919
8.155704
9.613633
9.729862
9.920597
9.826422
10.996461
10.930896
10.147691
12.579560
11.140704
10.824800
11.646748
12.251735
14.014840
14.758706
13.106465
14.503598
14.341474
15.704632
15.155673
14.991760
14.479756
15.666485
14.789701
15.722513
15.234947
14.517903
12.845993
14.626980
13.765693
14.562607
14.637709
14.773607
14.796853
14.326572
15.081763
13.855696
14.904737
15.056729
15.425682
14.433861
11.902452
11.860728
11.107922
10.525584
11.110902
9.557605
8.402467
7.168651
7.761717
7.668734
7.368922
7.172823
6.020665
6.031990
6.402731
6.016493
5.727410
6.946921
##ZVALUE=235
15.421510
17.878413
35.037994
84.167719
134.444833
201.543570
267.180800
340.050459
368.611813
363.518596
322.876573
264.721513
184.658766
134.042501
97.018480
84.181428
79.549551
84.824562
97.904801
91.630816
86.977482
73.876977
53.987503
38.248897
24.677515
14.800429
12.577772
7.171631
7.253885
6.863475
6.373525
6.658435
7.986426
6.123781
7.826686
8.122921
8.372664
8.548498
8.608699
9.133816
9.342432
10.356903
9.146929
11.784434
10.911822
11.940598
11.364818
11.826754
12.207627
11.049509
12.752414
12.684464
13.575554
12.890697
14.387965
14.620423
13.149977
13.667941
14.580488
14.994740
14.892817
14.141798
14.087558
13.640523
14.496446
14.170408
13.299584
12.984872
14.853477
14.618635
14.816523
15.145540
14.997721
15.466809
16.505718
15.214682
14.579892
15.338659
14.651418
13.602972
13.162494
11.560917
11.986494
11.123419
9.894967
9.382963
9.606481
8.532405
8.872747
8.989573
8.319616
7.422566
6.854534
8.025765
6.827712
8.203983
##ZVALUE=240
2.505779
1.955628
5.656481
15.623569
42.988658
78.374743
163.900852
246.367455
368.413925
450.319648
511.126518
513.859987
476.022959
382.497907
306.914449
200.781822
149.453878
108.845830
104.638934
109.069943
116.608739
122.214556
122.924447
107.242465
87.094903
67.557693
50.218701
34.496784
20.564795
14.801621
9.856820
7.770658
8.270741
7.850528
8.612871
7.975698
8.286834
9.257793
9.486675
10.726452
10.824800
10.994673
9.353757
10.311604
11.409521
11.036992
10.960698
10.430813
11.231899
12.272596
11.478662
12.150407
12.672544
12.159944
11.673570
12.955666
13.226867
13.258457
13.373494
13.865829
13.803840
11.762977
12.298822
12.225509
12.908578
12.404919
13.318658
13.147593
13.234615
15.194416
15.992522
15.358925
15.348792
15.688539
16.284585
16.590953
15.914440
14.077425
13.291836
13.452768
13.164878
13.115406
11.320710
11.620522
11.481643
10.148883
9.691715
9.354949
10.205507
8.319616
9.193420
8.598566
8.666515
8.222461
8.094907
8.071661
##ZVALUE=245
1.777411
1.997948
1.721978
1.548529
3.903508
9.995699
34.609437
65.085888
151.326656
242.931843
381.737947
482.317805
561.774969
599.101782
582.695603
495.038629
403.237939
276.889801
198.453665
129.911900
110.401511
104.434490
119.364858
133.899450
136.843920
133.145452
118.853450
100.739598
76.529980
56.922436
39.386749
23.557544
16.805530
12.007952
9.740591
8.637905
8.298755
8.942485
9.427667
9.255409
9.721518
9.093881
8.911490
10.781884
10.302663
9.975433
11.217594
10.998845
10.415912
12.155771
11.564493
10.362864
11.555552
11.474490
12.111664
11.518598
11.189580
11.434555
11.106730
11.016726
13.033748
11.925697
10.581613
11.732578
10.617971
11.029840
11.216998
11.130571
12.069941
11.911988
12.657642
13.013482
12.051463
13.381839
14.321804
13.315678
13.449788
12.732744
11.876822
12.839437
11.082888
10.519624
9.085536
9.164810
8.420944
8.527637
7.716417
7.489920
8.969903
8.208752
7.471442
7.832646
7.935762
6.730556
7.098913
6.838441
##ZVALUE=250
1.575947
1.429915
1.454949
1.545548
1.524687
1.817942
2.390742
6.361604
23.814440
53.008795
132.817626
223.064423
339.438915
487.040877
591.792464
668.240786
679.461956
611.312985
521.317720
373.055935
257.321000
173.784494
111.341476
96.630454
107.982755
125.138760
140.834451
147.515535
140.211582
130.431652
110.921860
83.034635
60.083866
40.061474
25.761724
16.234517
11.541843
10.368824
9.988546
10.258555
10.902882
9.649992
10.335445
11.238456
11.215806
10.709763
10.225773
10.353923
11.101961
11.232495
10.977983
11.646748
10.784864
10.923743
10.830760
11.153817
11.271834
10.834932
11.073947
11.013746
11.452436
10.636449
10.745525
10.194778
9.898543
10.347962
9.792447
9.422898
10.071993
10.110736
10.506511
10.782480
10.859966
10.770559
11.093616
10.354519
10.251999
10.820627
10.024905
9.856820
8.921623
8.076429
8.239746
6.961823
7.488728
6.492734
6.457567
5.894899
6.469488
6.109476
6.109476
5.548596
5.391836
5.696416
5.782843
5.946755
##ZVALUE=255
1.608729
1.337528
1.553893
1.436472
1.649857
1.427531
1.558661
1.742840
1.666546
3.833771
17.093420
41.456819
86.981654
195.746422
302.925706
470.871925
586.006641
718.092918
758.759975
721.777678
627.359748
511.669517
327.287912
215.831995
123.061538
97.308755
91.597438
106.810927
130.622983
143.988729
150.329471
147.168636
138.674974
109.938979
89.281797
59.491992
43.455958
25.891662
18.363595
12.004972
10.089874
10.709763
10.936856
11.359453
11.537671
11.029840
11.331439
10.693669
11.471510
12.151599
10.755658
12.426972
11.384487
11.356473
11.007786
10.471940
10.901690
10.539889
10.649562
11.068583
9.451509
9.818673
10.397434
9.733438
9.802580
10.080934
9.088516
9.386539
9.056926
9.193420
8.762479
9.292960
9.806752
9.247661
8.480549
8.557439
8.779764
8.285642
7.866621
7.796884
6.992817
6.321669
5.598664
5.987883
5.869865
5.557537
5.035996
4.772544
4.656911
4.844666
4.692674
4.665852
5.141497
4.403591
4.350543
4.364848
##ZVALUE=260
1.398921
1.279712
1.308918
1.308918
1.225471
1.490712
1.291633
1.531839
1.648664
1.507998
1.730919
2.347827
7.102489
29.317737
66.077709
160.876513
259.753466
428.148508
564.643741
734.913945
826.678872
840.684772
748.903751
624.995828
422.852635
299.024582
170.401931
110.684633
81.293583
84.943771
102.835894
133.132935
149.711967
162.393451
155.242682
140.310526
122.390985
89.465976
67.049861
42.110682
28.812885
19.031763
13.765693
12.030602
11.664629
11.797547
11.454821
12.002587
12.207627
11.919737
11.783838
12.656450
12.235641
12.707710
12.204647
11.777878
12.221932
11.234879
10.782480
11.262894
10.934472
10.441542
10.635853
9.858608
10.262728
8.994937
9.165406
8.803606
8.579493
8.849502
8.751750
8.812547
8.636713
8.602738
8.370876
8.866787
7.877946
7.304549
7.192492
6.504655
6.172657
5.911589
5.512834
5.462766
5.175471
5.316734
4.946589
4.088879
4.671812
4.624724
4.280806
4.399419
4.161596
4.075766
3.767610
3.947616
##ZVALUE=265
1.211762
1.179576
1.301765
1.214743
1.168847
1.371503
1.491904
1.423955
1.416802
1.586676
1.719594
1.651645
1.734495
1.982450
3.623962
18.448830
47.561526
122.094750
218.233466
406.332612
564.433932
721.511841
866.384506
896.942019
825.644732
717.865825
538.635850
392.215848
224.963427
139.595866
91.276765
71.503520
83.629489
113.695860
135.840774
158.894658
164.994597
154.026747
144.571662
116.321445
91.266632
63.803792
45.653582
29.645562
20.793676
14.918447
14.354587
13.012886
13.393760
13.905764
13.411641
14.261603
13.820529
13.988614
13.681650
13.225675
13.413429
12.562871
13.005733
12.311935
11.949539
11.855960
11.651516
10.958910
10.752678
10.446906
9.389520
9.183884
9.004474
9.085536
9.188652
8.687973
8.427501
8.251667
8.019805
7.763505
7.806420
7.206798
7.323623
6.636977
5.273819
5.667806
5.477667
4.831553
4.720688
4.533529
4.549623
4.360676
4.417896
4.226565
4.303455
3.842711
3.663898
3.407598
3.655553
3.526807
##ZVALUE=270
1.261830
1.230836
1.305938
1.285672
1.097918
1.281500
1.027584
1.262426
1.193881
1.351833
1.263618
1.595616
1.573563
1.455545
1.542568
1.759529
2.228618
8.543730
25.024414
82.976818
162.806511
278.704762
498.829484
678.296685
861.963630
941.226482
935.510993
839.794874
661.018491
508.306623
312.969685
196.418762
116.659999
67.622662
65.589547
88.762641
110.273957
140.435696
155.749917
165.262818
161.735415
141.024590
123.885870
89.776516
69.226623
44.743419
32.616854
22.742748
18.948913
15.767813
16.361475
15.687943
15.113950
15.231967
14.685988
14.867783
14.643669
14.428496
14.334917
14.859438
13.660789
12.778640
12.637973
11.522770
11.916757
10.861754
10.350943
10.160804
10.109544
9.924769
9.680986
9.554625
8.694530
9.137988
8.995533
8.627772
8.045435
7.344484
6.999969
6.509423
6.339550
5.974770
5.590916
5.172491
5.043745
4.712939
4.385710
4.653931
4.197955
4.438758
4.497766
3.653765
3.818870
3.805757
3.759861
3.653765
##ZVALUE=275
1.003742
0.928640
1.165867
1.018643
1.104474
1.119971
0.933409
1.185536
1.263618
1.184940
1.259446
1.140833
1.432896
1.511574
1.499653
1.340508
1.526475
1.576543
1.714826
3.552437
12.144446
37.417412
115.281940
222.720504
425.486565
591.491461
791.168809
898.879766
959.143639
916.391611
815.346837
618.578792
445.593596
243.318677
144.774914
72.423816
55.428743
64.098835
84.191561
114.871860
134.888887
156.806707
162.204504
159.036517
144.713521
116.990805
95.101595
69.293976
51.542521
34.352541
25.464892
19.734502
16.910434
16.153455
16.697645
15.882850
15.495420
15.457869
14.979839
14.851689
14.084578
14.087558
13.229847
13.064742
11.600852
11.424422
11.142492
11.400580
11.019707
10.128617
10.259748
10.032654
9.314418
9.132624
9.290576
8.563995
8.728504
7.445812
7.389784
7.496476
6.144643
6.511807
5.917549
5.074739
5.075932
5.177855
5.054474
4.796982
4.449487
4.571676
4.086494
4.025698
3.509521
4.008412
3.907681
3.613830
##ZVALUE=280
1.046658
0.938773
1.031756
1.012683
0.805855
0.894666
0.981688
1.003742
1.088977
1.038909
1.066923
1.179576
1.201630
1.156926
1.264811
1.050830
1.562834
1.120567
1.408458
1.622438
1.647472
2.011657
7.994771
26.553869
88.361502
166.906714
322.444439
480.121970
706.340671
849.862695
949.100852
966.101885
886.735916
691.477656
520.471931
301.949978
187.223554
89.168549
55.211782
46.282411
59.299469
86.840987
109.988451
137.958527
154.280663
159.668922
156.435966
137.926936
119.815469
89.503527
71.613789
46.671629
35.030842
24.568439
19.292831
16.026497
14.832616
14.522672
14.324784
14.155507
13.727546
13.454556
12.977719
12.732744
12.729764
11.704564
11.314750
10.821819
10.969639
10.059476
10.072589
9.504557
9.631515
9.585619
9.338856
9.158850
8.826852
8.825660
7.675886
7.036924
7.095933
6.364584
6.055832
5.685687
5.601645
5.263686
5.250573
4.892945
4.884601
4.346967
4.347563
4.343987
4.223585
3.686547
4.104972
4.019737
##ZVALUE=285
0.823736
0.880957
0.716448
0.828505
0.983477
0.823736
0.986457
1.048446
0.878572
0.833869
1.006722
1.123548
1.022816
0.946522
0.982881
1.076460
1.176596
1.218915
1.082420
1.145601
1.351833
1.399517
1.813769
1.976490
4.300475
14.080405
48.981905
103.392601
231.686831
370.666981
585.056543
755.831599
897.845030
973.969698
927.799940
769.311786
613.024831
388.041735
249.014497
121.771693
66.835880
37.360787
38.210750
57.140589
76.585412
107.079744
127.598643
145.998001
153.664947
150.816441
138.165951
116.590858
95.182657
67.053437
48.797727
31.247735
23.112893
16.292930
14.245510
13.089776
12.191534
11.753440
11.707544
11.188984
11.201501
11.031628
10.153651
10.126829
9.789467
9.827614
10.005832
9.762645
9.660721
8.870959
9.067655
8.370876
8.263588
7.583499
7.301569
7.268786
6.643534
6.375909
5.922914
5.789995
5.448461
5.432963
5.544424
5.151629
4.869699
4.728436
4.441738
4.079938
4.164577
3.805757
4.159808
3.895760
##ZVALUE=290
0.942945
0.890493
0.738502
0.877976
0.928640
0.653863
0.838637
0.852942
0.992417
1.035929
0.896454
0.939965
1.004934
0.873804
0.968575
0.959635
1.181960
1.002550
1.214743
1.141429
1.174808
1.222491
1.287460
1.428723
1.469851
1.635551
2.155900
5.377531
26.402473
63.219666
131.091475
282.749534
446.900725
692.048669
843.842030
958.926678
963.039994
842.337012
700.794458
482.288599
321.337581
164.157748
88.957548
38.127899
27.533770
36.199689
49.711466
72.767735
92.388988
121.913552
137.314796
149.372816
147.565603
129.273534
112.963915
86.900592
65.289736
43.058991
30.399561
19.610524
14.470816
11.084676
10.044575
9.594560
9.571910
9.158850
9.064674
9.069443
8.901954
8.861423
8.576512
8.388758
8.601546
8.459687
8.442998
7.824898
7.131696
7.043481
7.218719
6.398559
6.159544
5.875826
5.865693
5.406737
5.480647
5.477667
5.294681
4.890561
4.792809
4.443526
4.341602
4.262924
4.313588
4.084706
3.800988
3.798604
##ZVALUE=295
0.871420
0.843406
0.767708
0.736713
0.799894
0.961423
0.889897
0.993609
0.689626
0.783801
0.917912
0.834465
0.914931
1.021624
0.868440
0.872612
1.005530
1.065731
0.936985
1.239777
1.176596
1.104474
1.320839
1.205802
1.388788
1.491904
1.671910
1.648664
1.750588
2.622604
12.658834
37.655830
88.278651
220.904946
364.375710
599.346757
762.228966
917.178988
959.426761
894.088745
784.190893
566.397905
397.904515
213.400722
120.481849
48.971772
25.973916
21.488667
28.708577
47.450662
64.287782
90.341568
110.382438
130.574703
138.214827
135.031939
123.600960
103.081465
84.785819
59.281588
42.868853
25.749803
18.024445
11.993647
9.359717
7.746816
7.227659
7.405877
7.332563
7.616878
7.423759
7.345676
7.487535
7.329583
7.414818
6.962419
6.974936
6.318688
6.337762
5.721450
5.877614
5.769730
5.550981
5.618930
4.947782
5.133748
4.997849
5.000830
4.735589
4.902482
4.593730
4.466772
4.162788
4.083514
3.987551
3.764629
##ZVALUE=300
0.768900
0.671744
0.866652
0.645518
0.870824
0.929832
0.735521
0.888705
0.804663
0.761747
0.951886
0.758767
0.926852
1.021624
0.848770
0.932813
0.835657
0.814795
1.058578
0.859499
0.951886
1.138449
0.972748
1.161695
1.029968
1.151562
1.145601
1.223683
1.477599
1.621842
1.795888
1.870990
5.527735
19.960999
69.584846
139.911771
296.916962
457.604527
684.875846
832.545757
943.875909
939.408541
832.784772
686.579943
458.862782
304.163694
155.008435
85.358620
34.809709
18.370748
18.102527
24.929643
40.244460
57.097673
82.218647
101.880431
121.114850
129.133463
126.646757
119.046569
99.213719
81.720948
58.225989
42.224526
25.830865
17.308593
10.660887
7.767677
6.511807
6.609559
6.406903
6.468892
6.217957
6.128550
6.174445
6.392598
6.365776
5.734563
5.808473
5.337000
5.398989
5.496740
5.245805
5.141497
4.825592
4.768968
4.643798
4.556775
4.380941
4.405975
4.000664
3.909469
4.050732
3.846884
3.726482
3.788471
##ZVALUE=305
0.663996
0.839829
0.627637
0.527501
0.817776
0.721812
0.649691
0.755787
0.657439
0.704527
0.868440
0.923872
0.855923
0.806451
0.870824
0.657439
0.971556
0.749826
0.918508
0.943542
0.815988
0.889897
0.941753
1.071692
1.186728
1.085997
1.077652
1.119971
1.228452
1.521707
1.393557
1.488924
1.387596
1.672506
2.774000
13.177991
37.383437
110.565424
205.393434
390.830636
554.242730
762.344599
878.444910
930.805802
878.355503
708.143711
557.511449
358.539820
226.873755
105.337501
53.495765
20.255446
13.083816
16.203523
23.985505
39.548874
55.427551
77.809691
95.846653
115.354657
122.462511
121.240616
112.560987
93.419552
77.458620
55.125952
38.863420
23.706555
15.419722
9.788871
7.458925
6.277561
5.896688
5.735755
5.617738
5.625486
5.385876
5.193949
5.262494
4.671812
4.936457
4.878640
4.542470
4.623532
4.429817
4.491806
4.189610
4.205704
3.869534
3.829598
3.738999
3.792644
3.606677
3.604889
3.489852
3.469586
##ZVALUE=310
0.730753
0.697970
0.700951
0.637770
0.825524
0.687838
0.718832
0.785589
0.888705
0.834465
0.747442
0.849962
0.740886
0.877976
0.696778
0.939965
0.772476
0.724792
0.750422
0.768900
0.786781
1.005530
0.875592
0.942945
1.000762
0.891685
0.967979
1.137853
1.057982
1.118779
1.262426
1.234412
1.256466
1.418591
1.573563
1.594424
1.884699
5.732775
18.897653
65.930486
134.376884
286.852717
442.668796
664.832592
814.685822
931.763649
930.824876
821.471810
683.016777
461.733937
309.348702
159.279704
85.719824
32.180548
15.196800
10.941625
13.219714
21.776557
31.208992
49.619675
66.860914
89.676976
101.883411
115.013719
114.266872
105.877519
93.866587
72.912574
55.725574
35.732985
24.930835
15.289783
10.378957
6.804466
5.525947
5.117655
4.641414
4.469752
4.310608
4.104972
3.775954
4.103780
3.849864
3.954768
3.803968
3.844500
3.778934
3.722906
3.499985
3.329515
3.332496
3.471971
3.352761
2.976656
3.037453
2.899766
##ZVALUE=315
0.591874
0.537634
0.471473
0.590682
0.519753
0.635982
0.460744
0.755787
0.671744
0.607967
0.595450
0.674725
0.448823
0.628829
0.721812
0.532866
0.581741
0.651479
0.696778
0.761747
0.560880
0.751615
0.693798
0.742674
0.760555
0.801682
0.783801
0.776649
0.801682
0.882745
0.977516
0.966787
1.098514
1.171827
1.073480
1.161695
1.339912
1.470447
1.482964
2.758503
9.879470
41.169524
92.939734
216.748714
359.315872
592.182875
740.657449
881.739855
924.835801
870.779753
753.714442
548.912883
391.875505
211.523771
116.391778
44.637918
19.311905
9.303689
9.159446
12.928843
18.831491
31.422973
43.900609
63.494444
79.761744
97.623467
106.652975
106.300712
101.992488
84.913969
69.883466
50.314665
36.629438
21.229982
14.326572
8.024573
5.909801
4.209876
3.965497
3.562570
3.285408
3.084540
3.188848
3.173947
2.903938
2.909899
3.046989
2.838969
2.739429
2.822876
2.849698
2.867579
2.750754
2.681613
2.673864
2.612472
##ZVALUE=320
0.835657
0.755787
0.908971
0.833869
0.781417
0.910759
0.813603
0.879765
0.747442
0.804663
0.728965
0.767708
0.751615
0.725985
0.867844
0.859499
0.784993
0.869632
0.812411
1.002550
0.850558
1.023412
0.836849
0.780821
1.026988
1.030564
0.934601
0.907779
1.103878
1.075864
1.079440
0.997782
1.078844
1.218915
1.261830
1.263618
1.323819
1.164675
1.323819
1.551509
1.664758
2.214909
4.447699
22.685528
59.494972
157.475471
266.549587
457.716584
617.503524
806.908607
896.373987
895.242691
812.795758
628.643036
467.372537
265.869498
155.468583
69.390535
32.410622
11.586547
8.220673
8.998513
11.113882
17.134547
25.574565
41.895509
56.143999
75.539947
89.289546
99.283457
101.057887
94.958544
83.945990
64.593554
49.385428
31.967759
22.058487
13.249516
8.411407
4.774928
3.744960
3.059506
2.997518
2.936721
2.859831
2.734661
2.672672
2.692938
2.763867
2.506971
2.492666
2.483726
2.467632
2.644658
2.450943
2.615452
##ZVALUE=325
0.884533
0.796914
0.898838
0.889897
1.074672
0.853539
1.030564
0.867844
1.055598
0.917912
1.072884
0.856519
1.026988
0.826716
0.873804
0.929832
0.893474
0.995994
1.029968
1.055598
0.949502
0.976920
0.968575
1.035929
1.035929
1.157522
1.087785
1.087785
1.122952
1.168847
1.172423
0.995994
1.378655
1.276731
1.343489
1.350641
1.602769
1.390576
1.270771
1.470447
1.287460
1.673698
1.707673
1.909733
2.885461
14.691949
39.095879
106.086731
195.897818
381.188989
540.775657
746.801496
860.565901
915.293694
856.601000
690.878630
529.039502
331.136584
203.312635
90.439916
43.692589
14.737844
8.235574
7.109642
7.673502
10.657907
15.518665
25.884509
37.540793
55.780411
69.815516
84.898472
92.734694
93.140602
87.578893
73.572993
60.552955
43.230653
30.728579
18.570423
11.832714
6.808639
4.773736
3.614426
2.914667
2.741814
2.705455
2.504587
2.478957
2.348423
2.367496
2.068877
2.295971
2.373457
2.360940
2.447963
##ZVALUE=330
0.505447
0.465512
0.592470
0.632405
0.610948
0.671744
0.629425
0.786781
0.698566
0.624657
0.488758
0.830889
0.837445
0.711679
0.693798
0.568628
0.673532
0.618696
0.725985
0.671744
0.718832
0.716448
0.650883
0.672936
0.622869
0.897646
0.888705
0.777841
0.692606
0.814795
0.707507
0.945926
0.914931
0.748634
0.829697
0.784993
0.990629
0.907779
1.144409
1.044869
1.285672
1.066923
1.189709
1.487732
1.437664
1.693964
1.767874
6.625652
20.928979
68.991780
136.692524
285.086632
436.823964
658.263564
802.424550
901.901722
883.773565
752.881765
610.074997
398.660898
256.492496
119.401813
60.676932
22.742748
10.343790
6.157756
6.065965
7.122755
9.367466
14.800429
22.364855
35.975575
48.596859
67.253709
78.676939
87.148547
87.320805
82.193613
71.518421
54.837465
42.417645
26.644468
18.450618
10.460615
6.645918
4.245639
3.187656
2.629757
2.464652
2.104640
2.171993
1.983643
2.025962
1.874566
1.840591
1.926422
##ZVALUE=335
0.561476
0.657439
0.679493
0.493526
0.476837
0.629425
0.593662
0.531673
0.642538
0.630617
0.570416
0.735521
0.720620
0.926852
0.749826
0.765920
0.651479
0.682473
0.546575
0.634789
0.707507
0.645518
0.699759
0.709891
0.837445
0.673532
0.823736
0.710487
0.784993
0.800490
0.812411
0.842810
0.893474
0.692606
0.786781
0.892878
0.863671
0.880957
0.960827
0.979900
1.070499
1.084805
1.129508
1.138449
1.110435
1.269579
1.303554
1.374483
1.602769
2.585649
13.080835
35.779476
103.545785
194.213986
378.876925
549.634695
779.956579
895.609856
933.123827
871.130824
686.712861
518.462658
310.447812
187.350512
79.487562
37.410855
12.662411
7.045865
5.899668
5.985498
6.759763
8.780956
14.070868
20.946860
33.657551
45.112967
61.437488
72.225928
81.051588
81.562996
74.794888
65.787435
52.632689
41.816831
28.022528
19.494891
11.260509
7.434487
4.298687
2.989769
2.566576
2.160668
2.212524
1.796484
1.969934
1.988411
##ZVALUE=340
0.635982
0.651479
0.631809
0.544786
0.515580
0.543594
0.695586
0.621676
0.730753
0.588894
0.505447
0.515580
0.741482
0.689626
0.793934
0.746846
0.631809
0.687838
0.672936
0.662804
0.866652
0.652671
0.610948
0.746846
0.694990
0.608563
0.778437
0.924468
0.779629
0.845790
0.747442
0.785589
0.832677
0.924468
0.804663
0.965595
0.962615
0.892878
0.980496
1.025796
1.108646
1.059771
0.893474
1.158714
1.207590
1.090765
1.184940
1.356602
1.271963
1.494884
1.470447
1.715422
6.382465
20.903945
69.496632
140.308738
297.531486
445.188880
636.465549
757.120848
852.632523
840.035677
720.177889
580.909848
366.931558
230.847001
105.876923
50.926805
15.602708
7.399917
5.486608
5.373955
5.482435
6.153584
8.281469
12.188554
20.764470
30.125976
44.684410
56.894422
69.306493
74.541569
76.037645
72.239637
62.371492
52.698851
37.956834
28.166771
17.596483
11.693835
6.920695
4.667640
2.844930
2.360940
1.936555
1.873970
##ZVALUE=345
0.573993
0.615716
0.664592
0.525713
0.553727
0.610948
0.478625
0.636578
0.565648
0.579953
0.668764
0.639558
0.556707
0.750422
0.665784
0.494719
0.585914
0.577569
0.820756
0.686646
0.710487
0.608563
0.469685
0.664592
0.855923
0.713468
0.826716
0.694990
0.721812
0.688434
0.700951
0.651479
0.546575
0.617504
0.690818
0.596642
0.800490
0.719428
0.817776
0.731945
0.771880
0.747442
0.943542
0.783801
0.858903
1.068711
1.093745
0.915527
0.931621
1.153946
1.090765
1.160502
1.232624
1.477599
2.495646
13.085008
38.610697
108.048916
194.679499
355.606675
500.739813
686.075687
776.079893
803.969502
748.688579
588.497519
441.528559
265.325904
152.429938
61.109662
27.353764
9.235740
6.047487
5.047917
4.934669
4.679561
5.343556
7.192492
10.876656
18.755794
26.884675
40.905476
51.193833
61.349869
68.148971
70.614815
67.089796
59.098601
50.449967
37.501454
28.494596
17.896891
11.951923
6.382465
4.639626
2.765656
##ZVALUE=350
0.639558
0.612736
0.563860
0.656843
0.617504
0.571609
0.459552
0.713468
0.583529
0.606775
0.653863
0.582933
0.659823
0.615716
0.742674
0.511408
0.614524
0.470877
0.677705
0.514984
0.607967
0.722408
0.598431
0.778437
0.703931
0.734925
0.597835
0.777841
0.633597
0.716448
0.674725
0.567436
0.817776
0.806451
0.744462
0.769496
0.769496
0.854731
0.732541
0.817776
0.870824
0.701547
0.728965
0.833869
0.908971
0.990629
0.936985
1.037717
1.028776
1.119971
0.923872
1.226664
1.205802
1.146793
1.331568
1.461506
1.788735
6.592870
21.615624
69.418550
133.862495
274.855494
409.514904
587.908626
703.663826
784.713626
759.313703
642.001033
503.046513
308.826566
193.053484
90.395808
42.660832
12.764931
6.527901
5.015731
4.484653
4.204512
4.105568
4.899502
6.217957
10.719895
15.982985
24.485588
32.312870
44.976473
53.873658
61.441660
63.620806
61.203837
56.654811
46.010613
36.642551
25.843978
18.207431
11.086464
##ZVALUE=355
0.467896
0.492930
0.667572
0.752807
0.622869
0.545979
0.569820
0.584722
0.598431
0.625849
0.459552
0.515580
0.504851
0.516772
0.527501
0.503659
0.606775
0.682473
0.644922
0.554919
0.411868
0.653863
0.677705
0.472665
0.712872
0.669956
0.802875
0.621676
0.763535
0.707507
0.688434
0.687838
0.715852
0.631809
0.666976
0.735521
0.631809
0.647902
0.733733
0.762939
0.691414
0.743866
0.781417
0.776649
0.798702
0.862479
0.762939
0.978708
0.804663
0.872612
0.816584
0.926852
0.955462
0.976920
0.880957
1.163483
1.244545
1.367927
1.389980
3.291965
11.257529
45.022964
93.403459
200.413465
318.304896
499.779582
631.469488
743.139982
748.933554
659.515858
542.745590
362.499952
236.414671
108.113885
51.929951
16.146898
7.349849
4.789829
4.470944
4.317760
3.874898
3.778934
4.305840
5.659461
8.447766
13.590455
20.181537
30.308962
37.702918
47.898889
53.837895
57.121515
56.500435
51.152706
44.818521
34.709573
##ZVALUE=360
0.509620
0.565648
0.695586
0.645518
0.569820
0.695586
0.491738
0.617504
0.559688
0.411868
0.486970
0.538826
0.615716
0.462532
0.454783
0.554919
0.670552
0.724792
0.550747
0.682473
0.758767
0.670552
0.701547
0.546575
0.715852
0.624657
0.680685
0.691414
0.616908
0.732541
0.779629
0.600815
0.559688
0.670552
0.787973
0.650883
0.584722
0.743866
0.606775
0.675917
0.517964
0.739694
0.689626
0.778437
0.732541
0.831485
0.639558
0.715852
0.907779
0.856519
0.785589
0.798702
1.059771
1.022816
1.061559
1.090765
0.990629
1.203418
1.335740
1.461506
1.487732
1.870990
5.173683
22.857785
56.194663
144.306421
244.023800
408.570766
555.624962
707.991719
754.987001
721.910596
624.737740
438.476801
295.415521
144.771934
75.164437
27.746558
11.292696
5.057454
4.344583
4.196763
3.625751
3.497601
3.530979
3.737807
4.389882
6.933808
10.192990
16.346574
23.478866
33.917427
41.284561
49.278736
52.092671
51.641464
##ZVALUE=365
0.627637
0.457764
0.635982
0.554919
0.506639
0.453591
0.564456
0.562668
0.560880
0.511408
0.510812
0.659823
0.492930
0.531673
0.618696
0.599623
0.510812
0.563860
0.674725
0.777841
0.637770
0.550747
0.699759
0.662804
0.694990
0.662804
0.671744
0.668764
0.613928
0.786781
0.561476
0.633597
0.704527
0.718832
0.495911
0.823736
0.596642
0.616908
0.735521
0.787973
0.734925
0.697970
0.811815
0.766516
0.799894
0.792742
0.719428
0.646710
0.764728
0.740886
0.925660
0.830889
0.880957
0.910759
0.945926
1.049638
1.048446
1.009703
1.112819
1.134872
1.226664
1.356602
1.404881
1.645684
2.978444
9.803772
38.703680
85.384846
205.331445
338.618755
542.910695
702.036619
858.547688
900.017023
787.323713
644.306540
416.935682
250.676870
105.147958
47.921538
14.063716
6.543994
4.645586
4.243851
3.787875
3.626943
3.354549
3.229976
3.351569
3.945827
5.655885
8.438826
14.000535
19.672513
28.644800
34.779906
##ZVALUE=370
0.599623
0.700951
0.706911
0.574589
0.604987
0.714660
0.706911
0.499487
0.307560
0.560880
0.466704
0.694990
0.605583
0.755787
0.534654
0.638962
0.740886
0.659823
0.714660
0.587702
0.610948
0.649691
0.681877
0.599623
0.634789
0.703931
0.565648
0.552535
0.695586
0.689626
0.731945
0.765920
0.740886
0.716448
0.693798
0.739694
0.661612
0.513792
0.797510
0.709891
0.778437
0.862479
0.618696
0.911951
0.604987
0.823736
0.654459
0.786781
0.840425
0.812411
0.760555
0.728965
0.968575
0.728965
0.867844
0.948906
1.015663
1.053810
1.103878
1.055598
1.076460
1.159906
1.340508
1.386404
1.417994
1.454949
1.738667
6.636977
21.105409
70.466995
135.299563
274.133682
428.297520
671.588778
824.625492
925.675631
888.394713
731.960535
552.956462
313.036442
173.033476
63.281655
27.004480
9.283423
5.215406
3.920794
3.695488
3.379583
3.270507
3.026724
2.858639
3.098845
3.601909
5.177855
7.449985
11.918545
##ZVALUE=375
0.533462
0.605583
0.440478
0.554919
0.498891
0.645518
0.506639
0.454783
0.541806
0.556707
0.555515
0.521541
0.491738
0.622869
0.775456
0.631809
0.674725
0.579953
0.438690
0.625849
0.540614
0.680685
0.520945
0.689626
0.560880
0.631809
0.483990
0.574589
0.505447
0.705719
0.675917
0.622869
0.674725
0.562668
0.748634
0.734925
0.735521
0.667572
0.673532
0.621676
0.551939
0.651479
0.564456
0.707507
0.825524
0.791550
0.812411
0.632405
0.809431
0.655651
0.678897
0.743866
0.597835
0.735521
0.836849
0.861883
0.832677
0.823736
0.890493
0.865459
0.892878
0.839829
1.009703
0.909567
1.056790
1.058578
1.023412
1.230836
1.529455
3.407001
10.977983
41.191578
89.464784
209.335685
334.125757
526.135564
649.772882
744.716525
747.150779
645.107031
512.048602
318.259001
204.451680
102.565885
51.441789
16.280413
6.688833
3.869534
3.573895
3.188848
3.070831
2.852678
2.736449
2.453923
2.476573
2.912879
##ZVALUE=380
0.521541
0.479817
0.545979
0.528693
0.610948
0.488758
0.283718
0.441670
0.700951
0.508428
0.425577
0.640750
0.698566
0.662804
0.468493
0.479817
0.550747
0.604987
0.499487
0.532866
0.674725
0.533462
0.469685
0.535846
0.673532
0.616908
0.472665
0.613928
0.701547
0.596642
0.670552
0.689626
0.802875
0.567436
0.605583
0.717640
0.725985
0.724792
0.703931
0.686646
0.571609
0.797510
0.725985
0.657439
0.629425
0.709891
0.644922
0.781417
0.695586
0.691414
0.821948
0.735521
0.962615
0.726581
0.757575
0.705719
0.875592
0.703931
0.651479
0.900626
0.740886
0.704527
0.741482
1.030564
1.061559
1.033545
0.883937
1.060963
1.193881
1.289845
1.567602
1.936555
6.288886
28.766990
68.111420
163.754821
267.920494
427.840948
551.988482
662.543774
681.606531
612.259507
507.728457
349.832773
239.794850
119.004846
63.054562
22.500753
9.385943
3.989935
3.619790
3.297925
2.866983
2.911687
2.745986
2.601743
##ZVALUE=385
0.540614
0.569820
0.587702
0.615716
0.521541
0.396967
0.715852
0.638962
0.481606
0.554919
0.600815
0.698566
0.568628
0.609756
0.699759
0.670552
0.644922
0.732541
0.662804
0.652671
0.490546
0.633597
0.673532
0.506639
0.595450
0.757575
0.834465
0.576973
0.664592
1.057982
0.875592
0.837445
0.755787
0.798702
0.781417
1.035929
0.893474
0.752807
0.962615
0.855923
0.859499
0.867844
0.961423
0.915527
0.823736
0.791550
0.807643
0.744462
0.825524
0.793934
0.617504
0.666976
0.768900
0.788569
0.741482
0.817776
0.781417
0.711679
0.706911
0.889897
0.771880
0.743866
0.772476
0.862479
0.990629
1.026988
1.123548
1.087785
1.111627
1.040697
1.241565
1.506805
1.439452
1.591444
3.660917
12.419820
46.588778
100.180507
220.465660
340.706706
507.217646
603.876710
661.869645
650.255680
558.509827
450.966954
292.370915
190.835595
87.070465
43.980479
14.904737
6.245971
3.560781
3.263950
3.112555
2.964735
##ZVALUE=390
0.428557
0.546575
0.563860
0.602603
0.635982
0.602603
0.559688
0.596642
0.538826
0.389814
0.456572
0.526905
0.549555
0.474453
0.564456
0.600815
0.496507
0.628829
0.449419
0.623465
0.559688
0.459552
0.399947
0.493526
0.683665
0.644922
0.437498
0.742674
0.673532
0.655651
0.627637
0.815988
0.786781
0.737906
0.867844
0.771880
0.745654
0.888705
0.838637
0.804663
0.776649
0.733733
0.736713
0.841618
0.858903
0.822544
0.843406
0.904799
0.908971
0.874996
0.774860
0.714660
0.795722
0.730753
0.699759
0.773668
0.803471
0.881553
0.861883
0.717640
0.704527
0.743866
0.864863
0.780821
0.653863
0.747442
0.918508
1.053810
1.027584
1.061559
1.064539
1.052618
1.143813
1.287460
1.331568
1.340508
1.917481
6.639957
30.674934
73.464513
175.686479
279.218554
426.994562
535.882711
643.939972
668.729544
613.351464
523.237586
363.551974
249.094963
131.142735
68.569779
24.466515
9.295940
3.942847
3.179908
##ZVALUE=395
0.573993
0.609756
0.616908
0.582933
0.653863
0.480413
0.530481
0.534654
0.634789
0.565648
0.648499
0.607967
0.721812
0.673532
0.696778
0.541806
0.581741
0.599623
0.489950
0.618696
0.523925
0.512600
0.713468
0.728965
0.666976
0.650883
0.686646
0.621676
0.800490
0.798702
0.552535
0.573993
0.756979
0.758767
0.763535
0.852942
0.849962
0.929832
0.907779
0.849962
0.831485
0.690818
0.928640
0.868440
0.854731
0.736713
0.761747
0.791550
0.743866
0.855923
0.897646
0.724792
0.813603
0.923872
0.875592
0.890493
0.740886
0.878572
0.803471
0.781417
0.798702
0.784993
0.786781
0.799894
0.753999
0.794530
0.884533
0.978708
1.002550
1.062751
1.058578
1.305938
1.076460
1.167655
1.218915
1.126528
1.173615
1.377463
1.363754
4.904866
17.057657
62.007904
119.421482
230.573416
351.274014
519.091487
627.619028
700.656772
688.902736
593.141913
473.148823
298.677683
185.378790
82.919598
39.674640
13.217926
##ZVALUE=400
0.691414
0.770688
0.469685
0.357628
0.525713
0.476837
0.484586
0.440478
0.595450
0.468493
0.493526
0.450611
0.557899
0.532866
0.580549
0.458956
0.478625
0.575781
0.458956
0.531673
0.543594
0.563860
0.547767
0.529885
0.473857
0.745654
0.654459
0.720620
0.690818
0.759959
0.554919
0.738502
0.769496
0.791550
0.802875
0.891685
0.751615
0.787973
0.829697
0.699759
0.770688
0.777841
0.697970
0.872612
0.837445
0.913739
0.763535
0.803471
0.757575
0.741482
0.743866
0.797510
0.743866
0.837445
0.595450
0.797510
0.664592
0.789762
0.829697
0.736713
0.788569
0.877976
0.801682
0.667572
0.636578
0.979900
0.849962
0.919700
0.973940
0.940561
1.141429
1.279712
1.165867
0.977516
1.020432
0.968575
1.122952
1.290441
1.195669
1.234412
1.454949
2.723932
8.974671
34.634471
77.331662
176.934004
287.809968
452.793837
566.825867
669.570565
691.565871
620.968938
518.295765
353.735685
234.593749
119.970441
##END
