##TITLE=D5-2
##FORMAT=SPECTACLE-ASCII V-1.2
##DATA TYPE=ULTRAVIOLET SPECTRUM
##SECOND TYPE=ULTRAVIOLET SPECTRUM
##DATE=01/24/18
##TIME=12:58:21
##SPECTROMETER/DATA SYSTEM=SPECTACLE
##XUNITS=NM EM
##YUNITS=ENERGY
##YFACTOR=1
##FIRSTX=220
##LASTX=410
##NPOINTS=96
##3DDATA=Equidistant
##ZUNITS=NM EX
##FIRSTZ=210
##LASTZ=400
##ZPOINTS=39
##XYDATA=(Y..Y)
##ZVALUE=210
16.772747
15.172958
13.845563
11.443496
11.435747
10.462999
9.772778
8.617640
7.597804
5.237460
4.597902
3.277659
2.985597
2.424717
2.331734
2.404451
2.815723
2.999902
2.590418
2.891421
2.595782
2.602935
3.107786
3.875494
3.582835
4.667640
5.885959
6.235838
5.982518
7.565618
6.553531
7.675886
8.509755
8.091927
8.439422
8.789897
7.143617
7.612705
7.416606
7.691979
7.314682
7.726550
7.452965
6.937981
7.333755
7.031560
6.281734
6.548762
6.734729
6.022453
6.485581
7.727742
7.347465
7.918477
6.948709
6.957650
5.874634
6.818771
6.625652
5.751848
5.969405
6.210804
5.980730
6.100535
6.361604
5.533695
6.536841
7.322431
7.888675
7.853508
8.840561
9.950995
11.730790
12.171865
12.974739
12.346506
12.625456
12.049675
11.504889
11.714697
10.708570
8.641481
7.938743
8.605719
7.013679
5.271435
5.706549
5.898476
5.962849
5.789995
9.060502
11.125803
15.308857
18.859506
25.370717
29.627681
##ZVALUE=215
38.574934
38.764477
31.830668
25.231838
22.242665
18.039942
17.213821
15.942454
15.822649
14.347434
11.195540
9.200573
7.744431
5.551577
3.882647
3.379583
2.761483
3.813505
3.133416
3.100634
3.446937
2.668500
4.038811
4.128814
5.113482
5.359650
5.039573
7.144809
8.025765
8.716583
10.461807
8.167624
9.883642
9.433627
8.994937
10.458827
9.541512
9.797812
9.872913
9.217858
8.308887
8.569956
9.277463
8.650422
8.239746
8.122921
7.908940
7.827878
8.327961
8.500814
7.932782
8.398890
8.589625
8.732677
8.882880
9.545684
8.587837
8.351803
8.286834
7.480979
8.155704
8.766651
7.406473
6.708503
6.755590
6.821752
7.777810
7.301569
6.879568
8.760691
8.128881
9.886622
11.435747
10.961890
11.542439
10.929704
11.399984
12.760758
10.646582
10.444522
9.574890
8.044839
7.228851
6.044507
5.649924
5.101562
4.473925
5.078912
4.121661
4.381537
4.901886
4.228950
4.023910
4.832745
7.858872
11.060834
##ZVALUE=220
78.562498
81.224442
79.783797
73.288679
65.560937
49.562454
41.457415
32.940507
28.025508
26.157498
24.624467
25.054812
22.660494
19.240975
14.688969
11.339784
7.352829
5.611777
3.877878
3.723502
2.949834
3.242493
3.658533
4.486442
4.906654
5.831718
5.526543
7.339716
6.733537
9.371638
8.232594
9.679794
10.578632
10.684729
10.451674
9.423494
11.588931
10.795593
10.508895
10.062456
10.127425
9.163618
9.176731
9.463429
9.594560
8.566976
9.610653
9.153485
9.096861
9.678602
10.558963
10.070801
10.615587
11.343956
10.536909
11.235476
10.886788
11.250973
10.191798
10.430813
11.013746
10.926723
9.698868
8.711815
9.462833
10.026693
8.534789
8.593798
8.282661
8.865595
9.899735
10.790825
9.906888
12.526512
11.047721
12.539625
11.202693
10.820627
9.792447
8.603930
8.591413
7.280707
7.838607
7.128716
6.015897
5.975962
5.554557
5.262494
4.690886
4.629493
4.444718
4.826784
5.204678
4.287958
4.749894
4.577637
##ZVALUE=225
93.238950
96.950531
115.107894
133.768916
135.232806
129.020810
113.238692
86.654425
67.894459
51.171780
43.398738
41.966438
40.772557
39.419532
39.875507
33.485889
27.204752
21.104813
14.644861
10.850430
7.379651
5.218983
3.669858
4.842877
5.548596
5.746484
5.112886
6.707907
6.785989
7.779598
8.259416
7.652640
8.190870
9.132624
10.731816
9.792447
10.700822
9.930730
10.942817
10.327697
10.504723
10.607839
10.386705
10.071993
10.607839
10.351539
10.506511
10.684729
10.105968
10.586977
11.544824
11.332631
11.569858
14.039874
12.773871
12.285709
12.989640
12.047887
13.068914
12.422800
11.745691
11.122823
11.024475
11.252761
9.383559
10.373592
8.899570
10.629892
9.907484
10.875463
10.207891
11.092424
11.235476
11.838675
11.032820
12.400746
11.185408
10.262728
10.006428
10.156631
9.739995
7.327795
7.716417
7.224679
6.671548
6.022453
5.197525
5.480647
5.878806
5.656481
4.673600
6.031990
5.626678
5.148649
5.048513
4.753470
##ZVALUE=230
60.003996
63.772798
98.485947
153.109431
193.095803
228.197575
235.525966
228.669643
196.499825
150.485635
114.362836
82.441568
60.470700
59.138536
59.725642
59.197545
63.839555
60.132742
48.422813
42.396784
28.956532
19.302964
12.305975
9.068847
5.935431
5.615950
5.178452
5.758405
6.215572
6.246567
6.364584
6.144643
6.518960
7.055998
8.154511
7.726550
7.595420
8.859634
8.760691
8.986592
9.022951
10.293722
8.726716
9.370446
9.370446
9.523630
9.611845
9.356737
10.652542
10.330677
10.783672
11.101961
11.899471
12.451410
12.023449
12.244582
12.261868
12.346506
12.482405
11.433959
11.027455
11.803508
12.066960
11.420846
11.218786
11.835694
10.774732
11.384487
11.075735
12.301803
11.627674
10.964870
12.986660
13.481975
12.895465
12.971759
12.577772
11.255741
11.347532
9.709597
9.536743
9.239912
7.984638
7.681847
8.136630
6.776452
5.545616
6.622672
6.435513
5.929470
6.206632
5.737543
5.102754
5.740523
5.548596
6.159544
##ZVALUE=235
16.053915
17.577410
35.953522
82.912445
134.973526
212.472677
268.985629
343.870521
370.727777
367.886424
320.017934
266.880989
181.264877
134.450793
99.004507
86.293817
85.209608
90.351701
94.300508
94.823837
85.377693
70.453882
55.976510
36.870837
25.779605
14.822483
10.814667
7.498860
7.413626
6.314516
5.729795
6.460547
6.490946
6.560683
6.581545
8.088946
7.831454
7.363558
8.003712
8.056760
8.489490
8.328557
8.817911
9.620786
8.609891
10.440946
9.617805
9.810925
8.112788
10.358691
10.857582
10.086894
10.565519
10.460615
10.071993
10.896921
11.350513
10.443926
10.499954
11.641979
10.135770
11.058450
11.836886
9.989738
10.117888
11.855960
11.784434
10.315776
11.469722
12.552738
13.949871
12.482405
13.058782
13.095737
12.730956
12.825727
12.568831
12.504458
11.495948
11.643767
11.072755
9.660721
10.561943
10.027885
8.425713
8.328557
7.519722
7.085800
7.397532
6.571412
7.449985
6.995797
7.253885
7.056594
6.653666
6.410480
##ZVALUE=240
1.872778
2.390742
5.906820
14.641881
42.713881
76.766610
161.999464
249.004960
371.955633
450.767875
508.497953
511.627793
471.690893
378.695726
297.062397
194.000006
144.799948
105.814934
99.855661
113.699436
120.254755
124.510527
117.551684
109.903812
88.202953
66.583753
49.948692
33.575892
20.431876
15.307665
10.583997
8.996725
7.632971
8.281469
7.462502
7.956624
8.346438
8.437634
8.872747
8.555651
10.021925
8.953810
8.707643
10.494590
8.935928
10.130405
10.041595
10.268688
9.773970
9.820461
9.714961
10.099411
9.498000
10.616779
9.768605
10.411739
9.608865
11.449456
10.911822
10.153651
10.889769
10.660887
10.601878
9.900928
10.522604
10.444522
10.737777
11.207461
10.888577
12.377501
12.603998
13.343692
13.512969
13.442636
14.324784
13.667941
13.216734
12.179613
11.600852
12.339950
11.542439
10.447502
10.506511
9.245872
8.605719
9.113550
8.737445
8.236766
8.609891
8.005500
7.021427
8.040667
6.932616
6.742477
7.271767
7.264614
##ZVALUE=245
1.996756
1.495481
1.743436
1.967549
3.801584
10.040998
29.258728
82.308650
141.526461
216.887593
364.083648
478.213429
569.143891
599.225760
567.881465
500.376821
372.275710
269.886851
180.116892
128.059983
104.096532
104.593635
122.350454
130.346417
135.613680
129.755735
115.848780
97.940564
75.178742
57.343841
35.788417
23.910403
16.305447
11.754632
9.093881
9.008646
9.191632
9.110570
9.615421
8.958578
8.724928
9.151697
9.674430
9.063482
9.790659
9.217858
10.087490
9.811521
9.035468
9.737611
10.032654
9.458661
10.290742
9.527802
10.632873
10.339618
9.775758
10.372996
9.017587
10.247827
8.784533
9.013414
9.901524
9.033680
8.631945
8.924603
8.435845
9.719729
10.064840
10.073781
11.071563
11.071563
11.680722
10.792613
11.064410
11.698604
11.581779
11.198521
10.442734
9.945631
9.031892
9.220839
8.101463
8.734465
7.261634
6.604791
7.039905
6.945729
6.617904
6.678700
6.018877
6.492734
6.321669
6.170869
6.331801
5.986691
##ZVALUE=250
1.459718
1.446605
1.830459
2.026558
1.849532
1.734495
1.939535
6.439686
23.801923
52.939653
130.528808
218.020678
327.764750
480.794907
590.770841
663.527846
663.574934
599.074960
503.581762
357.680917
242.885947
162.684917
107.741952
97.192526
109.571815
125.436783
144.026875
143.749714
136.525631
125.242472
110.721588
83.352923
61.368942
37.895441
25.612712
16.129613
11.534691
9.405613
9.567738
9.711981
9.756684
9.275675
9.532571
9.195805
9.754896
9.538531
10.069609
9.739995
10.396838
9.433627
10.265708
9.893775
9.671450
9.445548
9.494424
9.122491
9.658933
8.494854
8.375645
9.122491
8.518696
8.691549
8.511543
8.955598
7.889867
7.732511
8.135438
8.185506
8.213520
8.870959
8.987784
8.632541
9.578466
9.305477
8.677840
9.699464
9.449720
9.376407
7.755756
7.525682
7.313490
7.228851
6.604791
5.996823
6.061792
5.484819
5.560517
5.482435
5.761981
5.079508
5.404949
5.306602
5.409718
5.040765
5.117655
4.615784
##ZVALUE=255
1.476407
1.465678
1.760721
1.849532
1.336932
1.603961
1.675487
2.195835
1.831651
4.356503
12.467504
42.164922
88.287592
194.494724
300.372839
466.863513
589.304566
707.429647
749.695897
696.947575
619.618893
499.636531
318.738818
206.128955
122.298002
92.692971
95.237494
108.290911
133.794546
144.944787
153.819919
147.642493
135.299563
109.578967
85.534453
57.539940
40.225983
24.683475
17.521977
12.391806
10.552406
9.749532
9.954572
9.778738
9.435415
10.022521
9.872913
9.480715
9.888411
10.102987
9.982586
10.231733
10.271668
9.889603
9.906888
9.380579
9.943843
9.431839
9.064674
8.089542
8.808970
8.894801
7.951856
8.106828
7.557869
7.001758
7.694960
7.551908
7.965565
7.212758
7.634759
8.019805
8.216500
7.718801
7.679462
7.932782
7.512569
6.851554
6.321669
6.108880
5.945563
4.858971
5.415678
4.903674
5.239844
4.534721
4.277825
5.074739
4.429817
4.285574
4.246831
3.986955
4.084706
4.499555
4.056692
4.156828
##ZVALUE=260
1.211762
1.376867
1.400709
1.456738
1.288652
1.251698
1.418591
1.713634
1.404881
1.656413
1.899600
2.245903
6.076694
23.523569
57.682991
140.632987
239.124894
406.220555
541.760921
718.245506
798.951983
812.716484
733.217001
599.553585
408.370495
278.461576
165.929794
110.406876
81.557631
86.093545
110.092759
130.351782
146.842599
157.572627
153.522491
134.749413
117.275715
87.030530
64.633489
39.397478
28.072000
16.965866
13.842583
11.564493
10.240674
10.263920
10.338426
9.834766
9.791851
10.284781
10.442734
10.048747
9.817481
10.391474
10.495782
9.308457
9.526610
9.544492
9.157658
8.083582
8.081794
8.470416
7.665753
7.606745
7.408857
6.672740
7.453561
6.750822
6.420612
7.148981
6.819963
6.667972
7.143617
6.668568
6.555915
6.598830
6.288886
5.806684
5.717874
5.041957
4.928708
4.727840
4.746914
4.320741
4.202724
3.661513
3.892779
3.751516
3.466606
3.543496
3.700852
3.283620
3.455877
3.237724
3.681779
3.651977
##ZVALUE=265
1.117587
1.295805
1.278520
1.163483
1.176596
1.466870
1.204610
1.029968
1.323819
1.440644
1.474619
1.540780
1.457930
1.809597
3.395677
16.794801
39.994717
106.395483
192.112923
370.285511
530.573726
683.194995
838.944912
875.632763
800.575018
692.412853
516.754985
365.034938
202.336907
130.289793
86.503625
70.617795
85.135698
114.440918
135.573745
155.013800
161.562562
156.844854
139.454603
113.072991
90.341568
60.320497
42.243600
26.350617
19.063950
13.546944
12.028813
11.281967
11.860728
11.108518
10.825992
10.983944
10.860562
11.078715
10.809898
10.773540
10.827780
10.418892
9.831786
9.218454
8.885860
8.802414
8.225441
7.928610
7.583499
6.700754
7.378459
6.830692
6.684661
6.515980
7.346869
6.558895
6.266832
6.486773
6.886721
6.119609
6.071925
5.735755
5.605817
4.937649
4.438758
4.527569
4.056692
4.394650
4.197955
3.598928
3.584623
3.361702
3.385544
3.322959
3.249645
3.302693
3.730655
3.102422
3.579855
3.262758
##ZVALUE=270
1.164675
1.138449
1.141429
0.996590
1.280904
1.142621
1.428723
1.227856
1.143813
1.287460
1.252890
1.351833
1.405478
1.589656
1.771450
1.679659
2.185702
7.581711
22.543669
74.210763
150.747895
267.273784
483.798981
653.719902
841.521621
909.324884
899.180770
821.092725
642.972589
483.596921
329.454541
175.338984
103.738904
62.211752
63.618422
87.855458
111.055970
138.528943
157.463551
162.230730
159.801841
138.719678
119.145513
89.249611
65.636635
42.004585
29.044747
19.480586
15.970469
13.011694
12.309551
11.843443
12.406707
11.871457
12.454987
11.735559
11.436939
10.745525
11.094809
9.923577
9.601712
9.378791
8.891821
7.842779
8.067489
8.340478
7.393956
7.274747
7.565618
6.964803
6.922483
6.859899
7.186532
6.507635
6.255507
6.355643
5.849600
6.179810
5.490780
5.137920
4.656911
4.243851
4.239678
3.909469
3.697872
4.045963
3.941655
3.267527
3.432631
3.897548
3.322959
3.281832
3.086925
3.023744
3.162622
2.913475
##ZVALUE=275
0.858903
1.076460
1.042485
1.189709
1.033545
1.029968
1.014471
1.086593
1.151562
1.141429
1.448989
1.042485
1.342893
1.325607
1.352429
1.523495
1.517534
1.717806
1.980662
4.062653
13.570786
38.700700
116.623640
220.832825
424.145460
583.819747
773.038864
890.525579
942.227840
893.437862
789.217949
579.538941
412.847400
222.016573
132.825971
69.583654
53.133965
64.133406
83.348751
114.480853
135.955811
156.605840
161.464810
156.421661
139.780641
112.468600
92.035532
64.363480
47.626495
29.636621
21.981597
15.916824
13.657808
12.567639
11.967421
11.337996
11.609793
11.386871
10.795593
10.328889
10.263920
9.629726
9.267926
8.844733
8.340478
8.234978
7.690787
7.551908
7.608533
7.490516
6.953478
7.028580
7.101893
7.288456
6.750822
6.532669
5.984902
5.746484
5.753636
5.333424
5.164742
4.549623
4.542470
4.253983
3.891587
3.746748
3.600717
3.532767
3.413558
3.562570
3.488660
3.426671
3.461838
3.022552
3.344417
3.192425
##ZVALUE=280
1.035929
0.982881
1.092553
0.961423
1.019835
0.972748
0.928640
0.925660
1.075864
1.170635
1.070499
1.065731
1.010895
1.164675
1.383424
1.231432
1.122952
1.473427
1.441836
1.475811
1.672506
1.927614
8.548498
28.441548
89.281797
169.028640
324.739814
480.234623
700.401664
840.857029
927.292705
933.039784
849.840641
649.811029
480.138659
275.994539
166.561604
78.628659
49.566627
45.176744
59.212446
86.908937
108.164549
136.244893
150.354505
157.086849
151.439905
134.028792
114.969611
84.123611
64.514875
42.858720
30.123591
20.172000
14.792681
11.841655
10.874867
10.396838
9.701848
9.595752
9.389520
9.082556
9.345412
8.997917
8.451939
8.232594
8.148551
7.469654
7.294416
7.185936
6.923676
7.218719
6.514788
6.754994
6.639957
6.760955
6.036758
5.668998
5.792975
5.443692
5.122423
4.634857
4.544854
4.176497
4.382730
4.177690
3.913641
3.998876
3.796816
3.561974
3.608465
3.532767
3.370643
3.234744
3.255606
3.284812
##ZVALUE=285
0.923872
0.972748
0.959635
1.038909
0.860691
0.744462
0.904799
0.911951
0.951886
0.863671
0.896454
1.031756
0.927448
1.024604
0.997782
1.008511
1.087785
1.208782
1.234412
1.105666
1.504421
1.631975
1.662970
1.743436
4.095435
13.965964
48.876405
106.328726
236.839652
374.450684
588.905811
757.995844
889.218450
959.651470
907.515883
746.272802
588.621497
370.708704
233.505964
111.745000
61.044693
34.452677
36.974549
56.055784
77.627897
107.394457
127.082467
143.459439
149.473548
145.158768
133.266449
110.941529
87.558627
61.962605
43.516755
27.070642
17.901659
12.567639
10.015965
8.427501
8.802414
7.692575
7.924438
7.664561
7.514954
7.454753
7.221699
7.291436
7.356405
7.148981
6.748438
6.616712
7.136464
6.526709
6.650686
6.294847
6.139874
5.978942
5.604625
5.413890
5.124807
4.800558
4.582405
4.105568
4.549623
4.481673
4.114509
3.886819
3.662705
3.695488
3.562570
3.710985
3.517866
3.472567
3.449917
3.120899
##ZVALUE=290
0.952482
0.863671
0.756979
0.900626
0.821948
0.888705
0.861883
0.777841
0.912547
0.796914
0.864863
0.999570
0.868440
1.052618
0.913739
1.091957
1.069903
1.018643
1.178980
1.138449
1.249909
1.220703
1.195669
1.483560
1.515746
1.701713
2.258420
7.792711
23.465753
72.777867
145.111680
302.786827
463.266969
692.399740
845.247507
962.678790
953.141451
826.482773
681.462884
458.948016
304.099917
154.654980
81.945658
34.561753
25.448799
34.170747
47.768950
73.202848
93.332529
119.047761
133.510828
144.531727
143.387914
128.144622
108.950734
80.273747
60.816407
39.609671
27.466416
16.350746
11.542439
8.152723
7.447600
7.030964
6.646514
6.550550
6.420612
6.645918
6.301999
6.740689
6.686449
6.626844
6.630421
6.888509
6.435513
6.271601
6.180406
5.334616
5.451441
5.034804
5.297661
4.880428
4.675984
4.732609
4.582405
4.343987
4.408956
3.916621
4.068613
3.927946
3.967881
3.659725
3.617406
3.643632
3.342628
3.324747
##ZVALUE=295
0.769496
0.685453
0.875592
0.728965
0.626445
0.714660
0.786781
0.617504
0.755787
0.755787
0.833869
0.825524
1.017451
0.937581
0.906587
0.893474
0.830889
1.016855
1.089573
1.058578
1.002550
1.100898
1.168847
1.232624
1.189709
1.368523
1.451969
1.521707
1.673698
2.741814
13.747811
40.730834
93.881488
226.214528
373.097658
606.030822
766.828656
920.155644
963.397026
891.532898
763.821602
548.609495
378.809571
196.627975
109.568834
42.798519
23.282766
20.667911
28.579831
46.713948
64.108968
90.242624
108.916759
127.073526
134.799480
131.105781
121.240616
100.330710
81.375837
56.746602
39.500594
23.634434
15.642643
10.168552
7.325411
6.206632
5.455613
5.827546
5.746484
5.751848
6.293654
6.252527
5.913973
6.275773
6.457567
5.902648
5.819798
5.392432
5.712509
5.443692
5.231500
4.519820
4.513860
4.576445
4.552603
4.225969
4.451871
3.958941
3.605485
3.661513
3.962517
3.675818
3.672838
3.395677
3.404617
3.663898
##ZVALUE=300
0.825524
0.884533
0.812411
0.806451
0.826716
0.693798
0.748634
0.839829
0.709891
0.806451
0.858903
0.805855
0.820756
0.862479
0.781417
0.773668
0.887513
0.936985
0.953674
1.052618
1.140833
1.109838
0.956655
1.036525
1.125932
1.247525
0.974536
1.155734
1.579523
1.534820
1.721978
2.171993
6.443858
21.509528
73.549747
145.289898
308.497548
474.136472
701.526999
833.730698
939.695835
932.869911
808.576941
664.699674
442.138910
292.118788
144.564509
77.982545
31.375885
17.041564
17.490983
25.079846
41.728616
58.127642
82.267523
101.523399
121.139884
127.987862
126.767755
116.945505
96.869469
78.978539
54.909587
40.251613
23.717880
16.053915
10.083914
7.136464
6.088614
5.755424
5.617738
6.029606
5.927682
6.111860
5.897880
5.371571
5.222559
5.345941
5.369782
5.100965
4.773736
4.644990
4.860759
4.442930
4.234910
4.509687
4.212856
4.338622
4.011989
3.707409
3.713965
3.562570
3.609657
3.475547
3.276467
3.308654
##ZVALUE=305
0.778437
0.714660
0.713468
0.760555
0.766516
0.773668
0.839829
0.637770
0.967979
0.750422
0.671744
0.709891
0.654459
0.818968
0.819564
0.867844
0.774860
0.889897
0.769496
0.957847
0.968575
0.850558
0.934601
1.058578
1.050830
1.071692
1.048446
1.134872
1.238585
1.083612
1.269579
1.401901
1.500845
1.755953
2.464652
13.988614
40.376782
119.123459
217.732787
407.343507
577.305555
795.093775
907.346010
939.753652
876.238942
695.334673
538.303852
343.383551
212.300420
96.407533
48.930645
18.025637
12.447834
16.876459
23.622513
39.661527
54.939985
78.089833
95.754862
113.782883
122.304559
119.785666
111.118555
92.028975
73.969960
51.707625
37.018657
22.758842
14.586449
9.033680
6.643534
5.942583
5.677938
5.498528
5.184412
4.931688
4.959702
4.549623
4.681945
4.569888
4.469752
4.513860
4.092455
4.317760
4.239678
3.847480
4.093647
3.943443
3.637671
3.765821
3.723502
3.481507
3.291965
3.083944
3.272891
3.448725
##ZVALUE=310
0.700951
0.773668
0.732541
0.867844
0.715852
0.721812
0.770688
0.572801
0.665784
0.696778
0.708699
0.632405
0.680685
0.716448
0.759959
0.754595
0.849962
0.863671
0.765920
0.904799
0.926852
0.966787
0.843406
0.929832
1.045465
1.067519
1.044869
1.037717
1.085997
1.211762
1.140833
1.229644
1.192689
1.193881
1.327991
1.529455
1.697540
6.276965
20.386577
69.583654
141.092539
294.866562
456.971526
677.099824
819.623470
919.733644
909.273028
791.747570
653.048754
433.892608
290.092826
145.388842
78.087449
28.921962
13.878942
10.791421
13.861656
21.930933
31.747818
50.299764
66.884756
89.079738
103.031993
112.992525
113.721490
105.026960
91.159940
70.796609
54.135919
34.185648
23.998618
14.456511
9.783506
6.501675
5.299449
4.852414
4.466772
4.090667
4.110932
3.883839
3.796816
3.776550
3.846884
3.580451
3.654957
3.655553
3.416538
3.403425
3.234744
3.208518
3.205538
3.110766
3.049970
2.817512
2.846718
3.179908
##ZVALUE=315
0.619888
0.682473
0.641942
0.728965
0.710487
0.616908
0.816584
0.662804
0.708699
0.751615
0.712872
0.743866
0.764728
0.669956
0.649691
0.636578
0.832677
0.873804
0.863671
0.828505
0.779629
0.690818
0.876784
0.979900
0.792742
1.056790
0.858903
0.951886
0.927448
0.981688
1.051426
1.172423
1.090765
1.243949
1.281500
1.230836
1.416802
1.554489
1.734495
3.085732
10.502934
44.176579
101.515651
231.277943
381.864905
614.601970
760.431886
889.564753
926.660895
850.837827
725.695491
515.058637
364.798903
192.908645
105.380416
39.908886
17.400980
9.648800
9.436607
12.966990
18.224716
31.399727
44.242740
63.856840
80.539584
98.053813
106.155872
106.518865
99.301934
82.952976
67.923665
47.960877
34.803748
20.991564
13.442636
7.799864
5.835891
4.172921
3.978610
3.517866
3.202558
3.054738
2.865791
2.962947
2.925992
3.011823
2.767444
2.958775
2.745986
2.864599
2.575517
2.741814
2.643466
2.361536
2.337694
2.584457
##ZVALUE=320
0.737906
0.583529
0.628829
0.715852
0.774860
0.657439
0.661612
0.669956
0.703931
0.800490
0.764728
0.670552
0.660419
0.605583
0.721812
0.787973
0.755787
0.797510
0.763535
0.699759
0.801682
0.828505
0.844598
0.760555
0.925660
0.876784
0.796914
0.906587
0.849962
0.961423
1.213551
0.966787
1.077652
1.320839
1.243949
1.158714
1.332760
1.221895
1.234412
1.438856
1.338720
1.744628
5.858541
19.937754
70.163608
142.484903
295.958519
442.858934
655.131936
798.414946
898.301005
891.548991
773.306489
629.500747
427.169800
276.244879
127.666593
68.457723
25.931001
12.066960
7.759929
7.973909
11.146665
15.913844
26.431680
39.665699
58.324933
73.237419
90.002418
98.713636
99.262595
95.261931
79.464912
65.365434
45.495629
33.505559
20.358562
12.906790
7.072687
4.834533
3.388524
3.101826
2.662539
2.642870
2.555847
2.596974
2.284646
2.560616
2.296567
2.264977
2.300739
2.368689
2.454519
2.312660
2.289414
2.399683
##ZVALUE=325
0.549555
0.550747
0.604987
0.642538
0.839829
0.587702
0.674725
0.616908
0.736713
0.718832
0.589490
0.714660
0.597835
0.745654
0.731945
0.688434
0.725985
0.705719
0.739694
0.604987
0.779629
0.856519
0.640750
0.832677
0.846982
0.662804
0.812411
0.840425
0.897646
0.687838
0.994802
0.795722
0.970960
0.959635
0.957847
0.909567
1.055598
1.061559
1.242757
1.244545
1.238585
1.454949
1.514554
1.370907
2.609491
15.966892
42.387843
112.857819
206.097960
387.348533
548.136830
750.370622
853.454471
887.478590
821.797848
649.372935
494.181514
300.847888
183.659792
81.689954
39.962530
13.209581
7.558465
6.502867
7.502437
10.372996
15.571713
26.080608
38.111806
55.161715
69.675446
85.190535
91.405511
92.393756
85.969567
72.129965
58.952570
41.924715
29.581785
17.460585
11.131763
5.969405
3.993511
2.977848
2.623796
2.245903
2.086759
2.375841
1.976490
2.005696
1.922846
1.931787
1.950860
2.117753
1.999736
1.881719
##ZVALUE=330
0.677705
0.584722
0.746846
0.627637
0.658631
0.618696
0.677705
0.675917
0.527501
0.648499
0.777841
0.534654
0.654459
0.663996
0.616908
0.652671
0.751615
0.689626
0.774860
0.660419
0.564456
0.586510
0.786781
0.784993
0.637770
0.644922
0.869632
0.807643
0.876784
0.760555
0.747442
0.886917
0.845790
0.888705
0.839829
0.979900
0.853539
0.972748
1.028776
1.132488
1.233816
1.094937
1.344681
1.293421
1.363754
1.522899
1.801848
6.896853
21.921992
74.073672
144.664645
295.333862
442.267656
649.913549
781.590939
872.617960
848.194957
715.121627
573.323965
368.085504
236.032605
110.138655
56.657791
20.147562
9.564757
6.265640
5.901456
6.669760
8.589625
15.142560
22.735596
37.004948
49.261451
67.621469
78.390837
86.378455
86.876750
80.078840
69.928765
53.311586
40.258765
25.323629
17.819405
10.597706
7.060766
4.115701
3.038645
2.262592
2.236962
1.979470
1.897812
1.992583
1.848936
1.855493
1.906753
1.779795
##ZVALUE=335
0.502467
0.563860
0.631809
0.654459
0.766516
0.597835
0.653863
0.584722
0.607967
0.561476
0.573993
0.695586
0.738502
0.688434
0.637770
0.786781
0.676513
0.739694
0.635982
0.699759
0.705719
0.554919
0.710487
0.523925
0.820756
0.713468
0.747442
0.667572
0.606775
0.856519
0.676513
0.770688
0.871420
0.982881
0.875592
0.965595
0.876784
0.944734
0.968575
0.929832
0.973940
1.069903
1.017451
0.954866
1.163483
1.203418
1.233816
1.281500
1.551509
2.724528
14.139414
39.071441
111.101866
199.902654
374.447703
534.893870
731.775761
829.986930
861.277580
790.205598
618.527532
466.479659
279.339552
166.254640
70.182681
33.180714
11.208653
6.600618
5.441904
5.274415
6.485581
8.701682
14.083982
20.600557
33.903718
45.523643
61.377883
71.767569
79.919696
81.231594
74.411631
65.263510
50.870776
40.120482
26.698709
18.681884
10.662675
7.267594
4.102588
2.792478
2.334714
2.193451
2.104640
1.852512
1.669526
1.805425
##ZVALUE=340
0.492930
0.437498
0.534654
0.692606
0.533462
0.616908
0.601411
0.692606
0.648499
0.689626
0.644922
0.565648
0.534654
0.562668
0.597835
0.713468
0.488758
0.611544
0.556707
0.612736
0.630617
0.600815
0.786781
0.546575
0.757575
0.735521
0.743866
0.697970
0.686646
0.764728
0.700951
0.643730
0.751615
0.677705
0.748634
0.722408
0.933409
0.865459
0.912547
0.907779
0.888705
0.873804
1.044869
1.109838
1.012683
1.079440
1.176596
1.216531
1.354814
1.263618
1.385808
2.049804
5.402565
26.939511
66.787601
167.793632
290.495753
486.152768
630.349517
774.057508
826.610923
778.622627
677.935481
501.979589
351.211429
180.191994
99.761486
40.906668
16.635656
6.656647
5.633831
4.974604
5.108714
6.085634
8.099675
13.411641
20.019412
31.762719
42.898655
58.611631
67.270994
74.773431
75.179935
69.911480
62.499642
49.312711
38.924813
25.703907
18.640757
10.924935
6.914735
4.079938
2.854466
2.220869
1.992583
1.796484
##ZVALUE=345
0.674725
0.578761
0.687838
0.600815
0.603795
0.592470
0.599623
0.563860
0.670552
0.689626
0.420809
0.578761
0.602603
0.524521
0.545979
0.608563
0.506639
0.598431
0.691414
0.603795
0.589490
0.579953
0.696778
0.597835
0.634789
0.654459
0.666976
0.729561
0.696778
0.637770
0.674725
0.838637
0.756979
0.725985
0.773668
0.756979
0.848770
0.800490
0.875592
0.878572
0.895858
0.810623
0.724792
0.968575
0.802875
1.052618
0.907779
1.042485
0.935793
1.223683
1.098514
1.215935
1.372695
1.450777
2.704859
14.768839
41.739941
113.267899
205.409527
379.217863
526.799560
708.435774
792.613626
810.095668
738.562942
563.550591
417.727828
244.533420
137.630701
54.489970
24.938583
9.004474
5.779862
5.086660
4.908442
4.528761
5.062819
7.407665
11.123419
19.071698
27.213693
41.724443
50.972700
61.190724
66.322684
68.947673
66.586733
57.998896
49.231648
37.307739
27.808547
16.866922
11.583567
6.267428
4.334450
2.929568
##ZVALUE=350
0.639558
0.570416
0.501871
0.506639
0.519753
0.713468
0.574589
0.638962
0.556707
0.425577
0.549555
0.542998
0.556707
0.600815
0.518560
0.593662
0.563860
0.579953
0.630617
0.544786
0.544786
0.601411
0.551939
0.583529
0.648499
0.632405
0.664592
0.767708
0.628829
0.644922
0.759959
0.703931
0.652671
0.718832
0.724792
0.721812
0.778437
0.730753
0.747442
0.727773
0.754595
0.798702
0.835657
0.901818
0.802875
0.778437
0.857711
0.846982
0.875592
1.011491
1.164675
1.071692
1.144409
1.324415
1.262426
1.532435
1.800656
7.326603
23.039579
76.271892
146.391988
296.962857
434.732437
620.637536
736.068487
797.823668
759.564638
624.845624
478.792787
281.500816
170.582533
77.764988
36.088824
11.145473
6.032586
4.949570
4.490614
4.025698
3.998876
4.602671
6.470680
10.930896
16.035438
24.483800
33.254623
44.733882
53.262711
60.733557
62.922835
60.583949
54.966807
43.980479
35.466552
24.312735
17.865896
11.130571
##ZVALUE=355
0.547767
0.501871
0.585914
0.478625
0.537634
0.575781
0.521541
0.619888
0.606775
0.550747
0.536442
0.562668
0.611544
0.550747
0.622869
0.673532
0.596642
0.651479
0.674725
0.549555
0.601411
0.590682
0.439882
0.577569
0.693798
0.592470
0.720620
0.735521
0.628829
0.662804
0.709891
0.609756
0.612736
0.691414
0.721812
0.803471
0.593662
0.740886
0.835657
0.757575
0.723600
0.746846
0.712872
0.889897
0.807643
0.756979
0.876784
0.906587
0.915527
0.842810
0.868440
0.985861
0.967979
1.108646
0.995994
1.149774
1.298785
1.333952
1.625419
2.880692
14.511943
41.167736
109.785795
199.458599
374.302864
522.586703
691.601634
768.440962
758.598447
670.593977
492.763519
353.743434
197.202563
108.851790
41.752458
18.859506
6.861687
4.874468
4.261732
3.989935
3.809929
3.844500
4.264712
5.567670
8.848906
13.338923
21.680593
28.732419
39.923787
47.595501
54.840446
57.141781
55.771470
50.754547
42.016506
34.277439
##ZVALUE=360
0.590682
0.547767
0.527501
0.395775
0.565648
0.595450
0.475645
0.617504
0.537634
0.580549
0.655651
0.525713
0.536442
0.650883
0.642538
0.580549
0.667572
0.641942
0.620484
0.697970
0.609756
0.650883
0.593662
0.763535
0.680685
0.639558
0.606775
0.715852
0.694990
0.660419
0.705719
0.812411
0.565648
0.638962
0.644922
0.824928
0.754595
0.551939
0.835657
0.644922
0.734925
0.729561
0.800490
0.808835
0.981688
0.858903
0.890493
0.791550
0.840425
0.834465
0.858903
0.947714
0.934601
0.913739
1.105666
1.026988
1.088977
1.069903
1.221895
1.101494
1.362562
2.120733
5.545616
25.497675
61.667562
159.100890
267.195702
446.024537
592.115521
732.441545
764.618516
704.987645
594.041944
403.683782
266.799927
130.549669
67.724586
24.704933
10.447502
5.111694
4.376769
3.968477
3.770590
3.737807
3.661513
3.858805
4.523993
7.070899
10.585785
16.715527
23.721457
33.628941
40.852427
47.433972
50.659776
51.574707
##ZVALUE=365
0.498891
0.548959
0.552535
0.523925
0.578761
0.581741
0.525713
0.703931
0.628829
0.479817
0.488758
0.447631
0.631809
0.642538
0.665784
0.465512
0.605583
0.613928
0.689626
0.564456
0.562668
0.529885
0.502467
0.579953
0.648499
0.465512
0.614524
0.552535
0.789762
0.687838
0.676513
0.837445
0.546575
0.568628
0.690818
0.850558
0.635982
0.671744
0.708699
0.644922
0.781417
0.772476
0.727773
0.856519
0.694990
0.785589
0.867844
0.854731
0.907779
0.761747
0.878572
0.802875
0.986457
0.846982
0.869632
0.857711
1.012683
1.017451
0.991821
1.199841
1.345873
1.338720
1.539588
1.726747
3.304482
11.101961
43.104887
94.217658
219.439864
352.798700
538.544655
657.188892
748.377442
746.374726
642.198920
518.394709
329.189897
198.874474
86.362958
40.594935
12.527704
6.195903
4.381537
3.981590
3.852844
3.595948
3.276467
2.902746
3.098845
3.688931
5.634427
8.431673
14.347434
19.977689
29.027462
35.130978
##ZVALUE=370
0.524521
0.575781
0.462532
0.480413
0.471473
0.519753
0.626445
0.591874
0.614524
0.650883
0.530481
0.420809
0.334978
0.603795
0.534654
0.610948
0.631809
0.577569
0.660419
0.607967
0.659823
0.584722
0.465512
0.574589
0.661612
0.568628
0.635982
0.592470
0.577569
0.604987
0.751615
0.683665
0.695586
0.631809
0.612736
0.730753
0.636578
0.670552
0.648499
0.845790
0.819564
0.666976
0.626445
0.812411
0.691414
0.785589
0.803471
0.789762
0.676513
0.744462
0.919700
0.811815
0.731945
0.834465
0.696778
1.000762
0.949502
0.868440
0.945926
0.974536
1.063943
1.080632
1.140833
1.160502
1.293421
1.443624
1.819730
7.627606
24.514794
77.114701
148.996711
289.532542
426.491499
614.715815
717.733502
753.102899
696.414709
552.431941
414.535999
236.417651
136.917830
53.355694
23.348927
7.550716
4.708767
3.879666
3.417730
3.355742
3.218651
2.798438
2.681613
2.960563
3.198981
4.945993
7.076859
11.630654
##ZVALUE=375
0.563860
0.481606
0.621676
0.476837
0.524521
0.509620
0.605583
0.496507
0.572801
0.544786
0.583529
0.572801
0.448823
0.540614
0.556707
0.409484
0.496507
0.554919
0.540614
0.467896
0.659823
0.378489
0.595450
0.698566
0.593662
0.717640
0.584722
0.768900
0.713468
0.615716
0.563860
0.675917
0.686646
0.616908
0.677705
0.727773
0.628829
0.578761
0.764728
0.781417
0.828505
0.713468
0.730753
0.673532
0.642538
0.649691
0.596642
0.679493
0.760555
0.720620
0.721812
0.625849
0.712872
0.702739
0.730753
0.730753
0.720620
0.966787
0.853539
0.901818
0.792742
1.120567
0.911951
1.127720
1.085997
1.154542
1.264811
1.403689
1.556873
3.832579
12.601614
45.729876
99.833608
226.822495
357.856750
542.730689
653.739572
728.137493
709.149837
591.707826
460.527539
282.119513
179.268718
87.910891
43.872595
13.992786
6.232858
3.767610
3.495812
3.262758
2.930760
2.937913
2.699494
2.582669
2.465844
3.148913
##ZVALUE=380
0.467896
0.637770
0.425577
0.697970
0.558496
0.639558
0.463724
0.598431
0.463724
0.530481
0.478625
0.464916
0.608563
0.409484
0.622869
0.487566
0.535846
0.435710
0.520945
0.458956
0.600815
0.634789
0.659823
0.704527
0.664592
0.570416
0.608563
0.650883
0.602603
0.567436
0.533462
0.706911
0.721812
0.535846
0.564456
0.739694
0.655651
0.770688
0.690818
0.766516
0.891685
0.635982
0.638962
0.806451
0.687838
0.778437
0.818968
0.605583
0.732541
0.695586
0.855923
0.790954
0.771880
0.705719
0.771880
0.785589
0.688434
0.804663
0.904799
0.867844
0.864863
0.868440
0.792742
0.720620
0.961423
0.891685
0.942945
1.124740
1.314878
1.242757
1.787543
2.040863
8.395910
25.197864
78.704953
153.520703
405.656695
456.813574
696.655512
702.822804
712.993741
639.966726
534.577966
366.216898
231.691003
105.552673
61.294436
30.524731
8.896589
4.349947
3.465414
3.230572
3.050566
2.880692
2.809763
2.601743
##ZVALUE=385
0.555515
0.595450
0.568628
0.580549
0.527501
0.543594
0.532866
0.415444
0.522733
0.460744
0.533462
0.494719
0.553727
0.361800
0.609756
0.626445
0.529885
0.414848
0.394583
0.457764
0.540614
0.567436
0.547767
0.659823
0.643730
0.748634
0.571609
0.688434
0.694990
0.762939
0.766516
0.744462
0.752807
0.866652
0.689626
0.704527
0.657439
0.769496
0.844598
0.859499
0.793934
0.896454
0.958443
0.729561
0.719428
0.624657
0.588894
0.754595
0.567436
0.622869
0.598431
0.804663
0.725985
0.552535
0.759959
0.806451
0.806451
0.904799
0.680685
0.734925
0.807643
0.771880
0.802875
0.783801
0.721812
0.971556
0.768900
1.024604
1.045465
1.127720
1.274943
1.238585
1.495481
1.518726
3.931522
13.266802
53.909421
119.471550
263.654590
403.791666
589.068532
702.998638
767.806768
750.661492
642.113686
513.653755
329.529643
215.784907
101.614594
50.192475
15.543699
6.203651
3.387928
3.334880
2.933741
2.963543
##ZVALUE=390
0.450611
0.348687
0.465512
0.504851
0.542998
0.622869
0.514984
0.553727
0.464916
0.585914
0.587702
0.558496
0.649691
0.537634
0.501871
0.444651
0.517964
0.703931
0.574589
0.565648
0.580549
0.566840
0.626445
0.617504
0.629425
0.583529
0.761747
0.733733
0.588894
0.812411
0.898838
0.924468
0.762939
0.946522
0.992417
0.847578
0.864863
0.964999
0.820756
0.925660
0.761747
0.885725
0.703931
0.910759
0.924468
0.765920
0.715852
0.677705
0.870824
0.739694
0.677705
0.706911
0.800490
0.847578
0.714660
0.685453
0.710487
0.516772
0.699759
0.839829
0.794530
0.902414
0.611544
0.800490
0.788569
0.838637
0.803471
1.046658
1.042485
1.150966
1.176596
1.096725
1.231432
1.222491
1.214743
1.280904
2.159476
7.390976
33.809543
80.765486
195.318460
315.020680
486.307740
616.630912
742.802024
766.191483
708.689690
612.417459
436.245799
301.089883
162.826777
86.510777
29.589534
10.501742
3.938675
3.285408
##ZVALUE=395
0.537634
0.520945
0.539422
0.324845
0.438690
0.477433
0.567436
0.542998
0.478625
0.538826
0.445843
0.622869
0.438690
0.549555
0.437498
0.426769
0.455976
0.480413
0.585914
0.527501
0.568628
0.428557
0.492930
0.636578
0.462532
0.508428
0.719428
0.732541
0.698566
0.650883
0.714660
0.730753
0.906587
0.789762
0.827909
0.773668
0.941753
0.774860
0.947714
0.790954
0.849962
0.896454
0.812411
0.877976
0.816584
0.768900
0.785589
0.712872
0.819564
0.853539
0.828505
0.735521
0.745654
0.908971
0.814795
0.856519
0.899434
0.665784
0.861883
0.846982
0.795722
0.750422
0.779629
0.897646
0.763535
0.892878
0.987649
0.941753
1.064539
1.227856
1.095533
1.107454
0.993609
1.141429
1.072884
1.219511
1.133680
1.189709
1.373887
4.845858
17.523766
63.420534
126.596689
258.958936
388.912559
565.289855
679.064989
752.894878
745.419860
638.557673
503.579974
321.554542
208.891630
99.826455
49.082637
16.024709
##ZVALUE=400
0.716448
0.703931
0.636578
0.514984
0.689626
0.430942
0.408888
0.480413
0.421405
0.434518
0.625849
0.444651
0.501871
0.504851
0.451803
0.523925
0.637770
0.420809
0.467896
0.481606
0.437498
0.635982
0.543594
0.584722
0.436902
0.412464
0.388622
0.672936
0.612736
0.699759
0.547767
0.712872
0.886917
0.867844
0.738502
0.915527
0.772476
0.780821
0.815988
0.769496
0.802875
0.879765
0.775456
0.898838
0.707507
0.755787
0.805855
0.797510
0.821948
0.691414
0.854731
0.820756
0.849962
0.719428
0.775456
0.734925
0.658631
0.808835
0.683665
0.628829
0.637770
0.705719
0.742674
0.838637
0.782609
0.727773
0.729561
0.869632
1.006722
1.186728
1.078844
1.033545
1.078844
1.138449
0.795722
1.074672
0.931621
1.113415
1.168847
1.176596
1.386404
3.072619
9.813905
37.694573
84.733963
188.324451
307.155848
482.221842
610.356927
721.184611
745.170712
665.286779
553.526878
376.183987
253.697634
129.457712
##END
