##TITLE=D5-3
##FORMAT=SPECTACLE-ASCII V-1.2
##DATA TYPE=ULTRAVIOLET SPECTRUM
##SECOND TYPE=ULTRAVIOLET SPECTRUM
##DATE=01/24/18
##TIME=13:01:25
##SPECTROMETER/DATA SYSTEM=SPECTACLE
##XUNITS=NM EM
##YUNITS=ENERGY
##YFACTOR=1
##FIRSTX=220
##LASTX=410
##NPOINTS=96
##3DDATA=Equidistant
##ZUNITS=NM EX
##FIRSTZ=210
##LASTZ=400
##ZPOINTS=39
##XYDATA=(Y..Y)
##ZVALUE=210
15.220642
15.359521
13.479590
12.057424
11.475682
10.103583
9.365678
8.360744
6.766915
5.596876
4.726648
3.539920
2.399683
2.493858
2.397895
2.169609
3.033876
2.155900
2.637506
2.882481
3.204942
3.098845
3.509521
3.572702
4.119873
4.767776
5.206466
5.588531
6.304979
7.052422
6.760955
8.849502
7.331967
8.664727
8.514524
8.067489
7.262826
7.352829
7.676482
7.283688
7.850528
7.504821
7.652640
7.711649
6.598830
6.752610
6.928444
6.171465
6.634593
6.392598
6.510615
7.050633
7.528663
6.659627
6.675720
7.545948
7.042885
6.647706
6.742477
5.959868
6.017685
6.324649
6.641746
5.956888
7.016659
6.341934
6.136894
5.721450
6.563663
8.328557
8.507967
8.673668
9.540915
10.311604
12.574792
11.712909
11.150837
10.693669
9.298921
9.986758
9.294748
7.932782
6.446838
6.423593
5.440712
5.538464
4.672408
4.997849
6.042719
6.166697
7.647872
11.040568
15.260577
17.638803
19.953847
26.458502
##ZVALUE=215
38.006902
38.354993
32.849908
24.909973
22.261739
17.525554
17.268658
17.506480
15.927553
14.467835
11.813641
9.536743
7.056594
5.280972
3.965497
3.419518
3.209710
2.863407
3.054738
2.760887
3.155470
3.376603
3.512502
4.165769
5.025864
5.583763
5.957484
6.815791
7.490516
8.405447
8.589625
8.958578
9.515882
9.945631
9.695888
9.882450
8.844733
9.944439
9.953976
8.705854
9.604692
9.175539
8.233786
7.718801
7.895827
8.899570
7.386804
7.939935
7.376671
8.254647
8.460879
8.943677
8.438826
7.898808
8.186698
8.111596
8.387566
8.480549
8.192658
7.982850
9.192824
7.454753
8.930564
7.118583
8.066893
7.872581
7.015467
7.594824
7.081628
7.853508
9.326935
9.679794
9.740591
10.809898
10.878444
11.353493
11.167526
10.107756
10.291934
9.165406
8.698702
7.209778
6.995797
7.053614
5.228519
5.550981
5.882978
4.251599
5.706549
4.675984
4.045963
4.335642
4.369617
5.681515
6.296635
10.219812
##ZVALUE=220
72.969794
77.133775
74.162483
70.310831
61.772466
48.543811
40.051937
28.212667
26.070476
24.062991
26.634932
24.915934
23.792982
20.327568
14.294982
10.774732
6.856918
4.829764
4.258752
3.161430
3.614426
4.472733
3.729463
4.304647
4.909635
5.704761
6.366968
7.110834
7.351637
8.408427
9.115934
10.238886
9.764433
10.305643
9.993911
10.180473
12.157559
11.551976
11.493564
10.071993
9.942651
10.606647
9.136796
9.355545
9.688735
9.259582
10.203719
9.803772
9.421706
10.232925
10.426641
10.419488
10.886788
11.014938
11.946559
10.854602
11.758804
11.091828
9.195805
10.725856
10.170937
10.451674
10.227561
10.050535
9.172559
9.363890
7.750988
9.332895
8.427501
10.000467
9.835958
9.951591
11.023879
11.022687
11.849999
12.161732
11.648536
10.031462
11.075735
10.422468
8.724928
7.949471
7.576942
6.367564
6.774664
5.768538
5.200505
5.450845
5.138516
5.033612
4.915595
5.220771
4.618764
4.449487
4.518628
4.338622
##ZVALUE=225
87.883472
97.270608
108.637810
127.435923
129.249692
124.501586
107.499957
84.860921
64.826608
53.566694
43.662786
41.471720
40.376782
39.953589
37.518740
33.692718
25.786757
19.658804
15.447736
9.629726
7.698536
4.455447
4.533529
4.360676
4.626513
5.417466
5.681515
6.370544
6.581545
7.057786
8.154511
8.925796
9.295940
8.481741
9.556413
9.249449
9.465814
9.462833
10.134578
9.869933
10.812879
9.188652
9.502769
10.616779
10.384917
10.293722
10.038614
11.373758
10.400414
10.635853
11.214614
11.299849
12.009740
12.522936
13.163686
12.670755
12.961626
12.751818
12.864470
12.648702
12.539625
12.196898
12.382865
11.032820
11.447668
10.408759
9.906888
10.547638
10.038614
10.482669
10.836720
12.389421
11.707544
12.034774
11.946559
11.924505
12.076497
10.816455
10.028481
9.339452
8.657575
8.300543
7.121563
6.970763
6.756783
6.316900
6.150603
5.753636
5.049706
5.304813
5.238652
5.485415
4.473925
4.886985
4.857779
4.500747
##ZVALUE=230
58.330894
62.644482
92.290640
144.636631
180.069804
216.892958
223.498940
216.676593
196.317434
160.442591
111.657977
84.866881
64.273477
60.318708
60.368776
62.472820
62.319636
58.270693
51.509738
41.800737
31.653643
21.314621
13.230443
8.914471
5.730987
5.163550
5.401969
4.925728
5.706549
6.499887
6.673932
6.293654
6.410480
7.476807
8.112788
7.248521
7.921457
9.309649
8.343458
8.812547
8.596778
9.224415
9.731650
9.834766
9.794831
10.189414
10.070801
9.644628
10.606647
10.849833
12.149811
12.495518
11.833906
13.158917
14.534593
12.498498
12.848973
12.353659
12.936592
12.423992
12.316704
12.243986
13.370514
11.156797
11.547804
12.467504
11.594892
11.954904
11.161566
10.881424
10.952950
12.670755
12.646914
13.205409
13.640523
12.953877
12.443662
12.075901
10.928512
9.772778
9.337664
8.985996
8.360744
7.440448
7.111430
6.533861
6.820560
5.863905
6.187558
6.080866
6.261468
6.053448
5.684495
6.266832
5.670786
5.522966
##ZVALUE=235
14.647841
16.184449
41.839480
70.784688
138.011575
198.681951
270.514488
329.691768
355.847478
351.207852
301.478505
246.137977
187.563896
127.702951
95.855594
80.290437
77.827573
89.349747
91.006756
91.961622
88.140965
75.312853
53.776503
38.708448
23.202896
16.338825
9.461641
8.339882
6.322861
6.479621
5.912781
6.138682
7.140636
5.817413
6.916523
7.908940
6.873608
7.722974
8.223653
8.919835
9.078979
9.254813
9.027719
8.813739
9.327531
9.353757
9.570718
10.513663
10.626912
10.450482
9.705424
10.841489
10.893941
11.577606
11.721849
11.540651
11.122823
11.743903
11.610985
11.369586
11.986494
11.719465
11.804700
11.661649
12.864470
10.223985
11.575818
11.717677
12.455583
10.938644
11.810660
12.635589
13.841987
14.678836
13.252497
14.108419
13.774633
13.227463
12.714863
10.988712
11.495948
9.935498
8.984804
9.152889
8.016825
8.281469
8.449554
7.769465
7.144809
7.947683
7.568598
6.916523
7.123947
6.193519
6.442666
7.120967
##ZVALUE=240
2.563000
2.580881
6.135702
15.177727
41.512847
81.928968
151.332617
240.301490
356.780887
434.801579
494.972467
493.988991
457.065701
371.325612
289.751887
190.005898
140.921474
108.022690
98.893642
106.716752
118.157864
123.551488
121.018887
110.152960
86.145997
68.486929
45.029521
32.434464
20.831823
13.383627
10.609627
7.861853
8.498430
8.703470
7.556677
8.290410
8.280873
9.592772
8.081794
8.701682
10.046959
9.162426
10.093451
9.816885
10.172725
9.356737
9.046793
11.114478
9.847879
9.876490
10.370612
10.440946
11.928678
9.643435
10.747910
11.170506
10.759830
10.838509
11.775494
10.890961
11.772513
11.169910
11.544824
12.434721
10.362864
10.636449
12.149811
10.721684
10.442734
12.912750
14.021993
12.000799
14.876723
13.498664
14.111996
13.834834
13.729930
13.142824
12.331605
12.091994
11.266470
10.639429
9.714961
9.806752
8.801818
8.766651
8.416772
7.948875
9.342432
8.638501
8.113980
7.015467
7.805824
7.569790
7.411838
7.440448
##ZVALUE=245
1.759529
1.712441
1.577735
1.940727
4.295707
9.341836
31.300783
68.596601
148.152709
239.446759
370.743871
468.091965
537.707806
578.159690
557.702780
468.349457
380.664468
265.738964
187.979937
127.074718
103.779435
100.096464
117.897987
133.806467
136.191845
129.040480
115.180612
95.787644
75.337887
55.398941
39.836764
22.800565
16.932487
10.068417
9.940863
10.536909
9.007454
9.015799
9.508729
9.503961
8.972883
10.274649
10.616779
9.609461
10.468960
10.321736
11.046529
10.868907
10.616779
10.682940
10.077953
10.287762
10.221601
10.313988
10.412931
10.289550
10.503531
9.444952
10.180473
10.077953
9.961724
10.088682
9.909868
10.328889
9.870529
10.331869
9.461641
9.912848
10.614991
10.429621
10.939837
10.263920
11.976957
12.093782
12.695789
11.200905
10.531545
10.895729
9.858608
11.206865
9.675622
9.130836
7.515550
8.209944
7.303953
7.174611
7.111430
7.257462
7.206798
6.485581
6.763935
6.429553
7.050633
6.163716
6.571412
6.277561
##ZVALUE=250
1.807809
1.891851
1.858473
1.698732
1.635551
1.887679
2.604723
6.297827
25.695562
52.750707
131.008625
218.832493
324.931741
473.410487
570.423007
649.240613
648.097992
589.092970
499.737859
343.322754
241.487622
159.491897
103.079677
96.552968
108.099580
123.344660
137.571692
141.824484
140.025616
124.832988
103.096962
85.183978
61.872602
38.468838
27.026534
16.328692
12.456775
10.156631
9.964705
9.959936
10.231733
9.606481
9.930730
9.043813
9.556413
9.845495
9.994507
10.106564
10.333657
10.293722
10.408759
10.363460
10.534525
9.563565
10.092854
9.811521
9.945631
10.335445
9.959936
9.994507
9.535551
9.648800
8.049607
7.790923
8.300543
9.244680
9.094477
8.571744
9.584427
8.799434
9.427667
9.582639
9.786487
9.611845
9.786487
8.871555
9.174943
9.383559
8.056760
8.415580
7.875562
6.935596
7.068515
6.053448
6.357431
6.251931
5.950928
5.435944
6.181598
5.131960
5.379915
5.205870
5.174875
5.161762
5.815625
5.211830
##ZVALUE=255
1.282692
1.361966
1.411438
1.481771
1.702905
1.639724
1.551509
2.056956
1.988411
3.373623
15.485883
40.023923
84.423423
182.454586
296.873450
459.230542
573.479533
691.272020
724.859834
695.269704
599.801540
483.794808
314.272046
201.365948
114.730597
88.234544
92.262626
107.303858
130.793452
144.866705
150.728822
147.750974
132.696629
107.238889
86.398721
56.100488
40.958524
23.709536
15.650988
11.549592
10.223985
10.757446
9.861588
10.403991
10.089874
9.876490
10.023713
10.611415
9.696484
10.178685
10.354519
10.123849
10.042787
9.606481
9.626746
9.170771
9.705424
9.299517
8.942485
9.195805
8.969903
8.531809
7.942915
7.530451
8.198619
7.966757
7.560849
6.803870
7.134676
7.493496
7.308722
8.597970
8.270741
8.192658
7.684827
8.074641
7.896423
7.517934
7.838607
6.413460
5.831718
5.982518
6.119609
5.251765
5.286932
5.041957
5.054474
4.635453
4.402995
4.668832
4.229546
4.730821
3.859997
4.480481
4.447699
4.171729
##ZVALUE=260
1.304746
1.391768
1.359582
1.519918
1.303554
1.249909
1.514554
1.551509
1.643896
1.391768
1.407862
2.272725
5.870461
26.375651
58.513880
146.296620
244.714618
407.105684
540.709496
713.585615
792.697668
799.930692
711.902976
586.506724
400.180817
277.901888
159.381628
107.188821
77.993870
84.903836
103.118420
131.122470
146.810412
158.327818
154.265761
138.092637
115.921497
86.080432
64.637661
40.913820
27.789474
17.345548
12.651682
11.100769
11.057854
10.575652
10.397434
9.671450
10.497570
10.379553
11.183619
10.129809
9.946823
10.026693
9.777546
10.468960
9.695888
9.834766
8.756518
9.670854
9.158850
8.536577
7.799864
7.938743
8.040667
7.191896
7.222891
7.094741
7.537603
6.991625
7.481575
7.177591
7.086992
6.916523
7.660985
7.001758
7.081628
6.125569
6.547570
5.267859
5.126595
4.884601
4.612803
4.340410
4.559755
4.069805
4.603863
4.052520
4.076958
4.405975
3.870726
3.935695
3.736615
4.038811
3.681779
3.619790
##ZVALUE=265
0.979900
1.317859
1.074672
1.158714
1.228452
1.133680
1.272559
1.335740
1.410842
1.509786
1.571774
1.637936
1.832843
1.781583
3.508925
17.183423
42.483807
113.445520
202.393532
380.554795
544.656515
693.308711
851.580501
874.887705
800.799727
690.794587
506.510735
367.164612
209.468007
129.832625
84.903836
70.509911
81.932545
115.597844
137.075782
155.216455
160.072446
153.056979
138.068795
111.841559
89.975595
62.364936
43.737888
27.469993
19.138455
13.957620
12.009740
11.141896
11.488795
11.005998
11.555552
12.149811
11.652708
11.461973
11.127591
10.853410
10.657907
11.111498
10.462999
9.278655
9.628534
9.092689
8.893609
7.973909
7.727742
8.259416
7.809997
8.012652
7.496476
7.073879
7.107854
7.318854
6.824732
7.475615
7.425547
6.558895
6.111860
5.762577
5.846620
4.879832
5.235672
5.329847
4.940629
4.514456
4.336834
4.469752
3.687739
3.886819
4.018545
3.552437
3.779531
3.719926
3.473759
3.660917
3.150702
3.338456
##ZVALUE=270
1.028776
1.089573
1.109838
1.097918
1.087785
1.157522
0.964999
1.086593
1.268983
1.197457
1.361966
1.208782
1.456738
1.431704
1.665950
2.001524
2.298951
8.281469
23.073554
79.361796
160.938501
287.604928
512.052774
688.009858
868.752599
931.505561
912.341475
814.285874
628.677607
477.437973
330.373049
177.868605
103.250742
63.341856
63.000917
87.933540
111.870766
140.312910
155.316591
164.954662
159.478784
139.902830
119.457841
87.189674
65.507889
41.520000
29.617548
20.351410
16.140938
13.762712
13.294816
12.537837
12.987852
12.584925
12.171865
12.296438
11.894703
11.134744
11.566877
10.715723
9.767413
10.304451
9.561777
8.609891
8.777976
8.163452
8.048415
7.600784
7.977486
7.644892
7.316470
7.936954
7.438660
7.490516
7.281899
6.558895
6.806850
6.117821
5.739927
5.272627
5.368590
4.827976
4.561543
4.579425
4.564524
3.802776
4.185438
3.757477
3.892779
3.662705
3.565550
3.719926
3.763437
3.463626
3.558993
3.060699
##ZVALUE=275
1.039505
0.963807
0.974536
1.153946
1.109838
1.142621
0.992417
1.206994
1.217723
1.120567
1.099706
1.272559
1.173615
1.531839
1.368523
1.262426
1.481771
1.741648
1.791716
3.581643
13.533831
39.988756
120.726824
232.422948
440.749526
611.180663
802.731514
916.587710
958.696604
906.800628
792.695880
581.054688
410.458446
222.032666
129.694939
64.559579
51.943660
64.030886
83.637834
114.985704
135.403872
156.457424
162.394643
154.715776
141.728520
111.954808
91.427565
64.799786
47.871470
30.141473
21.967888
16.028881
13.410449
12.861490
12.727976
12.034774
12.678504
11.890531
11.775494
11.703968
10.992885
11.381507
10.378957
9.128451
9.707808
8.967519
8.608699
8.163452
8.093715
8.511543
7.920861
7.621646
7.637739
7.832646
7.079840
6.846786
6.885529
6.269813
6.140471
5.404949
5.581975
4.698634
4.816651
4.560947
4.426837
4.364848
4.295707
3.910661
3.778934
3.452897
3.605485
3.646612
3.549457
3.580451
3.351569
3.603697
##ZVALUE=280
0.945926
0.955462
0.824928
0.867844
0.990629
1.116991
1.027584
1.131892
1.171827
0.929832
0.837445
1.136661
1.048446
1.055598
1.192689
1.079440
1.303554
1.384616
1.290441
1.677871
1.758933
2.171993
8.556843
29.026866
92.717409
173.163414
338.804722
500.067472
724.236965
869.526863
965.093970
965.733528
864.863992
659.736991
486.460924
278.342962
168.069601
78.236461
50.174594
46.726465
59.953928
84.930658
109.429955
133.644938
150.150657
156.955719
152.850747
135.646462
114.037991
85.437894
64.997673
43.020844
30.459762
19.968748
15.462637
12.874603
12.095571
11.182427
10.764599
10.429621
10.191798
9.993911
9.859800
9.197593
9.082556
8.507967
8.069873
7.928610
8.079410
7.767677
8.018613
7.817745
7.859468
7.550716
7.628798
7.036924
6.840825
6.112456
6.111860
5.322695
5.404949
5.453825
4.746914
4.740953
4.877448
4.294515
4.102588
4.060864
3.892779
3.879666
3.578663
3.639460
3.688931
3.750920
3.360510
3.495812
##ZVALUE=285
0.878572
0.862479
0.830889
1.012683
0.938773
0.986457
0.966787
1.088977
0.978708
1.084805
0.884533
0.888705
0.987649
1.106858
1.131892
1.179576
1.260638
1.167655
1.391768
1.346469
1.541972
1.538992
1.511574
1.863837
4.428625
14.347434
49.841404
105.815530
233.704448
383.197665
555.705428
790.817738
917.561650
990.450978
935.271978
761.741996
596.835613
369.321704
233.177543
110.688806
60.773492
35.973787
38.147569
55.930614
77.254772
106.267929
126.168728
144.263506
151.716471
148.096681
134.691000
113.073587
88.793635
62.339902
44.851899
27.169585
18.521547
12.735724
10.759830
9.880662
9.230971
9.087920
8.547902
8.191466
8.233786
8.223653
8.442998
7.762909
7.935762
8.045435
7.520914
7.811785
7.268786
7.758737
7.345676
6.801486
6.593466
6.307960
6.244779
5.385876
5.684495
5.241632
5.339980
5.058646
4.781485
4.490614
4.618764
4.296899
4.206896
4.225969
4.024506
4.100800
3.923774
4.014969
3.762841
3.764629
##ZVALUE=290
0.881553
0.917912
0.688434
0.748634
0.798702
0.787973
0.909567
0.906587
0.820756
0.959635
0.861883
1.098514
1.104474
0.980496
1.088977
1.098514
1.084805
0.982881
1.024604
1.325607
1.306534
1.131892
1.294613
1.546741
1.646876
1.637936
2.256632
5.835891
26.307702
64.506531
133.391619
288.358927
455.442667
706.667900
866.015553
990.272760
984.110832
853.965878
695.371628
464.715958
305.037498
150.833726
79.716444
34.585595
25.737882
34.314990
48.574805
72.379708
92.220902
120.334625
134.852529
144.191980
142.144561
127.436519
109.147429
80.042481
60.331821
39.293766
27.208924
16.509891
11.629462
8.755922
7.810593
7.609725
6.858706
7.255673
6.610751
7.065535
6.900430
7.029772
7.079840
7.353425
7.299781
6.991625
7.012486
6.404519
6.403923
6.313920
5.870461
5.753636
5.050898
5.537868
5.122423
5.195737
4.803538
4.419684
4.668832
4.002452
4.239678
4.177690
3.908873
3.904700
3.734827
4.118681
3.453493
3.721714
##ZVALUE=295
0.784993
0.640750
0.819564
0.805855
0.852942
0.674725
0.682473
0.851750
0.824928
1.026988
0.918508
0.845790
0.823736
0.911951
0.909567
0.888705
0.829697
0.949502
1.125932
0.996590
1.230836
0.967979
1.279712
1.203418
1.319647
1.396537
1.695752
1.788735
1.706481
2.730489
9.195805
40.034652
92.710853
225.819945
374.751687
606.750846
778.004527
937.182903
989.470482
911.877751
783.464909
560.591817
384.774804
204.778910
111.643672
42.618513
23.329854
20.516515
28.709769
47.539473
64.896941
91.768503
109.692812
128.108859
134.335756
132.050514
121.286511
100.017786
80.491900
55.808425
39.470792
24.004579
16.586781
10.725856
8.232594
6.762743
6.553531
6.504655
6.118417
6.507635
6.113648
6.336570
6.374717
6.531477
6.526709
6.389618
6.229877
5.884767
5.572438
5.199909
5.501509
5.433559
4.804730
4.950762
4.857779
4.654527
4.400611
4.559755
4.008412
4.029870
4.200935
4.141927
4.062653
3.904700
3.639460
3.744960
##ZVALUE=300
0.893474
0.740886
0.809431
0.895858
0.842810
0.720620
0.855923
0.696778
0.818968
0.758767
0.809431
0.670552
0.841618
0.943542
0.980496
0.852942
0.856519
0.921488
1.076460
1.028776
1.105666
0.960827
1.085997
1.103878
1.325607
1.163483
1.413822
1.261830
1.356602
1.410842
1.697540
2.043843
5.695820
20.609498
72.315931
143.357515
304.282904
467.295647
704.924464
853.718519
970.248580
976.483822
849.635601
700.133443
464.705825
296.254754
147.785544
78.476667
30.525923
17.122626
17.921925
25.940537
41.901469
58.193803
83.377957
101.981759
121.069551
127.597451
126.550794
118.646622
98.027587
79.412460
55.522919
40.377975
24.180412
15.979409
10.449886
7.613897
6.385446
5.974770
6.020665
5.844831
6.043911
5.922914
5.957484
5.856752
5.458593
5.530715
5.345941
5.554557
4.976988
5.085468
4.692674
4.823804
4.708767
4.334450
4.215837
4.435778
4.238486
3.784895
3.966689
4.071593
3.865957
3.468990
3.790855
3.866553
##ZVALUE=305
0.689626
0.691414
0.663996
0.768900
0.822544
0.674725
0.766516
0.755787
0.594854
0.768900
0.794530
0.912547
0.721812
0.810623
0.899434
0.913739
0.792742
0.880957
0.615716
0.854731
0.789762
0.880957
0.963807
0.852942
1.145601
1.065731
1.112819
1.199841
1.248717
1.265407
1.309514
1.439452
1.614690
1.699924
2.730489
13.890862
40.224791
115.932822
212.881565
400.492549
569.187999
788.717866
909.366608
971.111655
908.315778
727.396607
568.077564
358.047485
223.064423
99.228621
48.633814
18.699765
12.802482
16.573668
24.118423
39.360523
55.464506
77.949762
95.668435
113.381743
120.690465
119.182467
111.011863
93.261003
74.882507
52.193999
37.644506
22.589564
15.201569
9.675622
7.173419
6.094575
5.888939
5.497932
5.510449
5.199909
5.284548
4.811883
4.652739
4.503727
4.524589
4.733801
4.398823
4.163980
4.458427
4.273653
4.003644
4.121661
3.865957
3.469586
3.635883
3.442764
3.388524
3.518462
3.628731
3.426671
##ZVALUE=310
0.710487
0.703931
0.870824
0.842810
0.673532
0.613928
0.574589
0.792742
0.694990
0.796914
0.753999
0.685453
0.675917
0.759959
0.754595
0.829697
0.920892
0.943542
0.870824
0.673532
0.719428
0.768900
0.915527
0.797510
0.907779
0.869632
1.016855
1.006722
1.019835
1.191497
1.190901
1.181960
1.233816
1.214743
1.540780
1.701713
1.837611
6.303787
20.286441
68.734884
137.732625
291.817784
445.943475
665.491819
815.761685
933.998823
932.756662
827.391744
689.170957
466.721654
310.750604
154.391527
80.725551
28.809905
13.908744
10.469556
13.801455
21.868944
32.627583
50.177574
67.391992
88.840723
102.271438
112.836957
113.797784
104.826689
93.061924
71.227551
54.003000
34.510493
24.169683
14.149547
9.576678
6.341934
5.630851
4.851818
4.515648
4.342794
4.264712
4.173517
3.992915
4.039407
3.807545
3.812909
3.779531
3.556609
3.687739
3.502965
3.510714
3.319979
3.222823
3.462434
3.172755
3.200769
3.049970
2.914667
##ZVALUE=315
0.688434
0.704527
0.827909
0.674725
0.758767
0.828505
0.674725
0.599623
0.736713
0.814795
0.780821
0.665784
0.735521
0.822544
0.759959
0.864863
0.705719
0.761747
0.798702
0.904799
0.805855
0.877976
0.923872
0.796914
0.826716
0.879765
1.053810
1.051426
0.900626
0.891685
1.024604
1.092553
1.084805
1.096725
1.212955
1.270771
1.475811
1.522899
1.706481
3.106594
10.513663
43.428540
97.414851
222.286582
362.339616
589.482784
735.450983
874.283910
920.161605
864.582658
749.532580
544.459820
386.174917
204.337835
110.289454
40.658712
18.128753
9.270906
9.441972
13.047457
18.567443
31.514764
43.985844
64.560771
81.546903
98.276734
105.945468
106.551647
99.614859
83.271861
68.191886
48.505664
35.618544
20.629764
13.393760
8.036494
5.746484
4.267693
3.905892
3.634691
3.620982
3.240705
3.182888
3.072619
2.984405
3.120899
3.076792
2.938509
2.984405
3.020763
2.881885
2.769828
2.841949
2.969503
2.809763
2.784729
##ZVALUE=320
0.705719
0.603795
0.642538
0.759959
0.604987
0.755787
0.733733
0.654459
0.573993
0.683665
0.612736
0.664592
0.737906
0.605583
0.539422
0.604987
0.793934
0.706911
0.805855
0.743866
0.728965
0.874996
0.821948
0.807643
0.922680
0.822544
0.825524
0.929832
0.833869
0.866652
1.011491
0.902414
0.864863
0.938773
1.032948
0.925660
1.126528
1.366735
1.290441
1.410842
1.585484
1.953840
4.805923
24.506450
63.573718
166.313648
277.506709
464.679599
626.609921
811.359882
892.404914
886.312723
805.614591
626.188517
457.952619
258.684754
148.355961
64.329505
29.351711
10.832548
7.720590
8.675456
11.162758
17.163754
25.251508
41.888952
56.507587
75.049996
89.728832
99.400878
99.464655
92.290640
82.001686
62.527657
47.597885
30.367970
20.567775
11.630654
7.747412
4.707575
3.698468
3.120899
2.658963
2.787709
2.470613
2.422929
2.464652
2.304912
2.421737
2.374649
2.443790
2.273917
2.398491
2.397895
2.457500
2.474785
##ZVALUE=325
0.626445
0.586510
0.701547
0.632405
0.767708
0.742674
0.691414
0.651479
0.620484
0.663996
0.635982
0.813603
0.609756
0.718832
0.570416
0.591874
0.701547
0.593662
0.661612
0.835657
0.730753
0.843406
0.770688
0.762939
0.741482
0.865459
0.813603
0.818968
0.773668
0.942945
0.813603
0.998974
0.710487
1.086593
0.986457
0.977516
1.087785
1.159906
1.141429
1.309514
1.227856
1.256466
1.515746
1.542568
3.043413
16.252398
43.249726
114.554763
205.760002
384.074450
541.956425
733.804703
839.563608
881.180763
824.967623
658.254623
504.478812
312.525630
191.766620
83.817840
40.475726
13.681650
7.778406
6.908774
7.518530
10.546446
15.197992
26.233792
37.929416
55.597425
70.441961
84.545612
91.675520
93.465447
87.255836
72.102547
59.032440
41.395426
29.678941
17.460585
10.812879
6.111860
4.260540
3.330708
2.804995
2.419949
2.357960
2.269745
1.894832
2.106428
2.097487
2.027750
1.912713
1.864433
2.044439
2.165437
##ZVALUE=330
0.560880
0.618696
0.513792
0.678897
0.672936
0.493526
0.671744
0.716448
0.682473
0.676513
0.684857
0.715852
0.656843
0.787973
0.680685
0.568628
0.704527
0.745654
0.607967
0.637770
0.592470
0.667572
0.780821
0.738502
0.739694
0.692606
0.871420
0.832677
0.760555
0.831485
0.825524
0.772476
0.902414
0.859499
0.991821
0.906587
0.925660
1.116991
0.964999
1.080632
1.042485
1.179576
1.150966
1.227856
1.298785
1.610518
1.881719
7.138848
22.723675
76.851845
149.691701
301.286578
451.968908
656.895638
791.482925
878.672600
851.247907
728.240609
580.002666
373.409986
239.331722
111.386776
55.627823
20.321608
9.246469
6.289482
5.970597
6.739497
8.918643
15.231967
22.820830
35.791993
48.901439
66.548586
77.536702
86.732507
86.547732
80.354810
69.574714
53.573847
39.664507
25.320649
17.690659
10.707974
7.133484
4.246831
3.170967
2.272725
2.342463
2.074838
1.972914
1.820922
1.818538
1.615882
1.897812
1.796484
##ZVALUE=335
0.533462
0.568628
0.595450
0.643730
0.638962
0.616908
0.548959
0.811815
0.681877
0.608563
0.592470
0.540614
0.702739
0.580549
0.551939
0.747442
0.652671
0.703931
0.542998
0.624657
0.721812
0.831485
0.804663
0.669956
0.695586
0.716448
0.575781
0.728965
0.757575
0.754595
0.757575
0.722408
0.799894
0.712872
0.695586
0.857711
0.883937
0.986457
0.821948
0.938773
0.840425
1.002550
1.151562
1.086593
1.223683
1.128912
1.325607
1.331568
1.456738
3.400445
11.374950
46.980977
100.754499
226.008892
364.526510
572.443008
724.205971
842.396617
856.964588
771.249533
648.242831
443.214774
300.296545
154.834986
81.167817
28.280616
12.148619
6.285906
5.389452
5.559921
6.299615
8.843541
12.902617
22.635460
32.906532
49.010515
60.745478
73.447824
79.221725
79.961419
75.300932
62.218904
51.996708
38.093925
27.889609
17.354488
11.652708
6.629825
4.421473
2.955794
2.337694
2.073646
1.929998
1.846552
1.961589
1.783967
##ZVALUE=340
0.381470
0.504851
0.535846
0.506639
0.525713
0.565648
0.492930
0.573993
0.548959
0.636578
0.624657
0.615716
0.416636
0.627637
0.588894
0.616908
0.549555
0.643730
0.486970
0.547767
0.553727
0.615716
0.589490
0.619888
0.669956
0.591874
0.729561
0.634789
0.629425
0.687838
0.760555
0.701547
0.774860
0.757575
0.752807
0.826716
0.773668
0.834465
0.686646
0.729561
0.828505
0.679493
1.024604
0.955462
1.045465
0.950694
0.989437
1.068711
1.078844
1.348853
1.354814
1.922846
5.727410
28.848648
71.049929
174.663663
293.784738
481.774807
629.082918
778.757930
828.831792
789.096951
691.727996
510.350466
358.671546
189.096928
103.806853
41.183829
16.702414
6.541610
5.416870
5.089641
5.211830
5.973577
7.964969
13.682842
20.234585
32.308698
43.270588
58.624744
68.389773
74.247718
75.074434
69.583654
62.310696
49.622655
39.013624
25.984645
18.537641
10.784864
7.174611
4.011989
2.895594
2.149940
1.893640
1.924634
##ZVALUE=345
0.563860
0.544786
0.570416
0.643730
0.546575
0.640750
0.494719
0.472665
0.539422
0.618696
0.463724
0.538826
0.657439
0.615716
0.625849
0.511408
0.611544
0.619888
0.687838
0.598431
0.575781
0.602603
0.618696
0.672936
0.591874
0.689626
0.669956
0.638962
0.548959
0.686646
0.910759
0.760555
0.736713
0.683665
0.924468
0.784993
0.713468
0.731945
0.704527
0.824928
0.682473
0.698566
0.888705
0.854731
0.926852
0.952482
0.913739
0.866652
1.133680
1.062751
1.164675
1.185536
1.210570
1.594424
2.903938
17.402768
49.346685
129.270554
223.952532
395.660996
545.246601
722.922683
806.149840
819.141865
750.489831
575.616956
427.668691
252.725482
141.240954
55.622458
25.696754
8.943677
5.879998
5.224943
4.675984
4.620552
5.390644
7.525682
10.698438
19.392967
28.204918
41.284561
52.110553
61.282516
67.190528
69.040656
66.355467
57.641864
49.330592
36.459565
27.229786
16.831756
11.419654
6.706715
4.408956
3.109574
##ZVALUE=350
0.536442
0.471473
0.509620
0.522733
0.567436
0.529885
0.612736
0.465512
0.556707
0.685453
0.678897
0.602603
0.642538
0.724792
0.577569
0.580549
0.655651
0.784993
0.641942
0.545979
0.563860
0.516772
0.637770
0.738502
0.755787
0.534654
0.759959
0.718832
0.733733
0.799894
0.760555
0.637770
0.840425
0.681877
0.715852
0.670552
0.761747
0.919700
0.754595
0.632405
0.880957
0.935793
0.850558
0.938773
0.841618
1.025796
0.893474
0.825524
0.897646
1.009703
1.148582
0.932813
1.132488
1.229644
1.289845
1.415610
1.916885
9.377599
28.511882
87.420940
165.035725
323.856473
464.388728
642.553568
750.996470
805.354714
766.177773
632.784963
485.920906
288.503766
175.123811
79.995990
36.916733
11.299849
6.356835
4.614592
4.380941
4.278421
4.055500
5.036592
6.507635
11.128783
16.190410
25.394559
33.693910
44.902563
53.854585
61.008930
62.972903
60.948730
55.295825
44.461489
35.299659
24.404526
17.392635
11.260509
##ZVALUE=355
0.506639
0.564456
0.553727
0.486970
0.558496
0.648499
0.612736
0.422597
0.604987
0.545979
0.594854
0.546575
0.411868
0.663996
0.787973
0.695586
0.711679
0.516772
0.582933
0.706911
0.723600
0.506639
0.564456
0.567436
0.645518
0.806451
0.691414
0.591874
0.678897
0.569820
0.794530
0.629425
0.615716
0.754595
0.630617
0.716448
0.568628
0.653863
0.673532
0.802875
0.729561
0.826716
0.750422
0.734925
0.791550
0.697970
0.856519
0.870824
0.901818
0.929832
1.047850
0.974536
0.947714
0.936985
1.055598
1.132488
1.347661
1.245737
1.515746
3.932714
14.710426
58.986545
118.578672
242.174864
373.378992
564.113855
688.371658
780.783892
776.969790
665.078759
535.836816
349.540710
220.461488
97.549558
46.345592
14.620423
6.744862
4.880428
4.485846
3.984571
3.847480
3.802776
4.381537
6.290674
8.534789
14.586449
20.665526
29.604435
38.331747
48.355460
54.286718
57.411790
56.065917
50.473809
43.909550
33.348799
##ZVALUE=360
0.521541
0.662804
0.607967
0.500679
0.515580
0.631809
0.624657
0.512600
0.626445
0.576973
0.457764
0.661612
0.687838
0.574589
0.635982
0.665784
0.551939
0.503659
0.519753
0.604987
0.671744
0.646710
0.580549
0.729561
0.644922
0.697970
0.741482
0.608563
0.610948
0.788569
0.578761
0.683665
0.632405
0.789762
0.722408
0.828505
0.670552
0.576973
0.754595
0.837445
0.614524
0.801682
0.631809
0.804663
0.714660
0.776649
0.844598
0.869632
0.916719
0.857711
0.904799
0.970960
0.948906
0.865459
0.992417
1.081824
1.087785
1.261830
1.148582
1.352429
1.493692
1.966953
6.344914
29.639602
72.568655
179.804564
293.095708
467.212796
600.041747
726.465583
756.703019
697.830915
593.575835
410.469770
273.610950
133.447647
68.494678
25.432706
10.702610
5.097985
4.498959
4.091859
3.804564
3.530979
3.707409
3.979802
4.758835
7.201433
10.493994
16.873479
23.985505
34.131408
41.133761
48.607588
51.403642
52.318573
##ZVALUE=365
0.512600
0.609756
0.473857
0.520945
0.517964
0.509620
0.572801
0.662804
0.648499
0.501871
0.580549
0.648499
0.592470
0.660419
0.589490
0.537634
0.704527
0.646710
0.530481
0.545979
0.645518
0.403523
0.641942
0.500679
0.677705
0.608563
0.740886
0.560880
0.694990
0.662804
0.563860
0.556707
0.747442
0.717640
0.639558
0.591874
0.648499
0.878572
0.587702
0.791550
0.796914
0.685453
0.760555
0.653863
0.737906
0.794530
0.799894
0.730753
0.881553
0.858903
0.840425
1.032948
0.912547
1.006722
0.844598
0.889897
0.891685
0.971556
1.195669
1.097918
1.176000
1.231432
1.384616
1.736879
2.655983
13.380647
40.174723
114.541650
208.437443
372.933745
507.057905
655.953884
719.774961
707.543492
628.840923
463.873744
330.300927
181.027651
98.156929
36.821961
15.088916
5.537868
4.582405
3.694892
3.662705
3.449917
3.069639
3.106594
3.271699
3.956556
5.451441
9.450912
13.420582
20.732880
27.412772
35.714507
##ZVALUE=370
0.506639
0.567436
0.613928
0.561476
0.476837
0.454783
0.560880
0.493526
0.694990
0.495911
0.503659
0.645518
0.491738
0.567436
0.550747
0.577569
0.530481
0.546575
0.639558
0.663996
0.626445
0.770688
0.696778
0.534654
0.472665
0.658631
0.560880
0.484586
0.558496
0.861883
0.625849
0.656843
0.609756
0.660419
0.623465
0.714660
0.471473
0.615716
0.651479
0.678897
0.744462
0.649691
0.608563
0.788569
0.618696
0.618696
0.571609
0.592470
0.788569
0.696778
0.853539
0.771880
0.862479
0.816584
0.856519
0.810623
0.737906
0.962615
0.905991
1.012683
1.126528
0.999570
1.102686
1.187921
1.346469
1.380444
1.946688
5.850792
29.894710
73.785782
177.075863
285.425782
452.206731
581.601858
694.825649
716.409683
649.863482
539.425611
365.687013
241.200924
112.812519
58.120489
21.148920
9.165406
4.374981
3.783703
3.489852
3.383756
3.036857
2.946854
2.800822
3.037453
3.470778
4.973412
7.964969
11.399984
##ZVALUE=375
0.616908
0.676513
0.497699
0.510812
0.610948
0.576973
0.614524
0.391603
0.458956
0.421405
0.404716
0.594854
0.537634
0.452995
0.543594
0.511408
0.767708
0.701547
0.557899
0.674725
0.596642
0.504851
0.678897
0.591874
0.573993
0.402927
0.730753
0.661612
0.510812
0.609756
0.493526
0.626445
0.683665
0.615716
0.533462
0.798702
0.653863
0.669956
0.602603
0.597835
0.818968
0.624657
0.652671
0.701547
0.692606
0.653863
0.650883
0.738502
0.599623
0.673532
0.746846
0.635982
0.754595
0.681877
0.728965
0.787973
0.887513
0.737906
0.862479
0.737906
0.658631
0.830889
1.013875
1.075864
1.163483
1.092553
1.092553
1.353621
1.526475
3.804564
12.756586
46.395659
101.089478
228.351951
354.097486
534.808636
644.950867
714.634657
699.916482
585.961938
463.427901
291.585922
182.713866
84.717870
42.009950
13.346672
5.802512
3.629923
3.499985
3.199577
3.027916
2.946854
2.659559
2.741814
2.717972
3.028512
##ZVALUE=380
0.457764
0.353456
0.657439
0.546575
0.597835
0.651479
0.679493
0.614524
0.528693
0.537634
0.451803
0.553727
0.495911
0.496507
0.511408
0.318885
0.591874
0.483990
0.575781
0.510812
0.604987
0.611544
0.559688
0.510812
0.579953
0.627637
0.518560
0.569820
0.532866
0.756979
0.586510
0.758767
0.673532
0.773668
0.658631
0.719428
0.605583
0.481606
0.625849
0.774860
0.802875
0.676513
0.675917
0.684857
0.766516
0.558496
0.668764
0.693798
0.774860
0.735521
0.716448
0.633597
0.727773
0.766516
0.675917
0.735521
0.670552
0.636578
0.777841
0.915527
0.742674
0.631809
0.907779
0.933409
0.938773
0.944734
0.850558
1.042485
1.149774
1.293421
1.396537
2.123713
7.785559
34.655929
77.999830
174.868703
288.090706
474.035740
599.146485
700.340867
708.125830
616.621971
514.013767
365.995765
247.662663
124.479532
64.081550
22.620559
9.020567
4.196763
3.393888
3.110766
3.109574
2.929568
2.816916
2.625585
##ZVALUE=385
0.425577
0.506639
0.490546
0.481606
0.477433
0.633597
0.439882
0.520945
0.631809
0.508428
0.563860
0.367761
0.545979
0.501871
0.537634
0.525713
0.433922
0.521541
0.545979
0.556707
0.479817
0.633597
0.505447
0.476837
0.580549
0.593662
0.661612
0.590682
0.843406
0.713468
0.600815
0.742674
0.891685
0.701547
0.783801
0.771880
0.859499
0.770688
0.692606
0.720620
0.752807
0.810623
0.664592
0.783801
0.659823
0.692606
0.814795
0.943542
0.741482
0.603795
0.835657
0.705719
0.697970
0.608563
0.718832
0.585914
0.684857
0.748634
0.755787
0.781417
0.852942
0.789762
0.892878
0.780821
0.850558
0.981688
0.921488
0.903606
1.030564
1.167655
1.211762
1.192689
1.196861
1.434684
3.995895
13.704896
50.523877
108.513832
235.864520
364.283919
538.630486
634.308457
686.867833
670.619607
565.531850
450.663567
289.317966
187.457800
86.402893
43.205619
14.558434
5.662441
3.467798
3.367662
2.957582
2.921820
##ZVALUE=390
0.477433
0.419617
0.497699
0.603795
0.444651
0.439882
0.402927
0.512600
0.509620
0.583529
0.476837
0.618696
0.646710
0.585914
0.533462
0.646710
0.609756
0.363588
0.515580
0.536442
0.410676
0.446439
0.548959
0.668764
0.429749
0.663996
0.671744
0.605583
0.723600
0.742674
0.804663
0.766516
0.905991
0.857711
0.866652
0.861883
0.752807
0.773668
0.765920
0.632405
0.745654
0.805855
0.850558
0.670552
0.727773
0.871420
0.750422
0.763535
0.714660
0.852942
0.780821
0.759959
0.746846
0.738502
0.802875
0.762939
0.831485
0.723600
0.751615
0.667572
0.808835
0.902414
0.757575
0.919700
0.876784
0.822544
0.858903
0.908971
1.033545
1.176000
1.085997
1.107454
1.200438
1.181960
1.187921
1.344681
1.941919
9.504557
29.595494
91.230869
174.175501
330.101848
454.075933
593.007803
668.810606
697.704554
643.662810
513.155460
395.365953
243.034959
142.894983
60.117841
27.060509
7.879734
3.734827
3.351569
##ZVALUE=395
0.520945
0.577569
0.451803
0.533462
0.432730
0.421405
0.476837
0.439882
0.532866
0.478625
0.555515
0.465512
0.642538
0.575781
0.497699
0.484586
0.578761
0.509620
0.563860
0.653863
0.612736
0.585914
0.572801
0.579953
0.318885
0.539422
0.634789
0.599623
0.597835
0.651479
0.512600
0.721812
0.811815
0.849962
0.891685
0.896454
0.809431
0.918508
0.913739
0.710487
0.779629
0.735521
0.963807
0.738502
0.830889
0.793934
0.829697
0.752807
0.768900
0.632405
0.869632
0.712872
0.742674
0.729561
0.683665
0.663996
0.678897
0.841618
0.755787
0.876784
0.781417
0.706911
0.868440
0.819564
0.808835
0.861883
0.875592
0.826716
1.030564
1.154542
1.124740
0.992417
1.134872
1.085997
1.151562
1.156926
0.991821
1.359582
1.475811
5.578399
19.141436
69.360733
132.304430
249.470472
373.031497
541.727543
649.671555
718.829632
703.582764
601.029992
475.284457
300.886631
189.121962
83.673596
40.193796
13.052821
##ZVALUE=400
0.670552
0.751615
0.535846
0.671744
0.515580
0.336766
0.540614
0.581741
0.447631
0.560880
0.526905
0.500679
0.507832
0.565648
0.548959
0.531673
0.430942
0.466704
0.475645
0.588894
0.552535
0.465512
0.438690
0.646710
0.521541
0.666976
0.553727
0.511408
0.678897
0.610948
0.818968
0.721812
0.639558
0.783801
0.780821
0.816584
0.898838
0.681877
0.783801
0.848770
0.814795
0.809431
0.751615
0.677705
0.720620
0.857711
0.661612
0.585914
0.727773
0.825524
0.699759
0.739694
0.819564
0.806451
0.706911
0.767708
0.655651
0.663996
0.761747
0.782609
0.818968
0.804663
0.719428
0.800490
0.789762
0.868440
0.869632
0.910759
0.828505
1.095533
0.886917
1.035929
1.078844
1.110435
0.960827
0.994802
1.054406
1.098514
1.154542
1.343489
1.499653
3.152490
10.017753
37.115812
83.253980
190.855861
304.150581
476.421714
588.002801
684.693456
700.962543
620.696545
509.706736
342.353582
227.256417
115.886927
##END
