##TITLE=D7-2
##FORMAT=SPECTACLE-ASCII V-1.2
##DATA TYPE=ULTRAVIOLET SPECTRUM
##SECOND TYPE=ULTRAVIOLET SPECTRUM
##DATE=01/24/18
##TIME=12:28:15
##SPECTROMETER/DATA SYSTEM=SPECTACLE
##XUNITS=NM EM
##YUNITS=ENERGY
##YFACTOR=1
##FIRSTX=220
##LASTX=410
##NPOINTS=96
##3DDATA=Equidistant
##ZUNITS=NM EX
##FIRSTZ=210
##LASTZ=400
##ZPOINTS=39
##XYDATA=(Y..Y)
##ZVALUE=210
13.769865
15.261769
12.360811
10.865927
11.534691
10.177493
8.929968
7.870793
6.024837
5.036592
3.938675
2.930760
2.011657
2.894998
2.259612
2.408624
1.741648
2.248883
2.103448
2.592802
2.426505
2.928972
2.685785
3.314614
3.501773
3.232956
3.942847
4.456639
5.401969
5.565882
6.426573
6.737709
7.345676
7.007718
6.563663
7.009506
6.756783
6.181598
7.365942
7.443428
6.614923
6.722808
5.577803
5.669594
5.808473
5.644560
6.082654
5.689859
5.207658
5.498528
5.480647
5.566478
5.425811
6.132722
5.488992
5.909801
5.322695
5.972981
5.330443
4.642606
5.801916
4.576445
4.700422
4.944801
5.500913
5.020499
5.657673
5.417466
5.384684
5.954504
7.233620
7.020831
7.921457
7.822514
8.650422
8.766651
8.154511
8.284450
8.216500
8.152723
6.977916
6.776452
5.930662
5.054474
5.761981
3.795624
4.909635
4.894733
4.229546
5.200505
7.923841
9.287000
10.937452
15.215874
19.618869
23.246408
##ZVALUE=215
33.013821
31.568408
28.737783
23.366809
20.774603
17.663836
16.133785
15.649796
15.828609
14.565587
10.904670
9.645820
7.033944
5.134940
4.113913
2.857447
2.801418
2.569556
2.593994
2.010465
2.301931
2.375841
3.024936
4.345775
4.159808
4.962683
5.659461
5.625486
6.158948
6.686449
7.373691
7.448792
8.264780
8.034706
9.547472
9.074807
8.797646
10.026693
8.530617
9.080768
7.652640
7.718801
6.789565
7.165670
6.942749
7.159710
6.606579
7.355809
6.704926
6.586909
7.020831
6.976724
7.636547
8.023977
6.691813
6.753802
8.546710
6.347895
6.375909
7.410645
7.416606
7.012486
6.759763
6.013513
6.722808
6.398559
5.169511
6.804466
6.486773
7.335544
8.014441
7.755756
9.927750
9.362698
9.659529
9.509921
9.468794
8.184910
7.710457
7.302761
6.589890
6.688833
6.324649
5.506873
5.308986
4.606843
4.619956
4.154444
3.812909
3.852844
4.773736
4.494786
3.819466
5.438924
6.260872
9.073615
##ZVALUE=220
66.500902
67.349672
64.078569
61.607957
50.459504
42.808652
37.024617
28.324723
26.274920
25.432706
24.775863
26.661754
21.855831
18.433928
13.450980
10.564923
7.239580
5.168915
3.491640
3.301501
2.783537
3.173947
3.300905
3.447533
3.768802
4.484653
5.219579
5.467534
7.453561
7.270575
7.835627
7.493496
8.672476
9.884834
9.215474
9.646416
9.490848
9.016991
8.492470
8.574724
8.690953
8.324981
9.162426
7.950664
8.762479
7.769465
7.949471
8.045435
7.590652
8.657575
8.111000
8.083582
9.346604
8.901954
9.608865
10.291934
9.858608
9.151697
10.092854
9.685755
9.631515
8.807778
9.004474
8.217692
7.873774
7.848740
7.309914
6.808639
8.062720
9.466410
8.434653
9.038448
10.113716
10.658503
10.117888
11.078715
10.417700
9.481907
9.320974
8.773804
6.957650
6.336570
6.207824
4.947782
5.517602
5.050898
4.431605
4.180670
4.435778
3.807545
3.288984
3.865957
4.365444
3.692508
3.971457
4.186630
##ZVALUE=225
82.731843
80.570579
98.800659
116.801858
116.345882
107.024908
94.547868
75.789690
59.280992
47.211647
38.857460
37.384629
42.336583
39.487481
37.870407
34.185648
24.702549
22.404790
15.387535
9.112954
6.150603
4.540682
4.140735
4.251599
4.164577
4.096627
4.639626
5.722642
6.288886
7.053614
7.051826
6.870627
7.072687
8.363724
8.948445
9.400845
7.961988
8.994937
8.458495
8.604527
8.943677
8.454919
8.432865
8.942485
7.897615
8.654594
7.860661
8.535981
7.916689
9.161830
10.593534
9.920597
10.211468
11.397600
11.348724
11.476874
10.942817
10.541677
9.869933
10.878444
12.059808
10.495782
9.640455
10.085702
8.930564
9.126663
9.612441
8.189678
8.280873
9.946823
8.248687
7.955432
10.334849
9.543896
10.793805
9.752512
10.390878
9.093881
8.236766
7.665753
7.807612
7.496476
7.136464
5.909801
5.478859
5.111694
4.468560
5.221963
4.993677
4.215837
4.546642
4.443526
4.708767
4.582405
4.042983
3.652573
##ZVALUE=230
50.686002
55.032969
83.677769
130.124688
159.240961
196.035504
208.026767
201.861858
174.406767
147.065520
100.435615
76.122880
62.423944
58.080554
60.622692
64.503551
62.336922
58.609843
55.008531
40.823817
30.797720
18.236637
13.562441
7.851720
6.101727
5.068779
4.510880
4.860759
5.419850
5.026460
5.430579
5.884767
6.530881
6.833673
7.195473
7.065535
6.908774
8.343458
7.895827
8.173585
7.474422
8.046627
8.890629
8.840561
7.915497
8.458495
7.755756
8.759499
8.326769
9.434819
10.731816
10.634661
10.494590
9.593964
10.473728
11.966825
11.347532
10.893941
11.172891
11.384487
11.324883
10.869503
10.503531
10.025501
9.845495
9.732842
9.748936
9.652972
9.640455
10.158420
10.149479
11.603832
11.933446
12.139678
12.330413
10.692477
11.251569
11.417866
10.886788
9.922981
8.882880
7.965565
8.313656
6.678700
5.930662
6.505847
6.227493
6.337762
4.957914
5.180836
5.561709
4.948974
5.608797
5.995631
4.419684
4.762411
##ZVALUE=235
13.492703
16.948581
31.497478
71.058869
114.103556
174.388885
227.611661
292.227864
315.791965
309.012532
273.816586
208.473802
163.354874
115.339756
91.811419
82.804561
79.981685
90.936422
94.399452
98.111629
81.851482
72.533488
52.613616
36.613941
25.146604
15.880466
11.626482
6.787777
6.001592
5.148649
5.217791
5.878806
6.363988
6.430745
5.931854
6.826520
6.400943
7.073879
6.575584
8.327961
7.157922
6.984472
8.214712
8.763671
7.169843
7.718801
7.951856
8.481741
9.630919
9.117723
9.323955
9.717941
9.269714
9.326935
9.522438
8.853674
11.014938
10.191798
9.051561
9.396672
9.596944
9.853840
9.864569
8.492470
9.412766
9.220839
8.762479
9.608865
10.662675
9.453893
11.282563
10.346770
12.075901
11.230707
11.708736
10.982752
11.258721
11.040568
10.839701
9.661913
9.192824
8.158684
7.553697
8.152723
6.952882
6.310940
6.537437
6.166697
6.161928
6.258488
5.631447
5.616546
5.255938
5.195737
5.844831
5.670786
##ZVALUE=240
2.212524
1.968741
4.228950
17.387867
34.836531
75.049996
127.265453
219.042897
287.490487
356.087685
408.805609
415.835977
365.399718
313.185453
232.974887
172.736645
116.261840
99.371672
95.005631
107.744932
113.279819
121.127963
117.744803
104.009509
85.754991
62.787533
47.866702
31.758547
21.380782
12.517571
9.032488
7.867813
5.923510
7.024407
7.125735
7.375479
7.178783
6.921887
7.302761
7.921457
7.683635
7.538795
7.828474
8.414984
8.833408
7.952452
8.260608
8.073449
8.515716
8.094907
8.035898
8.445978
9.137988
8.691549
9.041429
8.196831
8.555651
8.794665
8.104444
9.540915
9.431839
7.797480
8.201599
8.440614
8.273721
8.789897
8.344650
9.130836
8.890629
9.808540
10.555983
10.127425
11.157990
11.885762
11.966825
11.055470
10.774732
10.770559
9.769797
10.083914
8.791685
7.764697
8.188486
6.851554
7.115602
6.573796
6.348491
6.876588
6.905794
6.168485
6.247759
6.643534
6.572604
6.036758
6.210804
5.981922
##ZVALUE=245
1.404881
1.561642
1.840591
1.623631
3.679991
9.614825
30.923486
61.918497
134.634972
203.741789
317.273736
402.286649
455.615520
478.130579
460.835695
385.645628
310.088992
211.900473
154.872537
109.012723
97.159743
100.026727
115.090609
128.485560
135.050416
128.666759
115.254521
99.833608
73.522925
57.067871
41.605830
22.778511
15.028715
11.412501
8.286834
7.245541
8.326769
8.203983
8.189678
7.814765
7.721782
7.810593
7.929802
8.215904
8.843541
8.402467
8.940697
7.733703
7.958412
8.102655
8.141994
7.920861
8.578897
8.616447
8.411407
8.215904
8.720756
7.856488
8.268952
8.038878
8.154511
7.519722
8.281469
7.912517
7.460713
8.109808
7.277727
7.502437
7.406473
7.517934
8.421540
8.992553
9.451509
8.898973
9.191632
8.852482
8.992553
8.494854
9.122491
6.980896
7.388592
7.027984
6.840825
6.003976
7.004738
5.675554
6.001592
5.752444
5.370975
4.790425
5.129576
5.408525
5.153418
5.178452
5.003810
4.759431
##ZVALUE=250
1.335740
1.392961
1.552701
1.290441
1.987815
1.415610
2.406836
5.439520
20.406842
44.047832
108.056664
175.921917
263.792872
375.192761
454.126000
516.144633
519.723892
464.687943
398.185849
281.446576
199.289918
140.605569
95.609426
92.386603
105.983615
123.552680
135.630965
143.005848
136.391521
125.174522
104.846954
81.730485
59.933662
36.198497
24.963617
14.389753
10.410547
8.286834
7.878542
8.320808
7.700920
8.233786
8.549690
7.842779
7.278919
7.770658
8.086562
6.870627
8.850694
8.646846
8.070469
8.160472
7.867813
7.923841
7.939935
7.941723
7.568598
7.422566
6.844997
7.154942
7.358789
6.459951
6.922483
6.694794
6.326437
6.776452
6.750822
6.127954
6.420612
6.493926
6.728768
7.326603
7.021427
6.571412
7.562637
6.800890
6.258488
6.336570
6.362796
5.916953
5.632639
5.773902
5.192757
4.273653
4.811883
4.552603
4.539490
4.087687
4.243851
4.367828
3.985763
4.364848
4.214644
4.447699
3.691912
4.414916
##ZVALUE=255
1.245737
1.360774
1.154542
1.352429
1.185536
1.429915
1.459718
1.320839
1.781583
2.884865
13.107657
31.452775
66.603422
143.442750
221.974850
360.793471
449.986458
548.903942
579.767823
550.853014
484.025478
397.674441
253.692865
168.508887
102.760792
85.223913
90.891719
105.794668
130.269527
142.944455
151.952505
143.129826
132.793784
105.130672
84.509850
55.760741
39.450526
23.162961
15.179515
10.707974
8.982420
8.159876
7.812977
8.367896
7.913709
8.677840
8.176565
7.965565
8.423924
8.971691
8.603930
8.129478
8.166432
7.927418
7.295609
7.706881
7.274747
7.237792
6.475449
7.048845
7.024407
6.664991
6.290674
5.931854
5.312562
6.114841
5.890727
5.487800
5.485415
5.843639
6.190538
5.719662
6.155968
5.797744
6.053448
6.099939
5.415678
5.051494
5.055666
5.165935
4.651546
4.202724
4.025698
3.611445
4.152656
4.096627
3.414750
3.349781
3.625751
3.328919
3.290772
3.366470
3.685951
3.630519
3.065467
3.441572
##ZVALUE=260
1.317859
1.256466
1.049638
1.462698
1.150966
1.531839
1.168847
1.220703
1.244545
1.435876
1.537800
1.982450
4.702806
19.971728
45.390725
114.310980
191.564560
311.674476
422.311425
554.997921
621.686578
626.434684
573.938489
473.531485
321.760774
224.458575
137.895942
92.292428
74.884892
82.084537
101.578832
129.435658
144.045949
155.784488
150.903463
133.217573
112.317801
83.751678
61.807632
39.592981
27.052760
15.578866
11.943579
8.924603
8.490682
8.279681
8.072853
7.813573
7.819533
8.627772
9.221435
8.472800
8.000731
8.205771
8.199811
7.957816
7.508993
7.615685
7.200837
7.137656
6.561875
6.374717
6.362796
6.241798
6.402731
5.517602
5.218983
5.484819
4.915595
5.417466
5.344748
5.450845
5.306602
5.156994
5.133748
4.946589
4.986525
4.414916
4.269481
4.139543
3.880858
3.526807
3.486872
3.302693
3.462434
3.164411
3.248453
2.933741
3.257990
3.268719
2.905726
3.048778
3.129840
3.410578
3.361702
3.076792
##ZVALUE=265
1.023412
0.971556
1.026988
1.123548
0.972748
1.126528
1.201630
1.118779
1.178980
1.185536
1.372695
1.434684
1.399517
1.517534
3.903508
11.060834
39.873719
81.127882
143.988729
274.446607
402.233005
560.646653
645.414591
672.226548
633.933544
517.014861
408.927798
266.183615
177.301764
97.568631
71.062446
69.611669
82.804561
111.790895
131.602883
153.831840
156.681538
151.646733
131.688714
107.322931
85.037947
56.572556
39.921999
23.612976
16.321540
11.070967
9.532571
8.890629
8.809566
9.257793
8.813739
8.868575
9.019971
9.684563
8.844733
7.941723
8.157492
8.266568
7.465482
7.346869
7.354617
6.628633
6.448627
6.088614
6.107688
5.922914
5.337000
5.193949
5.372763
4.686713
5.059838
4.715919
5.077720
4.652739
4.969835
4.803538
4.673600
4.146695
4.169941
3.552437
3.554821
3.595948
3.290772
3.286600
3.360510
2.821684
2.992749
2.555847
2.948642
2.619624
2.833605
2.256632
2.975464
3.043413
2.987981
3.271699
##ZVALUE=270
0.991821
0.803471
0.892878
0.896454
0.892878
0.945926
1.031756
1.002550
1.034737
1.200438
1.363754
1.156926
1.094937
1.280904
1.319647
1.281500
1.946688
5.927682
17.756820
58.388710
120.766759
212.328434
376.739502
511.603951
655.090809
707.124472
697.295666
631.179810
496.512651
370.614529
256.191492
139.800906
85.109472
54.817796
60.545802
84.187984
108.733773
134.882927
151.469707
156.357884
154.206753
133.492947
114.145875
84.078908
60.778856
39.006472
26.913881
17.394423
13.749599
10.661483
9.927750
10.595918
9.572506
9.890795
9.330511
9.107590
8.222461
8.541942
8.627772
8.478761
7.806420
7.733703
6.856918
6.632805
6.250739
6.109476
6.160736
5.674958
5.524755
5.305409
5.262494
5.193949
5.400777
4.991889
5.443692
4.481673
4.712939
4.172921
4.174709
3.763437
3.950000
3.321767
3.336668
3.089905
3.055930
2.918839
2.869964
2.747774
2.616644
2.507567
2.712607
2.530813
2.659559
2.989769
2.766848
3.134608
##ZVALUE=275
0.885725
0.753999
0.941753
1.060963
0.970960
0.998974
0.966787
1.073480
1.047850
1.039505
1.156926
1.137853
0.937581
1.174808
1.233816
1.223683
1.243949
1.334548
1.439452
2.439618
8.789897
39.030910
87.584853
197.641850
325.263739
500.902534
608.798862
720.539689
738.492012
692.544580
603.175759
437.729955
309.488773
173.447728
102.960467
55.874586
46.853423
61.254501
81.134439
111.138821
130.743980
148.713589
154.129863
149.993896
134.826899
108.477473
87.565780
60.080886
43.836832
27.559996
19.972920
13.367534
11.849999
10.298491
9.859800
9.414554
9.530783
8.725524
8.532405
8.717775
8.192658
7.724762
7.318854
7.368922
6.935596
6.231666
6.081462
6.029606
5.681515
5.624890
5.560517
5.832911
5.326867
5.153418
5.113482
4.486442
4.855990
4.391670
3.914833
3.847480
3.667474
3.739595
3.591776
3.279448
3.033876
2.928972
3.041625
2.746582
3.070831
2.991557
2.728701
2.813935
2.689958
2.766848
3.007650
2.929568
##ZVALUE=280
0.821948
0.809431
0.950694
0.815988
0.966787
0.927448
0.861883
0.908971
0.891685
0.783801
0.915527
1.046658
0.898838
0.843406
1.061559
1.181960
1.011491
1.038909
1.110435
1.285672
1.504421
1.616478
6.661415
22.304654
75.008869
142.240524
272.170901
400.748849
574.796796
684.417486
744.348764
735.402703
660.721660
502.059460
371.055007
214.620829
128.755569
64.414740
42.386651
42.605996
55.968761
82.728863
105.596781
131.737590
145.215988
152.279735
145.519972
129.946470
107.964873
81.695914
61.893463
40.602684
27.583838
17.416477
12.551546
9.772778
8.898973
8.720756
8.459687
8.361936
7.617474
7.559657
7.103682
6.714463
7.003546
6.479621
6.423593
6.265640
5.654693
6.038547
5.628467
5.296469
5.490780
5.267859
5.291700
5.098581
4.685521
4.639626
4.170537
3.903508
3.752708
3.682971
3.685951
3.732443
3.412962
3.285408
3.276467
3.158450
3.129840
2.783537
3.088713
2.937913
2.927780
3.004670
3.223419
2.981424
##ZVALUE=285
0.634789
0.746846
0.940561
1.005530
0.782609
0.832677
0.682473
0.822544
0.775456
0.807643
0.688434
1.028776
0.765920
1.065731
0.841618
1.078844
1.052618
1.085997
1.129508
1.177788
1.320839
1.246929
1.479983
1.624823
3.280640
10.874867
38.619637
83.332658
190.261006
311.728716
441.524982
620.587468
723.233819
766.856670
718.811750
586.223602
457.043648
283.332467
177.239776
87.690949
48.072934
31.400919
33.616424
53.664446
72.378516
102.992654
119.889975
141.088963
145.836473
141.055584
130.694509
108.015537
86.676478
59.587955
41.615963
24.249554
16.953945
10.753870
8.828640
7.427931
6.871819
6.653666
6.655455
6.379485
5.971789
5.773902
5.661845
5.481839
5.352497
5.247593
5.191565
5.211830
5.391836
5.058646
5.454421
4.899502
4.875660
4.324913
4.235506
4.194975
3.807545
3.614426
3.823638
3.548861
3.649592
3.561974
3.245473
3.325939
3.051758
2.936721
3.150702
3.174543
2.972484
3.178716
3.421903
3.534555
##ZVALUE=290
0.543594
0.719428
0.687838
0.722408
0.784993
0.878572
0.864863
0.787973
0.781417
0.840425
0.685453
0.814795
1.038909
0.774860
0.888705
0.846982
0.992417
1.018643
1.053810
1.008511
0.934601
1.176000
1.135468
1.105666
1.197457
1.421571
1.972914
4.792809
21.011829
50.618649
102.831721
226.093531
349.736810
536.962748
655.263662
740.046501
730.866790
629.923940
513.751507
347.294807
229.016542
114.918947
62.886477
28.506517
22.761822
33.325553
46.052933
68.867803
90.664625
116.801858
131.120682
139.493942
136.443973
121.637583
104.310513
78.497529
58.090687
37.000775
24.998784
13.997555
10.015965
7.073879
6.066561
5.492568
5.455613
4.718900
5.168915
5.234480
4.996657
5.223751
5.290508
5.564690
4.911423
4.909635
5.150437
4.576445
4.754663
4.444718
4.288554
4.179478
3.990531
4.098415
3.651977
3.727674
3.618598
3.439784
3.334880
3.234744
3.160834
3.178716
3.353953
3.311634
3.128648
3.185868
3.498793
3.218651
##ZVALUE=295
0.695586
0.707507
0.749826
0.779629
0.648499
0.786781
0.617504
0.775456
0.923872
0.836849
0.886917
0.843406
0.978708
0.916719
0.983477
0.786781
0.789762
0.679493
0.908971
0.818968
1.060963
0.941753
1.150966
1.119971
1.015663
1.050830
1.137853
1.270771
1.518726
2.179742
7.229447
29.325485
70.477724
176.540017
292.433500
476.879478
606.157780
725.993514
753.768682
685.477853
583.303571
413.172841
286.754966
151.866674
83.647966
33.787489
20.208955
18.994808
27.250648
45.028925
61.825514
87.895989
105.506778
125.633478
131.534934
129.970908
118.003488
96.144676
78.404546
53.220987
37.807822
22.303462
14.791489
8.785725
6.388426
5.103946
4.864931
4.844666
4.695654
4.934669
4.987717
4.928708
4.529953
4.978776
4.774928
4.655719
4.767776
4.514456
4.462600
4.490614
3.894567
3.938675
3.825426
3.565550
3.597736
3.638864
3.533959
3.330708
3.192425
3.227592
3.124475
3.162622
3.151894
3.190637
3.189445
3.184676
##ZVALUE=300
0.701547
0.747442
0.686646
0.602603
0.643730
0.656843
0.660419
0.591874
0.593662
0.662804
0.772476
0.748634
0.730753
0.857711
0.659823
0.738502
0.698566
0.733733
0.948906
0.844598
0.811815
0.923872
0.827909
0.982881
0.871420
0.956655
1.234412
1.027584
1.161695
1.250505
1.422763
1.579523
4.604459
16.278625
54.706931
109.164715
231.413841
357.175469
527.337790
634.018779
715.762973
707.534552
610.048771
499.863625
331.234932
217.643976
108.104944
60.154796
24.584532
13.994575
16.843677
23.582578
39.148927
54.993629
79.317689
98.075867
117.746592
123.619437
122.471452
116.037726
95.117688
77.612996
53.631663
38.560629
22.822618
14.399886
8.723736
6.210804
5.151629
4.692674
4.592538
4.543662
4.633665
4.837513
4.582405
4.398823
4.416704
4.438758
4.338622
3.714561
3.957748
3.506541
3.946424
3.626943
3.762841
3.452897
3.361702
3.150702
3.160834
3.060699
3.204942
3.044605
3.166795
3.149509
3.147721
3.140569
##ZVALUE=305
0.749826
0.772476
0.851750
0.609756
0.691414
0.729561
0.746846
0.743866
0.508428
0.608563
0.623465
0.696778
0.750422
0.659823
0.739694
0.773668
0.664592
0.781417
0.787973
0.779629
0.861883
0.818968
0.706911
0.878572
0.769496
1.034737
0.886917
1.017451
0.984669
1.079440
1.046658
1.081824
1.250505
1.243949
2.160668
10.600686
29.989481
87.368488
159.177780
296.184421
420.257449
572.700500
662.972927
695.707798
648.446679
519.586802
404.868722
256.925821
158.483982
72.673559
37.333965
15.041828
11.654496
15.462637
22.717714
38.161874
53.636432
74.818730
94.069839
110.391974
116.492510
115.004778
107.977986
90.135932
72.690845
51.929951
35.787821
21.449924
14.008880
8.004904
5.787611
4.852414
4.464984
4.375577
4.265904
3.895760
3.986955
3.805757
3.817677
3.718734
3.656745
3.674626
3.580451
3.488660
3.339648
3.220439
3.336668
3.245473
3.243685
3.106594
2.955794
2.988577
2.862811
2.985597
2.864599
2.987981
##ZVALUE=310
0.644922
0.472665
0.554919
0.626445
0.683665
0.553727
0.725985
0.610948
0.670552
0.705719
0.460744
0.649691
0.622869
0.658631
0.714660
0.908971
0.734925
0.754595
0.737906
0.699759
0.666976
0.657439
0.635982
0.805855
0.867844
0.800490
0.792742
0.874996
0.994802
0.943542
0.947714
0.978708
1.032948
1.190901
1.155734
1.314878
1.617670
4.607439
15.072823
50.163865
103.192925
215.188861
337.672830
504.462719
610.850453
689.761639
682.451725
597.270727
492.239594
330.581665
218.997002
110.630989
59.109926
22.417903
11.469722
9.617805
12.697577
21.040440
30.846596
48.230886
64.451694
86.428523
98.559856
108.941793
109.897852
102.008581
90.511441
69.682598
52.914619
33.436418
22.653937
13.724566
8.676648
5.340576
4.416704
3.646612
3.595948
3.460646
3.452897
3.167987
3.189445
3.007650
3.168583
3.087521
2.866983
3.032684
3.027916
2.970695
2.912879
2.821684
2.752542
2.762675
2.724528
2.680421
2.588630
2.548695
##ZVALUE=315
0.697970
0.490546
0.850558
0.854731
0.862479
0.694990
0.731945
0.832677
0.726581
0.871420
0.801682
0.754595
0.649691
0.739694
0.785589
0.682473
0.770688
0.769496
0.928640
0.788569
0.891685
0.829697
0.873804
0.867844
1.077652
0.807643
0.830889
0.878572
1.023412
1.031756
1.119971
1.074672
0.895858
0.946522
1.124740
1.203418
1.398921
1.520514
1.544952
2.690554
7.861853
31.272769
70.676804
162.664652
266.482830
431.628823
541.332960
644.984841
676.156878
628.106594
543.902516
392.483473
278.016925
150.666833
84.578991
32.114983
14.762878
8.238554
8.509755
12.342930
17.822981
30.440688
42.653680
61.156750
77.188611
95.061660
102.075934
102.991462
96.648932
81.322789
67.163706
47.938824
34.236908
19.865632
12.800694
7.300973
5.167723
3.852844
3.348589
3.333688
2.813935
2.936721
2.793670
2.526641
2.398491
2.573729
2.321601
2.582669
2.556443
2.698898
2.635717
2.657771
2.326965
2.397895
2.541542
2.532601
##ZVALUE=320
0.601411
0.571609
0.563860
0.564456
0.657439
0.682473
0.625849
0.553727
0.678897
0.583529
0.600815
0.768900
0.682473
0.558496
0.706911
0.653863
0.660419
0.749826
0.670552
0.761747
0.542998
0.582933
0.764728
0.674725
0.668764
0.743866
0.796914
0.646710
0.852942
0.864863
0.859499
0.906587
0.866652
0.848770
0.817776
0.932813
1.076460
1.156926
1.090765
1.296997
1.358986
1.336932
3.565550
17.471910
45.046806
118.641853
198.984742
334.879756
450.279713
585.228801
644.016862
641.001463
583.743453
449.934602
332.930684
189.093947
108.569860
48.901439
23.123622
9.224415
6.986856
7.436872
10.149479
15.913844
24.314523
40.588975
54.370761
73.946714
86.312890
95.960498
97.325444
91.113448
80.998540
61.698556
46.550632
29.946566
19.877553
11.351705
7.222891
4.045963
3.193617
2.456903
2.286434
2.337694
2.239943
2.393723
2.144575
2.126694
2.127886
2.017617
2.159476
1.866817
2.075434
1.950860
2.064705
2.056956
##ZVALUE=325
0.687838
0.620484
0.687838
0.665784
0.613928
0.792742
0.687838
0.585914
0.477433
0.682473
0.486970
0.681877
0.457764
0.593662
0.775456
0.774860
0.789762
0.589490
0.625849
0.792742
0.858903
0.714660
0.879765
0.698566
0.709891
0.849962
0.854731
0.755787
0.707507
0.748634
0.728965
0.748634
0.841618
0.920892
0.827909
1.047850
0.918508
1.028776
0.994802
1.040697
1.037717
0.967979
1.231432
1.284480
2.272725
11.366606
29.459000
82.023740
147.977471
277.401805
389.253497
527.429581
601.296425
631.042719
592.268705
477.246642
367.181897
224.352479
137.778521
61.829686
30.641556
11.371970
6.989837
6.013513
6.546974
10.110736
14.142990
24.503469
36.400557
53.855777
67.264438
82.475543
89.314580
90.167522
85.077882
70.776939
57.811737
40.803552
28.911829
16.471744
10.620952
5.445480
3.786683
2.934933
2.379417
2.159476
2.082586
1.915693
1.744628
1.909733
1.962781
1.819730
1.778603
1.969934
2.013445
2.077818
##ZVALUE=330
0.525713
0.517964
0.442863
0.541806
0.610948
0.598431
0.557899
0.576973
0.517964
0.508428
0.431538
0.563860
0.719428
0.463724
0.497699
0.500679
0.768900
0.675917
0.507832
0.642538
0.541806
0.711679
0.592470
0.651479
0.776649
0.668764
0.799894
0.686646
0.642538
0.756979
0.695586
0.746846
0.694990
0.659823
0.914931
0.871420
0.852942
0.719428
0.977516
0.844598
1.025796
0.739694
0.941753
1.033545
1.093745
1.192689
1.385808
5.018711
15.202761
52.767992
102.565885
210.984945
313.893557
456.139445
548.599958
607.448816
591.749549
503.519773
405.450463
260.875821
171.450973
81.418753
41.916966
15.854836
8.078814
5.453825
5.222559
6.357431
8.585453
14.184713
21.241903
34.956932
47.227740
63.901544
76.090693
84.316730
84.605813
77.393651
68.632960
52.361488
39.692521
25.812984
17.228723
9.939671
6.494522
3.747940
2.918839
2.291799
1.963973
1.895428
1.779795
1.795888
1.705885
1.624823
1.395941
1.636744
##ZVALUE=335
0.643730
0.493526
0.445843
0.551939
0.534654
0.572801
0.420809
0.667572
0.558496
0.752807
0.602603
0.505447
0.466704
0.491738
0.464916
0.487566
0.522733
0.397563
0.431538
0.583529
0.522733
0.630617
0.699759
0.569820
0.565648
0.688434
0.709891
0.576973
0.629425
0.688434
0.600815
0.532866
0.530481
0.661612
0.813603
0.760555
0.707507
0.843406
0.862479
0.691414
0.858903
0.941753
0.815988
0.873804
0.949502
0.892878
0.908971
1.070499
1.135468
1.979470
9.719729
27.730465
77.928901
141.641498
266.215801
379.252434
515.074730
583.919883
604.029894
562.264919
450.952649
347.267985
213.525891
132.699013
57.759881
27.587414
9.805560
5.866885
4.802942
5.080700
6.299615
8.001924
13.130903
19.858479
32.570958
44.390559
59.217811
69.254637
77.742934
78.204870
72.245598
64.034462
49.863458
39.757490
26.563406
18.125772
10.734797
6.581545
3.635883
2.638698
2.155900
1.904964
1.973510
1.634955
1.726747
1.408458
##ZVALUE=340
0.547767
0.445843
0.490546
0.351667
0.541806
0.568628
0.515580
0.604987
0.504851
0.535846
0.613928
0.444651
0.601411
0.658631
0.652671
0.519753
0.548959
0.664592
0.455976
0.592470
0.452995
0.485778
0.387430
0.524521
0.529885
0.609756
0.561476
0.664592
0.587702
0.692606
0.688434
0.724792
0.647902
0.681877
0.780821
0.816584
0.955462
0.910759
0.767708
0.796914
0.693798
0.648499
0.683665
0.808835
0.854731
0.803471
0.881553
0.954866
1.109838
0.959635
0.987649
1.453757
3.900528
18.267632
46.683550
118.035674
202.294588
334.171653
434.718728
540.353656
579.324961
556.188822
494.461656
374.335647
270.309448
147.730708
83.634853
35.475492
15.076995
6.058812
5.063415
4.466772
4.691482
5.368590
7.455945
12.780428
19.449592
30.633807
42.293668
57.430863
66.426992
73.054433
73.578954
68.507791
60.639977
47.912002
38.004518
25.228858
17.811656
10.623932
6.826520
3.862977
2.695918
2.108812
1.721978
1.736879
##ZVALUE=345
0.534654
0.551939
0.470877
0.561476
0.473857
0.506639
0.428557
0.579953
0.324845
0.526905
0.558496
0.476837
0.610948
0.354648
0.534654
0.534654
0.348687
0.438690
0.578761
0.561476
0.464916
0.577569
0.498891
0.605583
0.598431
0.455976
0.745654
0.638962
0.684857
0.653863
0.649691
0.582933
0.550747
0.571609
0.618696
0.674725
0.650883
0.721812
0.725985
0.621676
0.615716
0.757575
0.794530
0.696778
0.731945
0.773668
0.855923
0.815988
0.843406
0.985861
0.855923
1.015663
1.137853
1.151562
1.892447
9.863973
29.064417
80.078840
143.170953
258.997679
359.484553
482.105613
541.903973
557.921529
520.123839
417.414904
324.578881
200.886726
119.606853
49.405694
23.044944
8.063912
5.182624
4.429817
4.376769
4.250407
4.789829
6.832480
10.276437
18.223524
26.852489
40.212870
49.452782
59.668422
65.281987
67.391992
65.019727
56.464672
48.357844
36.737919
26.907921
16.463995
11.067986
6.405711
4.175901
2.726912
##ZVALUE=350
0.673532
0.614524
0.633597
0.527501
0.535846
0.566840
0.573993
0.523925
0.576973
0.571609
0.707507
0.585914
0.642538
0.699759
0.704527
0.723600
0.588894
0.592470
0.499487
0.515580
0.608563
0.679493
0.545979
0.537634
0.539422
0.613928
0.602603
0.608563
0.554919
0.602603
0.670552
0.581741
0.697970
0.664592
0.689626
0.693798
0.738502
0.713468
0.804663
0.839829
0.814795
0.887513
0.844598
0.787973
0.672936
0.753999
0.834465
0.824928
0.761747
0.757575
0.818968
0.945926
1.038909
1.066923
1.089573
1.119971
1.536608
5.319715
16.386509
50.972700
99.135637
201.735497
293.753743
414.976478
489.226580
535.226464
511.616468
427.005887
332.467556
201.909542
127.016902
61.405897
29.611588
9.334683
5.462766
4.444718
4.200935
3.822446
3.637671
4.515648
6.253719
10.450482
15.426874
24.071932
32.508969
44.622421
52.051544
59.844851
61.515570
59.548616
53.593516
43.306947
35.262704
24.076700
17.244816
10.761619
##ZVALUE=355
0.541806
0.570416
0.457764
0.435710
0.428557
0.462532
0.388622
0.490546
0.472665
0.489950
0.506639
0.568628
0.510812
0.587702
0.496507
0.486970
0.441670
0.559688
0.479817
0.468493
0.523925
0.571609
0.455976
0.588894
0.547767
0.332594
0.492930
0.528693
0.494719
0.528693
0.583529
0.666976
0.585914
0.617504
0.463724
0.553727
0.605583
0.740886
0.651479
0.680685
0.624657
0.625849
0.712872
0.722408
0.594854
0.669956
0.748634
0.734925
0.792742
0.713468
0.748634
0.841618
0.833869
0.762939
0.898838
1.058578
0.998974
1.050830
1.180768
2.057552
9.810925
27.284622
75.185895
133.861899
249.993801
346.638560
456.523895
507.071018
504.422784
442.743897
330.412984
240.100622
136.471987
76.331496
30.303597
13.806820
5.619526
4.362464
4.025698
3.502965
3.407598
3.194809
3.996491
5.187988
8.606911
12.393594
20.369887
28.124452
39.075613
46.441555
53.692460
55.929422
54.201484
50.148964
40.962696
34.087896
##ZVALUE=360
0.563860
0.512600
0.565648
0.658631
0.630617
0.707507
0.458956
0.473857
0.482798
0.506639
0.506639
0.519753
0.449419
0.469685
0.508428
0.550747
0.593662
0.619888
0.474453
0.549555
0.525713
0.556707
0.508428
0.525713
0.564456
0.529885
0.579953
0.503659
0.569820
0.435710
0.548959
0.760555
0.598431
0.574589
0.552535
0.672936
0.730753
0.601411
0.582933
0.544786
0.486970
0.596642
0.610948
0.690818
0.530481
0.773668
0.705719
0.662804
0.601411
0.662804
0.660419
0.914931
0.746846
0.665784
0.833869
0.741482
0.713468
0.980496
0.739694
1.058578
0.994802
1.430511
3.908873
16.582608
41.509867
103.581548
174.477696
290.920734
386.672616
475.675464
495.463014
455.231667
379.858613
258.170962
175.356865
91.219544
48.046708
17.095804
7.819533
4.286766
3.938675
3.442764
3.249645
3.194809
3.122687
3.420711
4.220605
6.791949
9.907484
16.169548
23.053885
32.904744
39.394498
46.295524
50.454736
50.082803
##ZVALUE=365
0.521541
0.382662
0.440478
0.488758
0.612736
0.581741
0.469685
0.629425
0.549555
0.586510
0.593662
0.612736
0.433922
0.551939
0.480413
0.600815
0.535846
0.476837
0.528693
0.418425
0.539422
0.455976
0.482798
0.687838
0.603795
0.374913
0.540614
0.636578
0.560880
0.484586
0.548959
0.760555
0.699759
0.732541
0.609756
0.598431
0.525713
0.456572
0.678897
0.531673
0.516772
0.644922
0.667572
0.557899
0.714660
0.714660
0.506639
0.683665
0.596642
0.730753
0.565648
0.822544
0.737906
0.790954
0.778437
0.814795
0.789762
0.791550
0.765920
0.906587
0.934601
1.190901
1.073480
1.263618
1.974702
9.201765
25.367737
69.515705
128.249526
242.389441
331.912637
428.861976
478.321910
472.635627
412.192941
302.188396
215.243697
117.631555
63.607693
23.689866
10.379553
4.615784
3.781915
3.539920
3.205538
2.966523
2.899766
2.853870
2.877712
3.586411
5.172491
8.639693
12.945533
20.310879
27.044415
35.472512
##ZVALUE=370
0.515580
0.365973
0.594854
0.584722
0.527501
0.560880
0.483990
0.563860
0.626445
0.651479
0.610948
0.583529
0.592470
0.559688
0.480413
0.487566
0.459552
0.387430
0.620484
0.635982
0.427961
0.677705
0.500679
0.664592
0.540614
0.556707
0.469685
0.493526
0.522733
0.684857
0.603795
0.677705
0.513792
0.652671
0.589490
0.625849
0.783801
0.648499
0.521541
0.831485
0.657439
0.711679
0.502467
0.644922
0.639558
0.947714
0.733733
0.576973
0.702739
0.605583
0.585914
0.677705
0.617504
0.752807
0.618696
0.732541
0.718832
0.789762
0.787973
0.787973
0.868440
0.801682
0.971556
0.910759
0.922680
1.075864
1.448989
4.887581
15.389919
50.568581
95.949769
184.171796
273.430943
387.951732
446.797013
462.798476
429.562926
337.317586
250.130892
139.047503
79.753995
31.991601
15.406609
6.394982
4.088879
3.377795
3.224611
2.931952
2.760887
2.710819
2.531409
2.746582
3.306866
4.894733
7.056594
11.483431
##ZVALUE=375
0.533462
0.531673
0.488758
0.379682
0.498891
0.432730
0.418425
0.385642
0.523925
0.433922
0.509620
0.472665
0.396967
0.397563
0.465512
0.462532
0.452995
0.607967
0.533462
0.500679
0.443459
0.566840
0.571609
0.466704
0.530481
0.470877
0.278950
0.642538
0.496507
0.632405
0.589490
0.553727
0.420809
0.521541
0.558496
0.477433
0.571609
0.428557
0.517964
0.631809
0.520945
0.692606
0.430942
0.450611
0.735521
0.588894
0.591874
0.629425
0.547767
0.532866
0.515580
0.615716
0.628829
0.585914
0.592470
0.614524
0.577569
0.638962
0.552535
0.615716
0.696778
0.668764
0.718832
0.838637
0.874996
0.963807
0.924468
0.840425
1.052618
2.689958
8.667707
31.733513
68.487525
149.444938
225.727558
330.837965
403.131843
449.993610
436.754823
365.602970
284.499526
173.498988
109.941959
54.912567
28.372407
10.024905
4.837513
3.423691
3.102422
2.757907
2.696514
2.530813
2.350807
2.312660
2.401471
2.952814
##ZVALUE=380
0.517964
0.433922
0.620484
0.525713
0.527501
0.688434
0.521541
0.612736
0.661612
0.568628
0.669956
0.550747
0.617504
0.510812
0.592470
0.423789
0.584722
0.566840
0.516772
0.535846
0.585914
0.466704
0.720620
0.652671
0.579953
0.634789
0.449419
0.513792
0.710487
0.774860
0.602603
0.644922
0.579953
0.559688
0.619888
0.564456
0.639558
0.652671
0.719428
0.783801
0.668764
0.732541
0.815988
0.687838
0.620484
0.684857
0.495911
0.637770
0.683665
0.769496
0.689626
0.761747
0.595450
0.566840
0.681877
0.622869
0.654459
0.526905
0.514984
0.700951
0.689626
0.671744
0.733733
0.622869
0.767708
0.927448
0.894666
0.979900
0.896454
0.999570
0.965595
1.407862
4.543662
21.079779
48.395991
114.438534
185.337663
289.157629
369.442701
435.659885
442.228913
386.559963
319.440961
225.775838
152.880549
74.636936
38.640499
14.343858
6.595850
3.640652
3.069639
2.940893
2.698898
2.821684
2.538562
2.424717
##ZVALUE=385
0.386834
0.403523
0.425577
0.382662
0.390410
0.369549
0.476837
0.502467
0.424981
0.439882
0.329614
0.285506
0.558496
0.581741
0.685453
0.477433
0.404716
0.514984
0.446439
0.379682
0.425577
0.446439
0.552535
0.632405
0.666976
0.608563
0.579953
0.738502
0.554919
0.584722
0.645518
0.647902
0.725985
0.630617
0.725985
0.848770
0.738502
0.630617
0.626445
0.586510
0.440478
0.475645
0.433922
0.633597
0.543594
0.609756
0.637770
0.624657
0.634789
0.599623
0.673532
0.541806
0.578761
0.722408
0.697970
0.630617
0.587702
0.416636
0.557899
0.594854
0.635982
0.544786
0.746846
0.628829
0.531673
0.632405
0.818968
0.716448
0.709891
0.813603
0.744462
0.922680
0.984669
1.311898
2.381802
11.853576
30.996799
77.906847
138.570666
244.797468
327.459574
405.781865
430.575609
417.001843
370.594859
275.705457
198.055506
109.917521
63.881874
26.641488
11.576414
4.159808
3.329515
2.895594
2.922416
2.589822
##ZVALUE=390
0.463724
0.429749
0.530481
0.472665
0.541806
0.472665
0.453591
0.358820
0.532866
0.592470
0.365973
0.514984
0.659823
0.490546
0.279546
0.236630
0.334978
0.500679
0.338554
0.468493
0.497699
0.630617
0.471473
0.522733
0.510812
0.548959
0.509620
0.454783
0.740886
0.749826
0.528693
0.779629
0.752807
0.686646
0.707507
0.690818
0.511408
0.792742
0.738502
0.822544
0.705719
0.747442
0.711679
0.823736
0.700951
0.762939
0.750422
0.549555
0.751615
0.755787
0.610948
0.671744
0.672936
0.596642
0.552535
0.582933
0.612736
0.713468
0.588894
0.740886
0.620484
0.700951
0.548959
0.498891
0.553727
0.665784
0.675917
0.669956
0.625849
0.867844
0.860691
0.758767
0.907779
0.871420
0.971556
1.095533
1.488924
6.026626
18.983483
57.823658
111.375451
209.358931
285.684466
369.548798
415.903926
430.250764
399.547815
321.675539
246.458650
151.153803
88.515878
36.575794
17.070770
5.757809
3.352761
2.985597
##ZVALUE=395
0.371933
0.390410
0.431538
0.341535
0.331998
0.338554
0.437498
0.477433
0.491738
0.368953
0.454783
0.371933
0.357628
0.327826
0.338554
0.482798
0.389814
0.369549
0.363588
0.308752
0.420809
0.294447
0.435710
0.544786
0.512600
0.343919
0.509620
0.631809
0.653863
0.545979
0.645518
0.721812
0.626445
0.672936
0.638962
0.745654
0.635982
0.656843
0.696778
0.684857
0.713468
0.720620
0.818968
0.716448
0.671744
0.607967
0.582933
0.749826
0.565648
0.543594
0.597835
0.638962
0.599623
0.567436
0.587702
0.645518
0.531673
0.621676
0.683665
0.748634
0.683665
0.655651
0.669956
0.572801
0.616908
0.643730
0.657439
0.839829
0.850558
0.820756
0.791550
0.784993
0.810623
0.769496
0.706911
0.747442
0.887513
0.850558
1.121759
2.808571
14.057755
34.833550
81.828833
138.566494
238.363743
316.217542
402.745008
433.814526
419.344902
369.408727
275.988579
195.288658
104.806423
56.959987
21.764636
9.868741
##ZVALUE=400
0.589490
0.494719
0.412464
0.408888
0.398755
0.367761
0.406504
0.373721
0.393987
0.366569
0.414848
0.453591
0.325441
0.395775
0.294447
0.485778
0.369549
0.300407
0.283718
0.518560
0.491738
0.490546
0.522733
0.429749
0.399947
0.430942
0.700951
0.641942
0.599623
0.628829
0.620484
0.427961
0.564456
0.669956
0.481606
0.574589
0.682473
0.708699
0.614524
0.624657
0.694990
0.626445
0.650883
0.504851
0.597835
0.548959
0.449419
0.536442
0.667572
0.614524
0.560880
0.430942
0.624657
0.576973
0.620484
0.637770
0.768900
0.595450
0.579953
0.639558
0.604987
0.436902
0.722408
0.768900
0.607967
0.486970
0.656843
0.631809
0.837445
0.774860
0.642538
0.719428
0.727773
0.699759
0.662804
0.733733
0.748634
0.854731
0.839829
0.834465
0.890493
1.946688
6.355643
22.891760
50.064921
114.804506
184.856653
288.297534
356.828570
414.339900
424.093604
377.819538
313.709974
210.511684
140.080452
71.279407
##END
