##TITLE=D7-3
##FORMAT=SPECTACLE-ASCII V-1.2
##DATA TYPE=ULTRAVIOLET SPECTRUM
##SECOND TYPE=ULTRAVIOLET SPECTRUM
##DATE=01/24/18
##TIME=12:31:45
##SPECTROMETER/DATA SYSTEM=SPECTACLE
##XUNITS=NM EM
##YUNITS=ENERGY
##YFACTOR=1
##FIRSTX=220
##LASTX=410
##NPOINTS=96
##3DDATA=Equidistant
##ZUNITS=NM EX
##FIRSTZ=210
##LASTZ=400
##ZPOINTS=39
##XYDATA=(Y..Y)
##ZVALUE=210
14.501810
14.008880
11.928678
11.288524
11.326671
9.596944
8.724928
7.635951
6.303787
5.460978
4.354715
3.062487
2.662539
2.250671
2.542734
2.133846
2.170801
2.933741
2.213717
2.603531
2.333522
2.454519
2.573729
2.821684
3.273487
3.526807
4.920959
5.674958
5.560517
6.177425
5.520582
6.406903
5.982518
7.204413
6.984472
7.535815
6.539822
7.353425
7.441640
6.596446
6.812811
5.882978
6.961823
6.093979
6.019473
6.724596
4.938841
5.618930
5.735755
5.749464
5.778670
5.733967
6.610751
5.844831
6.705523
6.938577
6.292462
5.781651
6.084442
6.413460
5.686879
5.522966
5.679727
6.252527
5.752444
5.317926
5.263686
5.932450
6.130934
6.341934
7.714629
7.845759
9.301901
10.037422
11.125803
10.344982
10.957718
10.681748
10.715723
10.987520
10.627508
8.882880
8.762479
7.892847
6.621480
7.070899
6.037951
5.205870
5.281568
6.392598
7.719994
9.850860
11.893511
16.233921
21.540523
24.234653
##ZVALUE=215
31.845570
31.632781
28.814673
21.607876
19.287467
17.469525
15.458465
17.521977
16.254783
16.137958
13.803840
9.858608
6.149411
4.827976
3.396869
3.890991
2.689958
2.265573
2.039671
2.265573
3.332496
2.922416
3.186464
3.329515
4.046559
4.362464
4.958510
5.889535
5.764961
6.887913
8.702874
7.302761
8.047819
8.818507
9.379983
9.150505
8.719563
8.016825
8.429885
7.646680
7.898808
8.020997
7.700920
7.482767
7.284880
6.425977
7.162690
7.017851
7.454753
7.295609
7.392764
7.300973
8.357763
6.759763
8.743405
8.297563
7.788539
6.791949
7.280707
7.219911
7.120967
7.054806
7.312894
6.604791
6.673932
6.673932
7.023811
6.414652
6.768703
7.526875
8.478761
9.540915
11.268854
9.793639
13.307929
12.324452
12.121797
11.702776
12.035966
11.419654
10.529757
10.102987
9.565949
9.407997
8.745790
6.898642
6.344914
6.766915
5.027652
5.116463
4.341602
4.944801
4.434586
5.209446
7.295609
10.222793
##ZVALUE=220
63.780546
64.989924
66.324472
59.456825
51.352978
39.114952
37.075877
27.532578
27.444959
26.048422
26.972890
25.853515
20.321608
19.174814
13.370514
11.464953
7.109642
6.032586
4.492998
3.106594
2.980828
3.824830
3.695488
2.794862
4.191995
5.675554
5.662441
6.413460
7.532835
8.125901
7.973909
8.897781
9.006858
9.316802
9.451509
9.675622
8.851886
9.568930
9.834766
9.775758
8.962750
8.086562
9.498000
9.272695
8.134842
8.595586
9.337664
8.833408
8.723736
9.223819
8.173585
9.454489
9.452701
11.073947
11.218786
11.355877
9.843707
10.813475
10.937452
9.517670
10.345578
9.740591
10.471940
9.058714
9.118915
9.445548
8.472800
8.545518
9.505749
10.386705
9.970665
11.060834
13.312697
14.260411
13.829470
15.049577
15.686750
15.545487
15.445948
14.889836
13.948679
12.052655
12.010932
10.867715
12.293458
9.947419
8.468628
6.540418
6.203651
5.828738
4.827976
5.958676
5.512834
4.675984
5.619526
5.496740
##ZVALUE=225
79.466701
81.671476
95.124841
112.896562
115.163922
111.969709
95.177889
76.164603
59.177876
48.918724
41.555762
40.307641
42.429566
42.608976
37.853718
37.456751
27.717948
21.254420
16.716719
9.600520
6.832480
4.787445
3.829598
3.597736
4.703999
5.049706
4.524589
5.665421
5.487800
7.650852
7.406473
7.656813
7.631779
8.130670
9.357929
9.434819
9.811521
10.126829
9.632707
9.466410
10.018945
9.285808
10.470748
8.833408
9.519458
9.593964
8.437634
9.544492
10.206699
10.060668
10.662675
11.721849
11.401772
12.847781
12.726784
11.178851
13.102889
12.747645
13.633966
12.744665
11.883974
11.671782
11.357665
11.857748
11.612773
9.596944
10.220408
10.987520
10.712743
11.520982
12.528896
12.383461
13.681650
14.319420
15.279651
15.235543
17.062426
16.007423
15.407801
14.663935
14.570951
12.871623
12.413859
10.594726
10.532737
9.966493
9.126663
7.370710
7.054806
7.201433
6.178617
6.642938
5.569458
6.120801
6.359816
5.869865
##ZVALUE=230
51.588416
55.869818
81.524849
127.096772
159.246922
194.152594
200.168490
193.013549
175.470710
135.832429
105.663538
75.828433
64.750910
56.531429
58.012605
64.389706
63.085556
60.702562
50.394535
40.931702
29.557943
20.150542
11.641979
7.749796
5.819798
4.893541
5.314946
5.116463
6.281734
5.839467
5.984902
6.916523
6.865859
6.801486
7.186532
6.703734
7.441640
7.744431
8.208752
8.469820
8.304715
8.349419
9.930730
8.887649
9.440780
8.684993
9.099841
9.067655
9.930730
10.081530
9.829998
11.493564
11.769533
12.071729
13.667941
13.868809
12.906790
13.574958
13.047457
12.848973
14.105439
13.945699
13.630986
12.465715
11.905432
11.884570
11.162758
11.038780
12.098551
13.178587
13.907552
15.197992
14.603734
18.966794
19.523501
18.263459
18.175840
18.669963
17.113686
16.458631
16.626716
16.011596
13.572574
13.403893
11.531711
10.056496
9.752512
8.084774
8.607507
7.897615
7.275939
8.570552
7.707477
7.649660
7.644892
7.336736
##ZVALUE=235
14.177561
16.104579
32.155514
72.958469
113.476515
173.357725
229.111910
291.163921
319.984555
322.532654
289.705992
234.969854
173.300505
131.201744
100.480914
83.440542
83.268881
89.813471
90.922713
92.778802
85.134506
71.094632
57.987571
38.383603
28.817654
15.447736
11.399984
8.866787
8.256435
8.254647
7.212758
7.793903
8.745790
7.731915
7.001758
8.424520
7.818937
8.188486
8.452535
9.944439
9.819865
9.758472
9.357929
10.272861
9.834766
10.372996
8.979440
10.734797
10.497570
10.143518
11.118650
10.972619
11.322498
10.542870
11.209846
12.252927
11.574626
12.616515
12.415648
13.549924
12.863874
12.468696
13.811588
12.834668
12.025833
12.606978
13.388991
13.034940
13.005733
13.895631
13.661981
15.746951
15.417933
18.818974
19.416809
19.498467
21.408796
20.819902
20.250678
17.172694
15.301704
14.316440
12.168884
11.122823
10.304451
9.531975
10.214448
9.043813
9.254813
9.477735
9.382963
9.100437
8.991957
8.563995
9.387732
9.089708
##ZVALUE=240
1.994967
2.183914
4.788637
15.768409
33.370852
75.569749
123.394728
208.981633
284.683704
369.940996
414.410830
417.625904
382.206440
332.765579
250.456929
190.265775
131.668448
111.676455
100.272894
107.298493
118.958950
125.061870
114.331841
102.616549
88.384748
68.116784
52.061677
33.509731
25.291443
16.049743
13.256669
12.219548
11.118650
10.293722
11.040568
9.440780
10.700822
10.860562
10.502934
11.282563
10.453463
9.968877
9.785891
11.220574
10.877848
10.329485
11.259913
11.092424
10.319948
12.092590
11.819601
10.846853
11.928678
11.109710
12.224913
12.355447
12.389421
12.560487
11.994839
13.595819
11.252761
11.887550
12.034774
12.667775
11.890531
12.915730
12.234449
11.630654
12.789965
12.741685
14.279485
14.282465
14.846921
15.656948
16.067624
19.061565
17.727613
15.817881
15.709996
13.957620
12.007952
11.129975
10.617971
10.114908
9.943843
9.383559
9.138584
8.676648
8.619428
8.287430
8.883476
7.693768
8.265972
8.861423
7.989407
8.154511
##ZVALUE=245
1.642704
1.412630
1.931787
1.692772
3.263950
8.389950
26.507974
55.674911
127.288699
196.004510
304.443836
378.329754
442.389846
474.321842
455.367565
384.984016
319.875479
224.060416
159.730911
115.193725
102.374554
101.764798
120.365620
133.818984
138.401985
131.711960
116.378665
103.765726
80.142617
60.021877
44.699907
27.679801
20.147562
15.265942
13.566613
11.712909
12.965798
11.311769
10.547638
10.381937
10.336637
9.753704
8.572936
8.216500
9.007454
8.593798
9.124875
8.395910
9.201765
8.657575
8.726716
8.299947
8.759499
8.782744
8.384585
8.672476
9.328723
8.429885
8.681417
7.727742
7.720590
8.224845
7.219911
8.420944
7.674694
8.057952
7.815957
8.021593
8.490682
7.212758
8.017421
8.948445
8.741617
10.221601
10.124445
8.728504
7.896423
8.519888
8.000731
6.941557
6.922483
7.149577
7.255673
6.379485
5.870461
5.184412
5.857944
5.832911
5.436540
5.419850
5.777478
5.574822
4.508495
5.135536
5.257726
4.458427
##ZVALUE=250
1.365542
1.325607
1.271963
1.607537
1.612902
1.656413
2.122521
5.323887
19.782782
42.795539
107.638836
178.618431
263.038874
386.537910
457.045436
524.423718
523.152947
472.037792
400.873423
284.755826
202.550888
139.978528
97.871423
96.059442
110.250711
126.163960
140.769482
148.540735
140.031576
129.506588
114.528537
87.423921
65.004826
42.203665
30.099750
19.018650
14.180541
11.285543
11.715889
10.599494
10.105968
9.921789
9.475946
8.864999
8.976460
9.282827
8.550882
8.600950
8.724928
7.979870
8.436441
8.247495
9.482503
9.186864
8.311868
7.959604
7.895827
8.314848
7.040501
7.689595
7.485747
7.112622
6.475449
7.351637
6.534457
6.808639
7.068515
6.623864
6.474853
7.180572
6.958842
6.938577
7.960796
7.295609
7.680655
7.723570
6.733537
7.119775
6.485581
6.161928
5.727410
5.410910
5.568862
4.598498
5.096793
4.657507
4.308820
4.516840
4.518628
4.446507
4.661679
4.421473
4.019737
3.992915
4.117489
4.414916
##ZVALUE=255
1.462698
1.162887
1.261830
1.052618
1.370907
1.472831
1.125932
1.112819
1.746416
3.091693
13.672709
34.007430
67.437887
150.477886
234.040618
371.985435
466.326475
551.968813
581.460595
558.098555
478.073955
388.170481
249.192715
172.214508
105.352998
86.440444
92.464685
107.936859
133.210421
148.481727
152.075887
149.734616
135.083795
109.453797
85.959435
58.413744
40.923953
24.375916
17.094612
12.344718
9.920597
8.986592
9.134412
8.847713
8.456707
8.452535
8.526444
8.611679
8.859634
8.919835
8.544922
8.905530
8.634925
8.191466
7.809997
8.491874
8.013844
7.513762
7.528663
7.300973
7.128716
7.003546
6.586909
6.098747
6.450415
5.969405
6.297827
5.925894
5.797744
6.280541
6.005764
5.537868
6.046891
5.901456
5.730987
5.853772
6.041527
4.833937
5.476475
5.532503
4.591942
3.953576
4.004836
3.767610
3.863573
4.174709
3.739595
3.794432
3.597736
3.460646
3.353953
3.574491
3.508925
3.591776
3.317595
3.950000
##ZVALUE=260
0.789762
0.770688
0.889897
1.163483
1.092553
1.263618
0.965595
1.221895
1.190901
1.089573
1.050830
1.548529
5.043745
20.791888
46.314597
114.164948
190.281868
319.925547
426.515937
567.092896
629.355907
638.954639
569.104552
472.173691
321.221948
223.317742
134.496689
92.348456
77.501535
84.731579
104.199648
129.321814
145.929456
156.237483
151.312947
134.805441
115.093589
82.337856
62.611699
37.895441
26.630759
15.854836
11.480451
9.381771
9.499788
7.948875
8.592606
8.402467
8.377433
9.406805
8.383989
8.715987
8.089542
9.028912
8.758903
7.222891
8.316636
6.997585
7.056594
7.268786
6.783605
6.726980
6.683469
6.161928
5.900860
5.676746
5.513430
5.165935
4.924536
5.301833
5.104542
5.067587
5.868673
5.167723
5.283952
4.668832
4.712939
4.831553
4.340410
3.859997
4.097819
3.546476
3.396869
3.323555
3.228784
2.928972
3.312826
3.232956
2.897978
2.627969
2.719760
2.658963
2.812743
2.713799
2.759695
2.537966
##ZVALUE=265
0.994802
1.013875
0.956655
1.099706
1.074672
1.234412
1.230836
1.055598
1.170635
1.137853
1.267791
1.432896
1.499653
1.655817
3.758669
11.446476
39.993525
81.655979
146.044493
279.280543
400.238633
552.921891
641.720891
684.835911
636.161566
523.399711
423.129797
274.329782
182.340741
102.693439
73.383451
68.471432
82.732439
112.195611
133.299828
149.894953
156.757832
150.514841
135.238767
108.875632
86.272955
56.938529
40.468574
25.245547
17.161965
12.045503
10.028481
9.224415
8.793473
9.851456
9.498000
9.615421
9.553432
9.041429
8.989573
8.814931
8.452535
8.079410
8.156896
7.653832
7.851720
6.785989
6.965995
6.294847
6.262660
6.295443
6.276965
5.545616
5.485415
5.328655
5.529523
5.238652
5.319715
5.034804
4.668832
4.692674
4.585981
4.791617
4.313588
4.279613
3.851652
3.532767
3.211498
3.103614
3.271699
3.228784
3.039837
2.956986
2.828836
2.975464
2.736449
2.763867
2.689958
2.769828
2.511740
2.748966
##ZVALUE=270
0.817776
0.919700
1.053810
1.122952
1.063943
0.873804
0.853539
0.945926
0.917912
0.987649
1.129508
1.335740
1.174808
1.214743
1.410842
1.208782
1.908541
6.681681
18.422604
62.400699
127.863884
230.517983
411.497951
548.582673
702.638030
751.149654
738.564730
670.006871
521.392822
384.593606
269.278884
144.775510
90.249777
57.888627
59.206486
85.048676
108.816624
135.728717
151.209831
159.254670
153.325796
134.310722
114.289522
87.111592
62.629580
38.161874
27.457476
17.969608
13.458729
11.960864
10.562539
10.543466
10.425448
9.971857
10.402799
10.147691
9.295940
9.389520
9.470582
8.899570
8.519888
8.722544
7.623434
7.560849
7.475615
6.963611
6.775856
6.296635
6.406903
5.971789
6.076694
6.318688
5.981922
6.188750
5.943775
5.547404
5.362630
4.987717
5.107522
4.637837
4.535913
4.074574
3.523827
3.866553
3.503561
3.408790
3.341436
3.198981
3.317595
3.167987
3.431439
3.125668
3.089905
2.881885
2.927780
3.049970
##ZVALUE=275
0.969768
0.825524
0.969768
0.832677
0.786781
0.908971
0.994802
0.897646
0.885725
1.132488
1.172423
1.092553
1.205802
1.037717
1.131892
1.227856
1.200438
1.378655
1.545548
3.290772
11.309981
33.506751
109.402537
216.168761
413.977504
565.156937
742.944479
828.781724
843.593478
778.052807
670.170784
479.172468
335.322618
179.951787
109.208822
56.874752
48.642755
61.519742
82.297921
109.729767
131.460428
150.076747
156.310797
150.560737
137.496591
109.715462
87.648630
61.749816
45.170784
28.452873
19.728541
14.269948
12.425780
10.894537
10.722876
10.998845
10.341406
9.871721
9.723902
9.280443
9.342432
8.856654
8.853674
7.649660
7.686615
7.322431
6.921887
7.155538
7.075667
6.486773
6.680489
7.149577
7.315874
7.483959
7.143617
6.939769
6.947517
6.097555
6.142855
5.162954
4.811883
4.723668
4.249811
4.327893
3.932714
4.211664
3.740788
3.425479
3.565550
3.413558
3.607869
3.138781
3.523827
3.503561
3.365874
3.228784
##ZVALUE=280
0.804663
0.802875
0.997782
0.947714
1.074672
0.920892
0.940561
0.982881
0.984669
0.843406
1.060963
1.201630
1.239777
1.161695
1.078844
1.306534
0.989437
1.280904
1.387596
1.562834
1.664758
1.789927
7.750988
25.401711
94.595551
193.805695
377.796888
555.381775
781.713724
901.573896
949.847698
890.882611
764.921904
549.786687
391.403437
222.298503
135.632753
67.280531
43.978691
43.976903
56.983829
84.089637
106.928945
132.175684
145.195723
153.485537
147.638917
131.219625
111.784935
81.876516
63.367486
39.852858
28.631687
18.417835
13.256669
11.173487
10.589957
9.504557
9.149909
8.634925
9.123683
9.137988
8.651614
8.296967
8.248687
7.510781
7.369518
7.516742
7.568598
7.311702
7.341504
7.464886
7.548928
7.485747
7.264614
6.892681
6.861687
6.288886
5.931854
5.801916
5.523562
5.125999
4.986525
4.476905
4.385710
4.135966
4.146695
4.203916
3.995895
3.695488
3.978610
3.907681
3.670454
3.531575
3.496408
3.549457
##ZVALUE=285
0.860691
0.788569
0.928640
0.884533
0.951886
0.762939
0.810623
0.816584
0.966787
0.989437
0.998974
0.830889
0.967979
0.915527
1.037717
0.903606
1.046658
1.113415
1.325607
1.223683
1.279712
1.301765
1.472831
1.657605
3.590584
12.146831
45.201778
107.567906
271.534920
456.286669
659.468770
916.274786
1015.579700
1015.579700
915.395617
683.208704
500.471592
294.887424
181.669593
87.872744
49.576759
32.084584
35.952926
55.297613
74.324608
101.958513
122.649670
141.197443
145.562887
145.736933
132.618546
108.188987
87.866783
59.888959
43.184757
26.614666
17.733574
12.122989
10.111928
8.939505
8.373857
8.076429
7.734895
7.397532
7.608533
7.024407
7.004738
7.501841
7.385612
7.284880
7.566810
7.398725
7.475615
7.597804
6.952882
6.747842
6.353855
6.473660
5.924702
6.087422
5.700588
5.469918
5.201697
4.601479
4.781485
4.358888
4.408956
4.226565
4.405975
4.183650
4.127622
4.096627
3.838539
3.952980
3.870726
4.075766
##ZVALUE=290
0.853539
0.767708
0.726581
0.959635
0.946522
0.840425
1.060963
0.876784
0.917912
0.837445
0.803471
0.850558
0.771880
0.793934
0.866652
0.926852
1.009703
1.012683
1.045465
1.184940
1.070499
1.104474
1.159906
1.286864
1.368523
1.733899
1.896620
5.214810
23.098588
54.893494
144.680738
270.484686
438.036919
675.019026
821.897984
901.485682
850.841999
706.534982
557.681918
362.778902
236.414671
117.814541
63.867569
28.794408
23.978949
32.991767
47.616959
71.413517
91.469884
117.986798
131.893754
142.553449
140.701532
123.425722
106.386542
78.328848
59.208870
37.574768
26.145577
15.194416
10.817647
7.747412
6.905794
6.604791
6.074905
6.196499
5.881786
5.846620
6.184578
5.994439
6.448627
6.352663
6.694794
6.500483
6.352663
5.621910
5.857944
5.699992
5.319715
4.980564
4.690886
4.731417
4.788637
4.240870
4.076958
3.985763
4.199743
3.979802
3.784895
3.749728
3.936887
3.680587
3.793836
3.356934
3.350973
3.247857
##ZVALUE=295
0.684857
0.462532
0.575781
0.550747
0.465512
0.710487
0.536442
0.592470
0.664592
0.655651
0.696778
0.587702
0.684857
0.526905
0.692606
0.651479
0.822544
0.643730
0.692606
0.808835
0.752807
0.757575
0.741482
0.935793
0.808835
0.899434
1.086593
1.313686
1.443624
2.100468
7.164478
31.991601
72.922707
176.387429
288.338661
461.913943
587.803721
706.389546
737.938881
682.130456
582.891703
418.752432
288.469791
153.896809
85.569620
33.998489
19.952655
19.375682
27.324557
44.625998
61.751604
86.537600
105.546713
124.927759
132.848620
127.959847
119.540691
95.985532
77.490807
53.236485
37.795901
23.377538
14.695525
8.995533
6.977916
5.819798
5.395412
5.007982
4.829764
5.421638
5.487800
5.024672
5.022883
5.424619
4.816651
4.974604
4.633665
4.877448
4.955530
4.414916
4.329681
4.172921
3.978610
3.812909
3.592968
3.797412
3.779531
3.305674
3.472567
3.377795
3.432631
3.171563
3.273487
2.998710
2.868772
2.916455
##ZVALUE=300
0.712872
0.600815
0.643730
0.565648
0.615716
0.634789
0.762939
0.726581
0.594854
0.744462
0.913739
0.720620
0.768900
0.793934
0.747442
0.750422
0.808835
0.723600
0.875592
0.940561
0.865459
0.853539
1.073480
0.963807
1.050830
0.995994
1.060963
1.043677
1.145601
1.257658
1.311898
1.636744
5.098581
16.907454
57.202578
113.160610
238.712430
361.163616
531.426668
636.086464
716.711879
716.973543
622.141957
513.212681
341.628790
224.293470
111.831427
61.639547
25.104880
15.046000
16.647577
24.356842
40.108562
55.806637
80.033541
97.506642
118.069649
125.437975
122.868419
115.644932
95.270872
76.874495
54.098964
39.013624
22.815466
15.485883
9.120703
6.752610
5.494952
5.044937
4.777908
5.029440
4.906654
4.925728
4.725456
5.035996
4.698634
4.565716
4.541874
4.387498
4.290938
4.380941
3.779531
3.941655
3.920794
3.682971
3.595948
3.487468
3.297925
3.315806
3.038645
3.274679
3.297925
3.054738
3.179908
3.127456
##ZVALUE=305
0.745654
0.493526
0.691414
0.563860
0.685453
0.700951
0.563860
0.727773
0.651479
0.628829
0.674725
0.706911
0.861883
0.706911
0.699759
0.678897
0.902414
0.766516
0.794530
0.877976
0.814795
0.724792
0.869632
0.830889
0.864863
0.915527
0.895858
1.022816
1.012683
1.179576
1.167655
1.197457
1.222491
1.483560
2.582669
8.866787
36.347508
81.191659
184.241533
294.497013
429.331660
595.432520
687.553883
726.462007
680.652857
543.645620
420.361757
263.067484
161.084533
89.592934
35.041571
17.411709
11.570454
14.277697
24.213791
34.809709
56.044459
73.266625
95.795989
109.081864
118.098855
117.767453
107.243657
92.595816
70.520639
52.987933
34.434795
23.294687
12.972951
8.653998
5.661845
5.163550
4.873872
4.599690
4.675984
4.377961
4.061460
4.350543
4.145503
3.904700
4.018545
4.080534
3.607869
3.709793
3.597736
3.430843
3.334880
3.442764
3.214478
3.160834
3.214478
2.856851
2.863407
3.028512
2.989769
2.888441
##ZVALUE=310
0.561476
0.588894
0.573993
0.571609
0.671744
0.606775
0.681877
0.669956
0.630617
0.556707
0.648499
0.710487
0.628829
0.789762
0.622869
0.658631
0.771880
0.751615
0.825524
0.745654
0.743866
0.722408
0.874996
0.774860
0.859499
0.772476
0.721812
1.050830
0.866652
0.927448
0.862479
1.157522
1.092553
0.975728
1.369715
1.353621
1.464486
5.014539
15.800595
53.737760
108.208656
228.485465
349.075794
515.284538
629.490018
713.464022
707.471967
620.759726
512.995720
342.693925
229.601860
114.289522
60.269833
23.220778
11.895895
9.889603
13.160706
21.281838
30.808449
49.238801
65.482855
87.672472
100.385547
109.584928
110.936761
101.211667
88.280439
69.855452
52.470565
32.868981
22.811890
13.615489
9.044409
6.030798
4.413724
4.081726
3.883839
3.599524
3.669858
3.483891
3.434420
3.126860
3.150702
3.066659
3.128648
3.202558
3.186464
3.060699
3.066659
3.166795
2.973676
2.730489
2.753735
2.822876
2.613664
2.638698
##ZVALUE=315
0.534654
0.696778
0.539422
0.679493
0.676513
0.807643
0.575781
0.501871
0.667572
0.796914
0.767708
0.658631
0.707507
0.698566
0.591874
0.628829
0.670552
0.659823
0.701547
0.753999
0.848770
0.651479
0.797510
0.733733
0.618696
0.734925
0.742674
0.906587
0.860691
1.024604
0.919700
0.863671
0.886917
1.036525
1.109838
1.007915
1.080632
1.244545
1.368523
2.464652
7.891655
32.499433
75.958967
172.963738
277.049541
449.410677
560.414791
671.000481
700.080991
652.624965
567.272902
407.567620
286.057591
152.649879
83.974600
31.638741
13.780594
8.324981
8.713603
12.423992
17.953515
30.484796
42.692423
62.260628
78.631639
95.631480
104.592443
104.323626
96.166730
80.343485
66.309571
46.807528
32.307506
19.099712
12.554526
7.471442
5.228519
3.925562
3.308654
2.953410
3.053546
2.767444
2.683997
2.598763
2.474785
2.588630
2.559423
2.608895
2.573729
2.517700
2.590418
2.380610
2.629757
2.452731
2.469420
2.509952
##ZVALUE=320
0.567436
0.619888
0.438690
0.545979
0.516772
0.595450
0.735521
0.673532
0.726581
0.577569
0.496507
0.593662
0.519753
0.606775
0.622869
0.685453
0.660419
0.715852
0.612736
0.612736
0.606775
0.749826
0.769496
0.843406
0.752807
0.836849
0.876784
0.515580
0.824928
0.894666
0.835657
0.646710
0.770688
0.939965
0.888705
1.060963
1.138449
1.178980
1.236796
1.128912
1.375675
1.603961
4.546642
14.821887
52.926540
107.997656
222.828984
338.567495
508.157015
611.271858
681.787729
681.774020
595.219731
487.395525
331.653953
217.352509
101.841688
53.415895
20.549893
10.150671
7.064939
7.836819
10.779500
15.366673
26.091933
37.852526
57.077408
71.824789
88.344812
95.804930
97.164512
91.707706
76.859593
63.888431
45.173764
32.119751
18.442869
11.471510
6.398559
4.340410
3.024936
2.819896
2.440810
2.559423
2.197623
2.119541
2.112985
2.272725
2.065897
1.930594
2.034903
2.175570
2.168417
2.169609
2.231598
2.322793
##ZVALUE=325
0.657439
0.599623
0.585914
0.538826
0.597835
0.535846
0.659823
0.499487
0.610948
0.553727
0.531673
0.587702
0.354648
0.537634
0.571609
0.544786
0.556707
0.603795
0.602603
0.646710
0.790954
0.806451
0.775456
0.619888
0.736713
0.861883
0.783801
0.667572
0.762939
0.775456
0.698566
0.782609
0.651479
0.841618
0.725985
0.784993
0.711679
0.896454
1.037717
1.185536
1.051426
1.179576
1.306534
1.350641
2.098680
12.097955
31.710863
84.801912
155.138969
292.688608
410.475731
557.945967
632.933974
663.346648
615.792871
491.919518
377.996564
235.195756
144.524574
64.850450
31.410456
11.431575
7.036924
6.086826
6.929636
9.893775
14.555454
25.513768
35.962462
53.513646
68.114996
83.183646
90.169907
91.536641
85.333586
69.763660
58.324933
41.126609
28.949976
16.636848
10.788441
6.044507
4.069805
2.828836
2.443790
2.258420
2.169609
1.939535
2.019405
1.990795
2.114773
1.994967
1.811981
1.837611
2.052784
1.949668
##ZVALUE=330
0.434518
0.543594
0.572801
0.586510
0.473857
0.345707
0.497699
0.610948
0.642538
0.591874
0.495911
0.623465
0.541806
0.672936
0.556707
0.727773
0.500679
0.596642
0.657439
0.639558
0.658631
0.724792
0.816584
0.460744
0.821948
0.762939
0.580549
0.785589
0.671744
0.796914
0.779629
0.764728
0.637770
0.770688
0.605583
0.684857
0.795722
0.756979
0.979900
1.063943
0.932813
1.079440
0.839829
0.922680
1.135468
1.278520
1.575947
4.941821
16.082525
54.778457
106.906891
221.534967
333.140492
497.380495
600.975752
668.044686
651.036501
543.105006
430.769920
275.575519
176.025629
81.231594
42.182803
16.276836
8.396506
5.738735
5.347729
6.509423
8.495450
14.295578
21.979809
34.837723
48.169494
65.487623
75.400472
84.881783
84.951520
78.039765
68.377852
52.479506
39.901733
25.606751
16.850829
9.835958
6.680489
3.751516
2.789497
2.157688
2.044439
1.826882
1.959801
1.650453
1.847744
1.833439
1.741648
1.735687
##ZVALUE=335
0.501871
0.543594
0.576973
0.461936
0.409484
0.636578
0.486970
0.588894
0.503659
0.608563
0.539422
0.614524
0.533462
0.519753
0.497699
0.453591
0.587702
0.659823
0.532866
0.697970
0.746846
0.674725
0.558496
0.609756
0.566840
0.661612
0.681877
0.663996
0.533462
0.562668
0.617504
0.658631
0.566840
0.810623
0.807643
0.743866
0.730753
0.693798
0.665784
0.673532
0.714660
0.884533
0.904799
0.988841
0.957847
0.975728
1.052618
1.047850
1.189709
2.518892
8.422732
32.858849
70.327520
160.453916
262.462497
424.389839
536.903739
630.708933
640.324950
569.264889
474.971533
319.789648
213.816762
110.548735
57.182908
21.012425
9.814501
5.732775
5.182624
4.948974
5.735755
8.182526
12.397766
21.619797
31.613708
46.859980
58.821440
71.132779
77.764988
78.560710
72.888732
61.281919
50.244927
37.161708
28.122663
16.807914
10.794997
6.339550
4.250407
2.746582
2.205968
1.879930
1.746416
1.807809
1.591444
1.732707
##ZVALUE=340
0.613928
0.413656
0.480413
0.522733
0.515580
0.600815
0.508428
0.634789
0.496507
0.571609
0.419617
0.495911
0.706911
0.548959
0.526905
0.632405
0.563860
0.593662
0.520945
0.651479
0.670552
0.295639
0.575781
0.582933
0.593662
0.623465
0.637770
0.624657
0.584722
0.682473
0.553727
0.746846
0.690818
0.537634
0.836849
0.699759
0.619888
0.781417
0.738502
0.812411
0.658631
0.700951
0.735521
0.734925
0.686646
0.808835
0.972748
0.970960
1.122952
1.121759
1.125932
1.467466
5.484819
17.142892
54.648519
108.813643
227.631927
332.715511
472.579002
565.387607
618.890524
600.994825
499.534011
389.688015
239.518881
147.419572
68.158507
32.461882
11.064410
6.162524
4.904866
4.771948
4.788637
5.448461
7.745624
11.556745
20.167828
29.417872
43.902993
55.243969
67.528486
72.577596
72.961450
69.664717
59.784651
50.100684
36.329627
26.868582
16.612411
11.038780
6.323457
4.056692
2.810955
2.229810
2.042651
1.882911
##ZVALUE=345
0.525713
0.419617
0.562668
0.520945
0.479817
0.616908
0.497699
0.488758
0.675917
0.446439
0.626445
0.518560
0.431538
0.490546
0.457764
0.562668
0.502467
0.671744
0.604987
0.627637
0.588894
0.617504
0.649691
0.591874
0.496507
0.556707
0.651479
0.533462
0.649691
0.714660
0.631809
0.495911
0.505447
0.579953
0.523925
0.649691
0.680685
0.639558
0.727773
0.883937
0.655651
0.794530
0.675917
0.738502
0.785589
0.845790
0.890493
0.836849
0.808835
0.832677
0.977516
1.080632
0.986457
1.191497
1.929998
10.772943
30.200481
80.620646
143.670440
264.374614
367.294550
493.916869
556.427836
569.163561
524.941683
405.516624
300.969481
174.261928
98.783970
39.379001
18.415451
7.613897
4.964471
4.693866
4.498959
4.323721
4.818439
6.858706
10.079741
18.272996
27.223825
40.799975
50.257444
60.091615
65.432787
67.567825
65.226555
56.839585
48.521757
36.546588
26.930571
16.622543
11.394620
6.293654
4.098415
2.760887
##ZVALUE=350
0.388622
0.557899
0.393987
0.411868
0.528693
0.494719
0.498891
0.589490
0.476837
0.439882
0.490546
0.566840
0.520945
0.377893
0.535846
0.456572
0.448823
0.609756
0.506639
0.361800
0.536442
0.622869
0.689626
0.613928
0.547767
0.619888
0.397563
0.537634
0.495911
0.562668
0.608563
0.601411
0.533462
0.635982
0.671744
0.707507
0.567436
0.512600
0.584722
0.625849
0.636578
0.580549
0.624657
0.581741
0.608563
0.734925
0.646710
0.779629
0.749826
0.835657
0.769496
0.855923
0.841618
0.914931
0.860691
1.032948
1.228452
5.253553
17.017722
52.992702
102.599859
206.716657
301.392674
424.841642
507.728457
555.238724
540.213585
452.355742
349.413753
204.606652
122.726560
56.263804
26.484728
8.680820
5.127788
4.509687
4.033446
3.855824
3.687739
4.135966
6.165504
10.379553
15.436411
23.940802
32.149553
44.448972
52.280426
59.148669
61.360002
59.258938
53.829551
43.760538
35.420656
25.045872
18.179417
10.758638
##ZVALUE=355
0.433922
0.499487
0.471473
0.507832
0.620484
0.651479
0.360608
0.531673
0.572801
0.416636
0.530481
0.656843
0.472665
0.573993
0.540614
0.405908
0.492930
0.528693
0.431538
0.404716
0.598431
0.588894
0.543594
0.587702
0.455976
0.716448
0.470877
0.642538
0.544786
0.556707
0.683665
0.531673
0.713468
0.496507
0.635982
0.685453
0.763535
0.618696
0.593662
0.674725
0.704527
0.659823
0.713468
0.584722
0.659823
0.692606
0.692606
0.581741
0.692606
0.851750
0.778437
0.860691
0.847578
0.868440
0.955462
0.862479
0.985861
0.974536
1.136661
2.706647
9.223819
36.530495
74.212551
154.731870
242.627859
372.841954
464.601517
535.427928
534.682870
468.089581
377.433896
248.550773
157.145858
69.279671
32.937527
10.878444
5.688667
4.430413
3.785491
3.622770
3.396869
3.625751
3.946424
5.829930
8.097887
13.905764
19.482970
28.963685
36.729574
47.596693
53.317547
55.913925
54.818988
50.107837
42.857528
32.710433
##ZVALUE=360
0.476837
0.461936
0.564456
0.618696
0.553727
0.441670
0.534654
0.462532
0.502467
0.455976
0.518560
0.552535
0.455976
0.579953
0.369549
0.448823
0.465512
0.602603
0.466704
0.644922
0.531673
0.424981
0.455976
0.566840
0.559688
0.694990
0.687838
0.658631
0.508428
0.559688
0.492930
0.607967
0.675917
0.513792
0.537634
0.591874
0.671744
0.783801
0.698566
0.519753
0.615716
0.727773
0.618696
0.708699
0.599623
0.783801
0.674725
0.675917
0.728965
0.789762
0.713468
0.581741
0.686646
0.646710
0.663996
0.865459
0.858903
0.991821
1.065731
1.126528
1.261830
1.444817
3.942847
18.011928
44.066906
109.853745
183.571577
299.717784
390.943885
482.325554
507.146716
473.465919
405.368805
281.856656
191.827416
95.909834
50.248504
19.403696
8.268952
4.301667
3.811717
3.460646
3.408790
3.236532
2.935529
3.445745
4.180670
6.650686
9.972453
16.297698
23.131967
33.223629
40.300488
47.311783
50.963759
49.983859
##ZVALUE=365
0.534654
0.488758
0.479817
0.438690
0.522733
0.546575
0.572801
0.577569
0.611544
0.558496
0.527501
0.586510
0.484586
0.587702
0.597835
0.633597
0.534654
0.425577
0.532866
0.433922
0.590682
0.424981
0.618696
0.512600
0.576973
0.694990
0.488758
0.426769
0.463724
0.624657
0.539422
0.636578
0.546575
0.664592
0.714660
0.580549
0.634789
0.598431
0.524521
0.590682
0.700951
0.783801
0.624657
0.759959
0.666976
0.592470
0.548959
0.636578
0.576973
0.706911
0.545979
0.810623
0.732541
0.760555
0.704527
0.850558
0.734925
0.829697
0.782609
0.941753
1.034737
1.049638
1.056790
1.430511
2.083778
10.275841
27.755499
73.751807
134.968758
247.348547
333.317518
427.794456
475.259423
471.379757
416.220427
308.255553
223.526955
126.949549
68.993568
26.135445
11.343956
4.840493
3.671646
3.541708
3.183484
3.071427
2.815723
2.780557
3.049970
3.679991
5.331635
8.966923
13.184547
20.875931
27.146935
35.317540
##ZVALUE=370
0.518560
0.479817
0.422597
0.436902
0.584722
0.514984
0.395775
0.467896
0.431538
0.590682
0.567436
0.516772
0.525713
0.483990
0.571609
0.523925
0.495911
0.554919
0.452995
0.499487
0.507832
0.381470
0.581741
0.564456
0.469685
0.562668
0.613928
0.685453
0.504851
0.659823
0.617504
0.452995
0.386834
0.572801
0.514984
0.590682
0.544786
0.481606
0.682473
0.563860
0.530481
0.466704
0.560880
0.683665
0.515580
0.596642
0.647902
0.609756
0.491738
0.605583
0.622869
0.646710
0.651479
0.646710
0.657439
0.725985
0.602603
0.716448
0.691414
0.751615
0.806451
0.746846
0.824928
0.931621
0.916719
0.997782
1.297593
5.617738
17.478466
53.938627
102.098584
193.699598
279.604793
390.532613
444.650650
460.190773
423.011780
334.703922
254.578590
149.248838
87.296963
35.432577
16.597509
6.116629
4.078746
3.264546
3.284812
2.991557
2.790689
2.551675
2.534986
2.639890
3.117919
4.574656
6.924868
11.413693
##ZVALUE=375
0.555515
0.431538
0.591874
0.343919
0.263453
0.343919
0.487566
0.493526
0.401735
0.354648
0.391603
0.483990
0.562668
0.528693
0.620484
0.496507
0.501871
0.505447
0.535846
0.608563
0.626445
0.351667
0.527501
0.544786
0.518560
0.569820
0.419617
0.562668
0.329614
0.474453
0.499487
0.465512
0.399947
0.630617
0.583529
0.503659
0.678897
0.418425
0.640750
0.530481
0.538826
0.618696
0.464916
0.657439
0.629425
0.478625
0.442863
0.640750
0.659823
0.526905
0.543594
0.462532
0.596642
0.581741
0.582933
0.644922
0.571609
0.655651
0.651479
0.576973
0.832677
0.763535
0.826716
0.760555
0.722408
0.864863
0.899434
0.935793
1.080632
2.916455
8.976460
32.053590
69.985986
156.197548
239.459872
355.214477
420.926809
459.542871
448.659658
375.515819
293.931961
184.178948
114.972591
55.039525
27.854443
10.089874
4.956722
3.363490
3.257990
2.952814
2.648830
2.517700
2.674460
2.491474
2.539754
2.941489
##ZVALUE=380
0.491738
0.487566
0.336766
0.446439
0.609756
0.503659
0.530481
0.512600
0.512600
0.506639
0.422597
0.363588
0.455976
0.517964
0.541806
0.477433
0.408888
0.453591
0.553727
0.631809
0.470877
0.533462
0.532866
0.521541
0.584722
0.533462
0.509620
0.509620
0.637770
0.629425
0.490546
0.758767
0.560880
0.552535
0.742674
0.529885
0.487566
0.459552
0.515580
0.545979
0.626445
0.639558
0.588894
0.608563
0.501871
0.556707
0.564456
0.476837
0.616908
0.563860
0.563860
0.520945
0.588894
0.712872
0.700951
0.680685
0.539422
0.624657
0.633597
0.565648
0.560880
0.686646
0.617504
0.707507
0.699759
0.750422
0.730753
0.863671
0.852942
0.932813
1.018643
1.652837
4.811883
22.142529
51.142573
119.913816
192.946792
300.190449
378.435850
443.940759
448.749661
392.391682
320.531726
216.012001
144.592524
73.751807
38.429499
14.168620
6.764531
3.665686
3.199577
2.917647
2.626777
2.697706
2.626777
2.287626
##ZVALUE=385
0.493526
0.530481
0.534654
0.442863
0.564456
0.538826
0.393987
0.443459
0.428557
0.305772
0.385642
0.489950
0.491738
0.483990
0.476837
0.499487
0.584722
0.527501
0.509620
0.446439
0.472665
0.356436
0.413656
0.375509
0.411868
0.581741
0.494719
0.471473
0.551939
0.631809
0.807643
0.669956
0.684857
0.691414
0.778437
0.737906
0.760555
0.755787
0.611544
0.755787
0.667572
0.643730
0.766516
0.427961
0.616908
0.528693
0.689626
0.505447
0.520945
0.625849
0.533462
0.479817
0.616908
0.629425
0.458956
0.454783
0.686646
0.525713
0.546575
0.610948
0.685453
0.632405
0.481606
0.640750
0.704527
0.698566
0.641942
0.649691
0.944734
0.827909
0.931621
0.871420
0.891685
1.237988
2.497435
12.325644
31.761527
81.707835
143.442750
252.781510
337.712765
417.167544
441.055894
420.832634
369.004607
271.517634
194.840431
106.860995
61.414838
25.625825
10.937452
4.059672
3.015995
2.884865
2.633929
2.685785
##ZVALUE=390
0.432730
0.350475
0.428557
0.376701
0.389814
0.344515
0.404716
0.539422
0.472665
0.310540
0.526905
0.448823
0.478625
0.568628
0.468493
0.398755
0.539422
0.404716
0.487566
0.300407
0.415444
0.348687
0.530481
0.557899
0.452995
0.631809
0.616908
0.637770
0.535846
0.663996
0.768900
0.832677
0.927448
0.871420
0.821948
0.699759
0.788569
0.742674
0.679493
0.665784
0.715852
0.698566
0.700951
0.708699
0.648499
0.679493
0.519753
0.760555
0.581741
0.603795
0.675917
0.577569
0.545979
0.639558
0.526905
0.529885
0.712872
0.762939
0.592470
0.619888
0.496507
0.709891
0.609756
0.586510
0.687838
0.615716
0.754595
0.799894
0.679493
0.970960
0.850558
0.872612
0.817776
0.712872
0.950694
1.059771
1.368523
6.654859
19.815564
60.241818
112.106800
211.488605
294.321775
386.124849
428.530574
438.234806
402.378440
317.395926
243.575573
149.837732
86.689591
36.145449
17.814636
6.356835
3.451705
3.087521
##ZVALUE=395
0.380874
0.487566
0.446439
0.392795
0.475645
0.475645
0.368953
0.433922
0.424981
0.476837
0.335574
0.393987
0.470877
0.567436
0.557899
0.504851
0.454783
0.438690
0.546575
0.769496
0.410676
0.504851
0.427961
0.499487
0.480413
0.565648
0.542998
0.549555
0.506639
0.600815
0.630617
0.802875
0.710487
0.761747
0.612736
0.894666
0.750422
0.737906
0.725985
0.671744
0.815988
0.651479
0.616908
0.636578
0.691414
0.843406
0.683665
0.683665
0.752807
0.709891
0.558496
0.780821
0.587702
0.633597
0.779629
0.523925
0.820756
0.677705
0.726581
0.705719
0.500679
0.480413
0.682473
0.535846
0.695586
0.733733
0.802875
0.802875
0.929832
0.782609
0.701547
0.882745
0.833869
0.833869
0.878572
0.919700
0.923872
0.908971
1.265407
3.678799
12.749434
43.713450
83.852410
160.053968
236.696601
348.091722
416.149497
452.239513
436.873436
371.639729
289.815664
181.294680
113.855600
50.355792
25.254488
8.853674
##ZVALUE=400
0.575781
0.747442
0.536442
0.442863
0.521541
0.438690
0.427961
0.411868
0.568628
0.432730
0.309944
0.499487
0.432730
0.410676
0.376701
0.347495
0.517964
0.536442
0.415444
0.497699
0.496507
0.540614
0.364780
0.473857
0.599623
0.597835
0.572801
0.526905
0.554919
0.513792
0.570416
0.572801
0.698566
0.673532
0.654459
0.723600
0.867844
0.638962
0.724792
0.760555
0.647902
0.761747
0.564456
0.764728
0.674725
0.662804
0.737906
0.665784
0.704527
0.639558
0.601411
0.602603
0.683665
0.666976
0.661612
0.723600
0.702739
0.583529
0.735521
0.683665
0.578761
0.543594
0.641942
0.614524
0.547767
0.738502
0.786781
0.719428
0.849962
0.806451
0.863671
0.793934
0.891685
0.778437
0.801682
0.762939
0.592470
0.858903
0.869632
0.802875
1.038909
2.103448
6.620884
23.422837
52.037835
119.600892
196.142793
303.510427
380.333662
440.870523
448.766947
399.700999
327.621698
215.063691
142.415762
72.174668
##END
