##TITLE=D8-1
##FORMAT=SPECTACLE-ASCII V-1.2
##DATA TYPE=ULTRAVIOLET SPECTRUM
##SECOND TYPE=ULTRAVIOLET SPECTRUM
##DATE=01/24/18
##TIME=12:07:28
##SPECTROMETER/DATA SYSTEM=SPECTACLE
##XUNITS=NM EM
##YUNITS=ENERGY
##YFACTOR=1
##FIRSTX=220
##LASTX=410
##NPOINTS=96
##3DDATA=Equidistant
##ZUNITS=NM EX
##FIRSTZ=210
##LASTZ=400
##ZPOINTS=39
##XYDATA=(Y..Y)
##ZVALUE=210
15.391707
14.250875
12.546778
11.546612
10.034442
9.915829
9.047985
8.660555
7.167459
5.795956
4.159808
2.933741
2.229810
1.962781
2.286434
2.396703
2.355576
2.414584
2.799630
2.345443
2.595782
2.460480
3.538728
3.640652
4.154444
4.392862
5.009770
5.593896
6.010532
6.403923
6.571412
7.980466
7.114410
8.196831
7.691979
7.833838
7.196665
7.222891
7.752776
7.449985
7.341504
7.543564
7.381439
5.704761
6.650686
6.830692
6.133914
6.557703
6.352663
6.725788
6.888509
6.916523
6.178617
6.084442
6.314516
6.795526
6.345510
6.176829
5.189776
5.544424
5.381703
5.516410
5.721450
6.089807
5.774498
6.361604
5.950928
6.398559
7.194877
7.518530
8.707643
9.855628
10.333657
11.576414
11.931658
12.223721
11.292696
11.399984
11.117458
10.274649
8.971691
8.184910
8.428693
6.200671
5.345941
5.090833
5.532503
5.007982
5.109906
6.437898
8.532405
11.906624
16.785860
18.999577
25.423765
31.176805
##ZVALUE=215
37.774444
37.651658
31.217933
25.033951
19.628406
17.448664
18.087626
16.111732
15.328526
15.747547
13.836622
9.647608
6.791949
4.870892
4.326701
2.917647
3.263950
2.352595
2.540946
2.715588
2.741814
2.736449
3.109574
3.812909
3.820658
5.465746
5.973577
5.758405
6.298423
7.975698
8.506775
8.749962
9.395480
10.493994
10.842681
9.055734
10.007620
9.592772
9.080768
8.270741
8.785725
8.654594
7.879734
7.759929
8.211732
7.407665
8.013844
8.279681
7.480979
8.017421
7.524490
7.387996
7.834435
7.663965
7.944703
7.741451
7.216930
6.958842
8.433461
7.342696
7.998943
8.008480
6.330609
7.338524
6.825924
7.354617
6.344914
7.636547
7.824898
8.101463
8.775592
9.191632
9.675622
11.371970
12.978911
12.265444
12.724996
10.546446
11.127591
10.186434
9.054542
7.995963
8.436441
6.455779
4.967451
4.972816
5.098581
4.624724
4.302859
3.448725
3.491640
3.646612
4.661679
4.549623
6.210804
9.754896
##ZVALUE=220
77.878833
80.693960
77.922940
69.944859
60.663819
49.713850
41.359663
29.955506
29.309988
27.059913
27.275681
26.870966
23.391843
19.641519
13.843775
9.322762
7.021427
4.473925
3.925562
2.887845
2.529621
3.274679
3.429651
4.666448
4.262924
5.661845
7.068515
7.278919
8.681417
9.364486
9.809732
10.566711
11.978745
10.178685
9.966493
11.233687
10.569692
10.693669
11.039972
11.363626
10.412931
9.049773
10.069609
9.132624
10.742545
9.323955
8.555651
8.808970
9.217858
8.916855
9.210706
9.247661
10.491610
10.115504
10.629892
10.341406
10.460615
11.122823
10.744929
9.436607
9.851456
9.985566
8.818507
9.549856
9.054542
8.916855
9.062886
8.279681
9.114742
9.405613
10.235906
9.006858
10.934472
11.545420
11.811852
11.831522
11.889935
11.851788
11.983514
10.748506
9.494424
7.830858
7.632971
5.930662
6.285906
4.818439
5.600452
4.944801
4.135966
3.232956
4.314780
4.688501
4.575849
4.203916
4.116893
4.969835
##ZVALUE=225
98.077655
96.407533
117.216706
135.219693
138.252974
125.535727
111.691952
84.349513
63.941479
52.975416
42.267442
41.637421
38.900971
41.884780
39.881468
34.506917
27.920604
20.938516
16.934872
10.206699
5.848408
4.334450
4.052520
3.994703
3.955960
5.500913
5.701780
6.274581
6.554723
6.922483
7.648468
7.097721
9.142756
9.260774
10.011792
9.738803
10.532737
10.241866
10.069609
8.794665
9.137988
9.899735
10.584593
10.881424
10.149479
9.326935
8.843541
10.321736
10.400414
9.744763
10.596514
11.056662
12.035966
11.537671
11.681914
12.282729
11.612773
12.307763
10.818839
12.419820
11.927485
11.209846
10.581613
11.652708
10.709763
10.696650
10.104775
9.900928
9.868741
10.575652
10.713935
11.062622
11.494756
11.574626
13.328791
10.701418
11.458993
11.327863
10.021925
9.801984
8.882880
8.502603
7.931590
6.528497
6.755590
5.405545
5.354881
5.127788
4.765987
5.256534
4.552603
5.858541
4.500747
4.461408
4.663467
4.076958
##ZVALUE=230
59.518814
65.186620
98.698735
147.856474
182.379484
220.694542
229.606628
219.872594
189.005733
157.531500
107.337832
81.893802
65.519810
58.648586
61.378479
63.245893
65.713525
60.453415
52.187443
39.874911
32.230616
19.258857
12.089610
7.667542
5.407929
5.258918
4.375577
4.944801
5.199909
5.292892
6.436706
5.638599
6.109476
6.565452
7.609725
6.996989
8.249879
8.920431
8.309484
9.620786
8.461475
9.852648
9.926558
10.136962
10.271668
9.626746
10.014772
9.917617
10.433793
9.698868
11.680722
11.086464
11.749864
12.111664
12.248755
12.016892
11.647940
11.579990
12.826920
12.855530
11.985898
11.805892
10.784864
11.723638
12.229681
10.370612
10.112524
10.638833
11.005998
11.226535
11.441708
11.606812
11.619925
11.195540
11.926889
12.328625
11.866689
10.860562
10.863543
8.813739
9.084940
7.103682
8.001924
6.891489
7.212758
6.792545
6.824732
6.135702
6.228685
5.290508
5.258918
5.136728
5.191565
5.588531
5.535483
4.961491
##ZVALUE=235
14.311671
15.861988
42.338967
76.775551
119.747519
195.297003
258.436799
326.486826
351.463556
335.975885
310.341716
244.255662
185.581446
126.159787
99.800825
86.634755
85.381866
95.192790
102.515817
94.787478
88.947415
70.901513
56.627989
40.517449
23.705959
16.004443
9.710789
7.793903
5.300641
7.326603
6.419420
6.293654
6.853938
6.126761
6.912947
7.418990
6.771684
7.345676
7.395744
8.203983
8.339882
8.341670
9.064674
8.253455
9.978414
9.611845
9.157658
9.791851
9.226799
9.460449
9.578466
10.431409
10.400414
10.340810
11.305809
10.521412
11.556745
10.549426
10.291934
11.589527
11.275411
10.871887
11.800528
11.302829
10.489821
10.882616
10.203719
10.243654
11.292696
10.407567
12.201667
11.678934
13.887882
12.536645
13.030767
12.700558
12.081861
12.516975
10.426641
10.143518
10.024905
9.880662
8.480549
10.018945
8.700490
7.933974
7.065535
7.446408
7.111430
6.798506
6.150603
6.810427
6.845593
5.959868
5.489588
6.230474
##ZVALUE=240
1.949668
1.690984
5.004406
13.859868
32.695532
75.798631
134.757757
230.881572
312.449932
396.300554
446.363688
446.843505
410.972834
330.926776
259.800553
176.486969
127.606988
101.501942
101.108551
106.235743
112.942457
119.816661
116.493702
102.015734
82.644820
64.495802
45.779943
29.336810
19.286871
11.514425
7.959604
7.629991
7.102489
6.851554
6.776452
7.657409
6.463528
7.492900
7.230639
7.556677
7.604957
8.123517
8.023977
8.992553
9.037852
8.458495
9.115934
8.307695
9.335876
8.910894
9.094477
8.654594
8.787513
11.142492
8.614659
9.646416
9.822845
9.907484
9.755492
8.819699
9.817481
9.112954
9.887815
10.400414
8.825660
8.469820
10.285974
9.653568
9.667873
11.433959
10.073781
12.450814
12.491941
11.093616
12.384653
12.767911
11.263490
13.241768
10.694861
10.273457
8.740425
9.472966
8.403659
7.767677
7.933974
8.015633
8.167624
7.807612
7.099509
6.848574
6.972551
6.931424
6.624460
7.028580
6.207824
6.809831
##ZVALUE=245
1.356602
1.634955
1.475811
1.766682
2.951622
8.665919
28.992891
61.192513
138.469934
211.254954
334.043503
425.773859
487.765670
537.610650
513.079762
436.792970
363.735557
253.198743
181.258917
124.140978
99.796653
99.238753
115.559697
125.620961
133.833885
125.317574
110.468864
91.594458
71.245432
53.444505
36.464930
20.622611
14.685988
9.449720
8.545518
7.902980
8.342862
8.388758
7.668734
7.607937
8.568764
8.341670
7.934570
8.986592
8.290410
8.810759
9.011626
8.461475
8.753538
9.151697
8.541942
8.981824
8.588433
8.972883
8.928776
9.115934
9.024739
8.996725
8.239746
9.434819
9.432435
8.678436
8.893609
9.373426
8.925796
9.062886
8.996725
8.814931
8.109808
10.489821
10.265708
10.004640
11.207461
11.626482
11.360645
10.941625
10.662675
9.646416
8.666515
8.491874
8.910894
8.063912
7.495880
7.568598
7.256866
6.253719
6.161928
5.454421
6.129742
6.124973
6.609559
5.979538
6.003976
4.838705
5.521774
5.527735
##ZVALUE=250
1.392961
1.307726
1.296997
1.240969
1.615882
1.609921
1.959801
6.473660
17.905831
49.760938
99.276900
200.428963
302.120447
435.039997
525.681973
601.735711
608.329773
541.672707
464.090705
323.926806
225.124955
141.021609
100.667477
93.624592
105.633736
121.020675
132.671595
140.304565
131.748915
120.960474
97.756982
79.668760
53.856969
37.285686
22.342801
14.337897
10.077953
9.267926
8.094907
8.799434
7.742643
8.599758
7.425547
8.467436
8.975863
8.276701
8.967519
8.647442
7.937551
9.585619
8.595586
8.203983
8.768439
8.674860
8.377433
8.407831
8.419752
8.961558
8.393526
8.573532
8.177757
8.185506
7.948875
7.621646
8.512735
7.679462
7.304549
8.117557
7.635951
8.061528
8.721948
8.683801
8.939505
9.468794
9.226799
9.522438
8.133650
7.663965
7.195473
8.006692
6.735921
5.910993
6.098747
5.909801
5.330443
5.502701
5.079508
4.913807
4.716516
5.027652
4.412532
4.819632
4.360676
4.325509
4.464984
4.105568
##ZVALUE=255
1.224875
1.145601
1.070499
1.052618
1.268983
1.338720
1.455545
1.553893
1.960993
3.095865
13.851523
35.107732
69.819689
157.409906
249.850750
405.837893
514.605641
626.568794
675.406456
645.186901
566.051006
451.957583
284.090638
186.975002
106.700659
88.157654
87.696910
100.180507
128.710866
141.393542
144.036412
139.961839
129.385591
103.049874
80.676675
54.673553
37.121773
22.483468
16.014576
10.823607
9.293556
8.352995
8.294582
9.162426
9.540915
8.806586
8.749962
7.891655
9.918809
9.440780
9.557605
9.196997
9.179711
9.005666
8.444786
8.461475
7.905960
8.357763
8.453727
8.127689
8.216500
7.889867
7.702708
7.934570
6.894469
7.324815
7.616878
7.138848
7.147789
7.263422
7.310510
7.399917
7.305741
7.386804
7.859468
7.911921
7.409453
7.166862
6.206632
5.855560
5.653501
5.233884
5.074739
4.724860
4.444718
4.261732
4.677773
4.611611
4.511476
4.125834
3.999472
3.343821
3.960729
3.827810
4.057884
3.464818
##ZVALUE=260
1.044869
0.930429
1.010895
1.051426
0.962615
1.128912
1.109838
1.044869
1.347661
1.402497
1.488924
2.056956
6.188750
23.800731
52.106977
125.139952
219.467878
372.010469
507.810712
671.684742
750.709772
758.506656
675.925612
552.864671
371.153951
250.746608
144.873857
97.772479
74.921846
82.471967
104.037523
124.787688
142.411590
151.176453
142.031908
132.014751
103.446841
83.955526
54.258704
38.981438
24.422407
16.795993
11.482835
10.160804
9.834766
9.461641
9.095669
9.912848
8.921623
9.113550
10.066628
9.342432
9.458661
8.651614
9.538531
8.632541
8.519888
8.641481
7.994771
8.093715
8.268952
7.088780
7.063746
7.565618
7.176995
6.795526
6.589890
6.671548
6.501675
6.877780
6.941557
7.268786
6.829500
6.562471
6.880760
5.946755
6.069541
5.922914
5.481839
5.354881
4.870892
4.534721
4.220605
4.233718
4.103780
4.028678
3.437996
3.557801
3.829598
3.799796
3.404617
3.602505
3.251433
2.830625
3.442764
2.866983
##ZVALUE=265
1.049638
1.007915
0.818968
0.913739
0.944734
1.013875
1.084805
1.185536
1.034737
1.238585
1.275539
1.190901
1.290441
1.593828
3.400445
14.714599
36.141872
95.511675
173.039436
332.258940
468.813777
638.116002
743.062496
777.722001
716.832876
610.938668
457.059741
319.111943
180.859566
113.411546
71.571469
67.179799
82.329512
106.118917
131.092668
146.309733
151.966810
147.696733
127.354860
109.197497
79.789758
60.830712
36.753416
26.151538
16.161799
12.671947
11.219978
10.017753
10.234714
10.369420
10.347962
10.679960
9.831786
10.509491
10.166764
10.277629
9.418726
8.750558
9.062886
9.496808
7.977486
8.012652
7.447600
7.478595
7.694960
7.163882
7.208586
6.663799
6.974936
6.644726
6.846786
6.460547
6.560683
6.540418
6.496906
6.614923
5.549788
5.246997
4.532933
5.198717
4.537702
4.692674
4.084706
3.910661
4.025698
3.743768
3.874898
3.418922
3.356934
3.226995
3.209710
3.172755
3.008842
3.126860
2.854466
2.876520
##ZVALUE=270
0.715852
0.878572
0.870824
0.862479
0.867844
0.937581
0.884533
0.968575
1.155734
0.943542
1.150966
1.164675
1.133680
1.114607
1.064539
1.647472
1.728535
6.782413
19.167662
63.240528
127.264857
226.621628
407.505631
551.677942
706.574917
767.713785
757.875443
696.108937
546.094775
412.578583
285.874605
154.838562
92.464685
57.600737
60.386658
83.474517
106.073618
133.256912
149.080753
153.336525
149.137974
130.696893
112.422705
81.721544
61.367750
38.950443
26.432872
17.689466
14.109612
12.036562
11.301637
11.054873
11.292696
10.770559
10.658503
10.763407
9.503961
9.910464
10.220408
9.342432
8.848906
8.393526
8.240938
8.177757
7.670522
7.272959
7.463694
7.435679
7.007718
6.808639
6.971955
6.802678
6.656647
6.431937
5.913973
5.931854
5.877614
5.162954
5.394816
4.826784
4.880428
4.394650
3.888607
4.037619
3.575683
3.381968
3.916621
3.707409
3.167987
3.293753
2.973676
2.870560
3.021955
2.985597
2.668500
2.928972
##ZVALUE=275
0.752807
0.791550
0.777841
0.769496
0.773668
0.882745
0.853539
0.960827
1.013875
1.045465
1.002550
1.082420
1.056790
1.066923
1.189709
1.081824
1.056790
1.432896
1.291633
3.058910
11.255741
31.901598
96.140504
183.334947
354.150534
487.552881
648.614764
754.218698
796.426535
766.085982
677.398443
509.333014
362.086892
195.026994
115.753412
60.806870
48.880577
60.944557
79.817772
108.590722
127.256513
147.288442
154.002905
147.242546
133.924484
105.303526
85.864663
59.206486
43.948889
27.434826
20.082593
14.705658
12.392998
11.245608
11.215806
10.714531
10.315776
10.550618
9.767413
9.546876
9.701848
8.941889
8.888841
8.144975
8.066893
7.668734
7.530451
7.140636
6.838441
6.991625
6.963611
7.170439
6.618500
6.466508
6.155968
5.908608
5.929470
5.376935
4.922748
4.762411
4.886985
4.661679
4.221797
4.293919
4.000664
3.705621
3.478527
3.404617
3.565550
3.202558
3.159642
2.960563
3.368855
3.064871
2.796650
2.717972
##ZVALUE=280
0.659823
0.515580
0.783801
0.613928
0.755787
0.815988
0.906587
0.736713
0.961423
1.140833
0.915527
1.038909
0.902414
1.101494
0.988841
0.929832
1.018643
1.223683
1.201630
1.408458
1.521707
1.807809
7.259846
23.577809
76.222420
143.015981
273.183584
409.083962
597.707629
708.907843
731.520653
792.647600
724.998713
558.038950
418.362617
242.885947
146.525502
70.042610
45.507550
42.504668
55.902600
80.918670
103.368759
130.038857
141.401887
148.179531
143.290758
126.401782
106.459856
80.494881
60.270429
39.036870
27.873516
17.665625
13.913512
10.873675
9.720922
9.838939
9.374619
9.024739
9.081960
8.773804
8.525848
7.958412
8.231997
7.691979
7.698536
7.207990
6.868839
6.838441
6.459951
6.456971
6.595850
6.485581
6.420612
6.110668
5.587935
5.613565
5.459785
4.829764
4.929900
4.400611
4.545450
4.299879
3.757477
4.024506
4.078746
3.651977
3.513694
3.103614
3.360510
3.319979
3.191829
3.147721
3.018975
2.890825
##ZVALUE=285
0.555515
0.698566
0.674725
0.751615
0.895858
0.885725
0.895858
0.789762
0.641942
0.806451
0.816584
0.671744
0.707507
0.510812
0.869632
0.751615
0.889897
0.943542
1.079440
1.077652
1.113415
1.163483
1.170635
1.662970
2.904534
14.883876
38.144588
100.973845
182.022452
335.730910
468.914509
651.315451
753.203034
799.567699
765.271783
631.168485
501.236916
312.809944
197.835565
95.970631
52.963495
31.636953
34.896731
53.423643
71.128607
100.879669
119.396448
135.981441
141.876936
136.157870
124.279857
102.602839
83.230734
56.570768
41.023493
24.465919
17.259717
11.323690
9.240508
8.349419
7.928610
7.535815
7.601976
7.205606
6.625652
6.530881
6.827712
6.617904
6.387830
6.983876
6.677508
6.272793
6.180406
5.981922
5.895495
5.463958
5.279779
5.540848
4.610419
4.715919
4.288554
4.490614
4.535913
4.049540
4.046559
3.751516
3.708601
3.848672
3.361702
3.350973
3.283620
3.219843
3.030896
3.377795
2.938509
2.714992
##ZVALUE=290
0.556707
0.470877
0.425577
0.607967
0.661612
0.731945
0.760555
0.774860
0.742674
0.812411
0.616908
0.722408
0.805855
0.787973
0.808835
0.847578
0.942945
0.948906
0.930429
0.927448
0.984669
1.102686
1.083612
1.160502
1.156926
1.458526
1.955628
5.257726
23.400784
54.877996
132.723451
236.227512
372.782946
567.622781
694.191456
791.642666
790.601969
687.631965
571.726561
386.365652
256.590843
130.121708
69.555640
30.159950
23.277998
32.734871
45.761466
68.996549
89.155436
114.976764
127.481818
134.710670
135.198832
119.529963
100.404620
76.557994
56.452751
35.089850
24.704933
14.747977
10.373592
7.592440
6.547570
6.061792
6.041527
6.023645
5.723834
5.748868
5.794764
5.907416
5.885959
5.929470
5.956888
6.178617
5.444884
5.435944
5.112886
5.003810
4.505515
4.696846
4.603863
4.084706
4.090667
3.838539
3.870726
3.752708
3.285408
3.346801
3.156662
3.442764
2.980828
3.167987
3.070831
3.186464
3.184676
3.157854
##ZVALUE=295
0.528693
0.669956
0.619888
0.761747
0.510812
0.712872
0.660419
0.627637
0.771880
0.736713
0.514984
0.636578
0.618696
0.683665
0.648499
0.698566
0.790954
0.774860
0.746846
0.832677
0.868440
1.009703
1.066923
1.143813
1.195669
1.038909
1.071692
1.382828
1.462698
2.178550
7.513762
33.734441
76.465607
185.982585
305.899978
491.430759
625.779629
753.771663
789.021850
736.274719
637.546778
462.966561
322.562456
174.732804
97.022653
37.749410
21.035671
19.346476
25.915504
44.179559
60.774684
85.991621
101.872683
122.470856
127.255917
123.546720
114.463568
92.689991
74.228644
51.323771
36.526918
22.052526
14.544725
8.766651
6.470680
5.618930
5.215406
5.107522
4.906654
5.063415
4.992485
5.111694
5.098581
5.196929
5.080700
4.758835
5.165935
4.601479
4.532933
4.491806
4.273653
3.792644
4.013777
3.848672
3.693700
3.681779
3.483891
3.261566
3.440976
3.062487
3.189445
3.155470
2.973676
2.996922
2.824664
3.030896
##ZVALUE=300
0.651479
0.666976
0.605583
0.538826
0.498891
0.552535
0.583529
0.491738
0.492930
0.493526
0.646710
0.693798
0.597835
0.731945
0.621676
0.638962
0.759959
0.642538
0.715852
0.711679
0.807643
0.983477
0.813603
0.999570
1.004934
0.771880
1.078844
0.947714
1.099706
1.249909
1.348853
1.618862
5.145669
17.204881
59.708953
117.669702
250.199437
384.863615
569.084883
685.104728
774.935484
769.362450
670.554638
554.502010
371.475816
245.544910
123.820901
66.626668
25.745630
14.831424
16.451478
23.338795
38.726926
54.539442
76.950788
94.800591
113.361478
119.910836
117.212534
110.211968
91.041923
74.156523
51.489472
36.311746
21.342635
14.035702
8.210540
6.371737
4.935861
4.765987
4.415512
4.350543
4.619956
4.698634
4.659891
4.296899
4.028678
4.458427
4.008412
4.177690
3.634691
3.709793
3.661513
3.553629
3.546476
3.456473
3.153682
2.986789
3.213882
3.180504
2.866983
2.742410
2.793670
2.806783
2.683997
2.735853
##ZVALUE=305
0.574589
0.496507
0.522733
0.529885
0.476837
0.513792
0.654459
0.646710
0.424981
0.624657
0.673532
0.628829
0.647902
0.633597
0.681877
0.632405
0.504851
0.595450
0.661612
0.735521
0.564456
0.653863
0.670552
0.749826
0.847578
0.966787
0.880957
0.915527
0.776649
1.101494
0.924468
1.275539
1.256466
1.288652
2.778769
9.358525
38.274527
84.831715
194.622874
306.961536
484.371781
613.324046
731.753707
765.217543
708.875656
606.650710
439.487696
310.629606
164.033771
90.957880
37.092566
17.837882
11.518002
13.955832
23.253560
35.248995
55.203438
71.435571
92.086792
104.482770
112.840533
112.979412
101.730824
89.007616
66.612959
50.897598
32.418966
21.665692
12.141466
7.900596
5.214810
4.489422
4.262924
4.143715
4.130602
3.803968
3.685951
3.871918
3.585815
3.730655
3.579855
3.441572
3.477931
3.261566
3.173947
2.991557
3.039837
2.799630
3.047585
2.642870
2.771616
2.599955
2.551675
2.621412
2.592802
2.828836
##ZVALUE=310
0.643730
0.678897
0.639558
0.651479
0.540614
0.667572
0.543594
0.454783
0.641942
0.715852
0.507832
0.615716
0.635982
0.693798
0.755787
0.807643
0.729561
0.644922
0.791550
0.712872
0.681877
0.747442
0.654459
0.753999
0.655651
0.821948
0.702739
0.915527
0.925660
0.822544
0.942945
1.027584
0.897646
1.026988
1.078844
1.317859
1.754761
4.828572
16.107559
57.337880
111.535788
236.724615
364.314914
543.480515
664.220452
754.789710
747.984648
661.456585
547.959805
367.758870
245.483518
124.832988
68.150759
24.988651
12.020469
9.954572
12.707710
20.335913
29.933453
47.432780
62.586665
83.800554
96.877813
106.458664
106.609464
97.274780
85.698962
67.063570
50.784945
31.572580
21.867752
13.147593
8.414984
5.354881
4.326701
3.723502
3.478527
3.312826
3.349781
3.214478
2.981424
2.972484
2.728701
3.011823
2.821684
3.072619
2.917647
2.662539
2.764463
2.691746
2.631545
2.449751
2.430677
2.524853
2.496839
2.494454
##ZVALUE=315
0.489950
0.507832
0.635982
0.577569
0.587702
0.566840
0.640750
0.599623
0.533462
0.626445
0.793934
0.656843
0.525713
0.559688
0.503659
0.571609
0.706911
0.744462
0.749826
0.662804
0.718832
0.637770
0.791550
0.872612
0.954866
0.757575
0.745654
0.804663
0.847578
0.932813
0.852942
1.022816
0.918508
0.978708
0.929832
0.895858
1.212955
1.185536
1.300573
2.017617
10.713935
29.991865
89.506507
162.835717
313.823819
448.080897
612.771511
707.507730
746.538639
707.584620
582.885742
459.980965
286.948681
180.581808
84.954500
40.814877
13.838410
8.275509
8.604527
10.883808
17.887950
26.776791
42.125583
57.068467
76.971650
90.010762
99.597573
101.326704
91.278553
80.066919
60.350895
46.757460
30.247569
20.476580
11.884570
7.595420
4.731417
3.636479
3.217459
2.702475
2.621412
2.475977
2.405643
2.425909
2.212524
2.461672
2.413988
2.292991
2.398491
2.342463
2.245903
2.411604
2.271533
2.174973
2.012849
2.051592
##ZVALUE=320
0.460744
0.498891
0.369549
0.585914
0.454783
0.504851
0.541806
0.387430
0.483990
0.419617
0.535846
0.637770
0.381470
0.552535
0.612736
0.564456
0.619888
0.579953
0.490546
0.507832
0.509620
0.635982
0.618696
0.759959
0.598431
0.617504
0.722408
0.566840
0.884533
0.770688
0.912547
0.662804
0.858903
0.979900
0.941753
0.908971
0.841618
1.068711
0.892878
1.001954
1.201630
1.571774
3.812909
20.008683
52.313805
135.291815
226.574540
380.379558
505.185723
660.965443
720.611811
717.848539
654.119849
505.807996
373.022556
209.817886
121.315718
52.768588
24.592876
9.754896
7.128716
7.709861
9.687543
15.693903
23.717880
39.233565
52.525997
69.820881
83.090663
93.962550
93.889832
87.998509
77.202916
58.905482
44.375658
28.031468
19.101501
10.921955
6.857514
4.046559
2.848506
2.424717
2.317429
2.269745
2.100468
2.168417
1.941919
2.215505
1.848936
1.972914
2.085567
2.050996
2.070665
2.142787
1.969934
2.119541
##ZVALUE=325
0.475645
0.471473
0.525713
0.520945
0.365973
0.461936
0.535846
0.426769
0.524521
0.463724
0.677705
0.636578
0.536442
0.428557
0.537634
0.634789
0.504851
0.492930
0.682473
0.451803
0.589490
0.557899
0.624657
0.698566
0.731945
0.706911
0.649691
0.711679
0.669956
0.679493
0.646710
0.733733
0.760555
0.891685
0.815988
0.874996
0.807643
0.877976
0.737906
1.088977
0.959635
1.143813
1.188517
1.362562
2.417564
12.882948
33.236742
89.683533
162.150860
309.801698
436.353683
594.867468
676.105618
716.046691
670.127869
534.399748
410.468578
252.718925
153.869987
68.511963
33.989549
12.138486
6.953478
6.088614
6.523728
10.024905
14.322996
24.167895
35.169721
53.006411
66.061616
79.166889
86.020827
87.095499
81.340671
67.770481
55.424571
38.524866
27.968884
15.893579
10.112524
5.514622
3.931522
2.730489
2.448559
2.188683
1.906753
1.614690
1.750588
1.686811
1.851916
1.922846
1.578927
1.713634
1.815557
1.762509
##ZVALUE=330
0.450611
0.445843
0.407696
0.453591
0.550747
0.452995
0.425577
0.516772
0.560880
0.484586
0.399947
0.390410
0.487566
0.500679
0.575781
0.412464
0.612736
0.539422
0.481606
0.541806
0.536442
0.510812
0.628829
0.536442
0.507832
0.639558
0.636578
0.578761
0.764728
0.642538
0.632405
0.670552
0.609756
0.794530
0.737906
0.726581
0.695586
0.814795
0.891685
0.791550
0.872612
0.968575
0.976920
1.050830
0.952482
1.216531
1.424551
5.554557
17.764568
60.026646
115.666986
234.054923
349.254608
510.239005
616.739988
691.028833
675.456524
576.167703
467.481613
304.112434
197.944641
93.811750
48.466921
18.005967
8.472800
5.623698
5.132556
6.520748
8.469820
14.521480
21.501780
33.847690
46.606660
63.026547
72.870851
81.153512
81.620812
74.556470
65.280795
49.774647
36.665797
23.511648
16.163588
10.018945
6.426573
3.562570
2.505779
1.974702
2.009869
1.733899
1.627803
1.487732
1.611710
1.403689
1.503825
1.459718
##ZVALUE=335
0.408888
0.439882
0.412464
0.453591
0.346899
0.361800
0.434518
0.580549
0.411868
0.465512
0.420809
0.246763
0.407696
0.480413
0.465512
0.539422
0.460744
0.522733
0.627637
0.442863
0.360608
0.645518
0.481606
0.539422
0.456572
0.623465
0.585914
0.613928
0.552535
0.642538
0.606775
0.566840
0.697970
0.807643
0.611544
0.763535
0.714660
0.835657
0.653863
0.789762
0.756979
0.782609
0.936985
0.846982
0.858903
0.857711
1.018643
1.131892
1.227856
2.675653
8.992553
35.982728
77.214837
174.378753
281.605721
449.140668
562.095642
655.851960
670.979619
609.634519
513.316989
355.609655
241.305828
127.873421
66.935420
23.674965
10.400414
5.486608
4.842877
5.049706
5.555749
8.248687
11.897683
21.325946
31.235814
46.209693
57.246685
69.019794
75.904727
75.985789
71.399808
59.648752
48.545599
34.653544
25.843978
15.550852
10.498762
6.144643
3.824830
2.594590
2.035499
1.803637
1.647472
1.623631
1.665950
1.557469
##ZVALUE=340
0.447631
0.610948
0.496507
0.424981
0.352859
0.536442
0.424981
0.478625
0.543594
0.418425
0.522733
0.502467
0.550747
0.372529
0.544786
0.511408
0.513792
0.418425
0.538826
0.488758
0.541806
0.583529
0.493526
0.400543
0.620484
0.532866
0.457764
0.692606
0.579953
0.558496
0.567436
0.619888
0.571609
0.567436
0.703931
0.609756
0.653863
0.649691
0.729561
0.535846
0.701547
0.763535
0.808835
0.718832
0.720620
0.742674
0.906587
0.901818
0.954866
0.977516
1.219511
1.612902
4.611611
22.115707
53.400993
131.881833
227.217674
382.276773
490.186810
607.979894
651.246905
622.657537
547.307730
405.626893
286.723971
150.648952
84.095597
34.328699
6.009936
6.055832
4.889965
4.808903
4.474521
6.025434
7.937551
18.314719
19.967556
38.293600
42.838454
53.254962
65.241456
71.126819
70.034862
64.416528
57.788491
46.030879
35.579801
24.498701
13.426542
9.756684
4.830956
3.606677
2.335906
2.033710
1.572967
1.765490
##ZVALUE=345
0.428557
0.444651
0.504851
0.553727
0.471473
0.383854
0.496507
0.438690
0.467896
0.479817
0.424981
0.517964
0.482798
0.518560
0.529885
0.560880
0.531673
0.404716
0.361800
0.372529
0.502467
0.446439
0.612736
0.576973
0.603795
0.661612
0.532866
0.618696
0.557899
0.616908
0.564456
0.597835
0.499487
0.589490
0.636578
0.477433
0.484586
0.528693
0.630617
0.515580
0.626445
0.658631
0.548959
0.705719
0.744462
0.705719
0.602603
0.773668
0.875592
0.869632
0.907779
0.946522
0.953674
1.090765
2.239943
9.095669
38.023591
78.189969
169.079900
266.331434
416.988730
526.108742
615.995526
631.155968
563.582778
470.128655
320.373774
212.095976
99.881887
49.458742
16.939640
7.993579
5.004406
4.579425
4.108548
4.114509
4.582405
6.358624
10.866523
16.932487
27.713776
36.860704
49.323440
56.355000
63.709617
65.237880
61.918497
55.974722
44.903755
35.315752
24.277568
16.872883
9.993911
6.470680
3.876686
2.814531
##ZVALUE=350
0.399947
0.450611
0.432730
0.556707
0.583529
0.500679
0.485778
0.376701
0.535846
0.624657
0.351667
0.404716
0.500679
0.601411
0.459552
0.514984
0.502467
0.436902
0.404716
0.431538
0.560880
0.611544
0.530481
0.493526
0.481606
0.551939
0.404716
0.627637
0.494719
0.571609
0.320673
0.631809
0.598431
0.695586
0.688434
0.680685
0.555515
0.452995
0.642538
0.534654
0.431538
0.594854
0.818968
0.575781
0.672936
0.714660
0.720620
0.766516
0.707507
0.741482
0.861883
0.941753
0.896454
0.925660
1.113415
1.150966
1.333952
5.611777
18.059611
57.431459
110.670924
227.703452
335.626006
473.425984
562.469959
613.050461
586.119890
486.219525
375.823975
225.592852
138.416886
64.577460
30.194521
9.681582
5.365610
4.278421
4.007816
3.823638
3.786683
4.642606
5.834699
10.122657
15.248656
23.406744
31.354427
42.807460
50.973892
57.121515
60.101748
57.541728
52.056909
41.734576
33.806562
23.085475
16.286969
10.239482
##ZVALUE=355
0.463724
0.290871
0.302792
0.350475
0.269413
0.488758
0.407696
0.221729
0.359416
0.505447
0.405908
0.486970
0.566840
0.461936
0.518560
0.446439
0.391603
0.415444
0.422597
0.552535
0.449419
0.503659
0.501871
0.381470
0.678897
0.405908
0.536442
0.558496
0.619888
0.542998
0.335574
0.328422
0.619888
0.531673
0.460744
0.656843
0.631809
0.631809
0.610948
0.498891
0.602603
0.735521
0.638962
0.567436
0.605583
0.539422
0.672936
0.591874
0.717640
0.928640
0.868440
0.916719
0.806451
0.944734
0.937581
0.814795
0.868440
0.966787
1.069903
2.908707
9.870529
37.984848
78.565478
167.234540
265.554786
414.502621
509.849787
583.464503
589.837432
507.056713
412.208438
275.072455
174.432993
78.317523
38.224459
12.749434
6.060600
3.825426
3.819466
3.335476
3.341436
3.242493
3.773570
5.205870
7.866621
13.440847
19.202828
28.776526
36.769509
45.458674
51.201582
54.753423
52.788854
47.310591
41.061640
31.174421
##ZVALUE=360
0.531673
0.587702
0.576973
0.530481
0.542998
0.523925
0.689626
0.710487
0.483990
0.541806
0.605583
0.516772
0.723600
0.598431
0.493526
0.607967
0.581741
0.514984
0.704527
0.637770
0.601411
0.632405
0.564456
0.631809
0.586510
0.616908
0.618696
0.603795
0.745654
0.622869
0.712872
0.702739
0.647902
0.706911
0.799894
0.721812
0.795722
0.816584
0.619888
0.635982
0.696778
0.785589
0.618696
0.706911
0.796914
0.705719
0.699759
0.700951
0.662804
0.874996
0.764728
0.721812
0.817776
0.894666
0.904799
1.081824
1.066923
1.070499
0.971556
1.176000
1.307726
1.690984
5.475879
16.791821
54.724813
105.909705
213.453770
317.234993
462.941527
543.443561
578.407645
547.269583
444.477797
339.304805
202.337503
122.166872
53.902864
23.902655
7.873774
4.695654
4.019737
3.569722
3.398657
3.350973
3.112555
3.360510
4.599690
6.547570
10.771751
15.344620
23.678541
30.828714
40.039420
45.324564
49.277544
49.187541
##ZVALUE=365
0.532866
0.338554
0.364780
0.332594
0.358820
0.379682
0.483990
0.385642
0.401735
0.385642
0.476837
0.527501
0.433922
0.506639
0.490546
0.481606
0.585914
0.539422
0.636578
0.496507
0.634789
0.540614
0.603795
0.579953
0.502467
0.503659
0.369549
0.486970
0.493526
0.416636
0.505447
0.549555
0.538826
0.388622
0.479817
0.518560
0.651479
0.618696
0.554919
0.619888
0.659823
0.496507
0.565648
0.629425
0.681877
0.747442
0.708699
0.710487
0.656843
0.675917
0.769496
0.528693
0.674725
0.609756
0.697970
0.805855
0.630617
0.832677
0.885725
0.875592
0.985861
1.133680
1.089573
1.207590
2.063513
10.062456
28.838515
81.542730
149.015784
272.316933
378.971696
496.644974
554.112792
556.669831
498.176813
367.604494
262.925625
144.328475
78.746676
30.035973
12.637973
4.889965
3.822446
3.492832
3.166795
3.075600
2.860427
2.846718
2.985597
3.638864
5.070567
8.625984
12.494922
19.449592
25.580525
34.165978
##ZVALUE=370
0.524521
0.350475
0.302792
0.581741
0.488758
0.288486
0.321865
0.421405
0.466704
0.526905
0.563860
0.448823
0.475645
0.547767
0.514984
0.468493
0.440478
0.424981
0.415444
0.492930
0.505447
0.417829
0.458956
0.456572
0.476837
0.494719
0.350475
0.439882
0.476837
0.478625
0.424981
0.554919
0.683665
0.524521
0.635982
0.671744
0.692606
0.642538
0.659823
0.481606
0.639558
0.493526
0.496507
0.454783
0.503659
0.606775
0.618696
0.484586
0.595450
0.485778
0.553727
0.578761
0.710487
0.645518
0.624657
0.630617
0.699759
0.678897
0.745654
0.669956
0.970960
0.910759
0.881553
0.874996
0.852942
1.192689
1.392961
5.978942
18.091798
58.827996
113.641620
221.529007
324.729681
458.984971
528.725982
555.274487
520.630479
409.180522
303.281546
173.097849
98.047853
38.971901
18.327832
6.807446
4.067421
3.430843
3.472567
3.005862
2.861619
2.593994
2.473593
2.538562
3.124475
4.855990
7.054806
11.610985
##ZVALUE=375
0.391603
0.304580
0.517964
0.487566
0.547767
0.448823
0.548959
0.355840
0.464916
0.323653
0.506639
0.514984
0.433922
0.492930
0.372529
0.274777
0.576973
0.506639
0.436902
0.449419
0.382662
0.426769
0.420809
0.483990
0.404716
0.562668
0.371933
0.397563
0.531673
0.411868
0.582933
0.389814
0.551939
0.507832
0.679493
0.634789
0.657439
0.500679
0.559688
0.475645
0.446439
0.499487
0.539422
0.555515
0.699759
0.521541
0.558496
0.629425
0.472665
0.505447
0.680685
0.693798
0.562668
0.714660
0.746846
0.646710
0.715852
0.687838
0.653863
0.705719
0.734925
0.701547
0.734925
0.811815
0.872612
0.934601
0.989437
1.272559
1.267791
2.877712
9.747744
35.432577
75.538754
169.698596
263.832808
400.684476
487.218499
547.407866
536.161661
456.606746
356.628895
220.808983
137.871504
64.769983
32.506585
11.102557
5.242825
3.278852
3.109574
2.947450
2.826452
2.557635
2.479553
2.373457
2.374649
2.684593
##ZVALUE=380
0.441670
0.326633
0.596642
0.334978
0.397563
0.450611
0.444651
0.302792
0.408888
0.309944
0.333786
0.429749
0.424981
0.276566
0.456572
0.274777
0.484586
0.335574
0.406504
0.311732
0.419617
0.414848
0.534654
0.382662
0.434518
0.447631
0.340939
0.366569
0.544786
0.641942
0.277758
0.773668
0.454783
0.602603
0.544786
0.441670
0.654459
0.687838
0.513792
0.576973
0.547767
0.567436
0.644922
0.621676
0.467896
0.542998
0.572801
0.571609
0.646710
0.400543
0.492930
0.569820
0.460744
0.500679
0.656843
0.705719
0.463724
0.532866
0.567436
0.531673
0.560880
0.542998
0.585914
0.593662
0.733733
0.802875
0.814795
0.949502
1.005530
1.047850
1.325607
1.737475
5.570650
25.195479
56.698918
133.607984
217.661858
343.479514
438.429713
527.433753
537.360907
473.755002
392.311811
278.099775
186.619759
92.757940
48.772693
17.192960
7.643700
3.582835
3.082752
2.941489
2.654791
2.373457
2.448559
2.265573
##ZVALUE=385
0.370741
0.425577
0.314713
0.497699
0.252724
0.460744
0.287890
0.520945
0.441670
0.412464
0.559688
0.482798
0.432730
0.436902
0.391603
0.476837
0.365973
0.458956
0.444651
0.548959
0.394583
0.506639
0.373721
0.396967
0.547767
0.375509
0.536442
0.661612
0.611544
0.641942
0.537634
0.772476
0.558496
0.682473
0.557899
0.513792
0.710487
0.465512
0.615716
0.570416
0.744462
0.585914
0.615716
0.515580
0.538826
0.626445
0.526905
0.731945
0.576973
0.770688
0.673532
0.664592
0.634789
0.508428
0.503659
0.590682
0.546575
0.589490
0.556707
0.598431
0.549555
0.649691
0.464916
0.473857
0.580549
0.623465
0.729561
0.827909
0.784993
0.733733
0.817776
0.980496
1.083612
1.340508
2.831817
13.823509
35.924911
90.677738
161.596537
287.957788
385.900736
487.073660
519.113541
503.227711
449.668765
334.650874
238.493681
132.153630
75.256824
31.598806
13.137460
4.258752
3.097653
2.827644
2.828836
2.734661
##ZVALUE=390
0.553727
0.388622
0.383854
0.346899
0.479817
0.465512
0.596642
0.422597
0.386834
0.415444
0.593662
0.561476
0.548959
0.469685
0.463724
0.473857
0.473857
0.574589
0.475645
0.497699
0.468493
0.532866
0.593662
0.548959
0.654459
0.551939
0.659823
0.669956
0.487566
0.736713
0.689626
0.706911
0.685453
0.762939
0.837445
0.844598
0.754595
0.758767
0.708699
0.906587
0.633597
0.789762
0.707507
0.838637
0.826716
0.708699
0.607967
0.619888
0.707507
0.647902
0.823736
0.696778
0.692606
0.602603
0.726581
0.720620
0.650883
0.603795
0.675917
0.622869
0.701547
0.672936
0.616908
0.653863
0.732541
0.685453
0.701547
0.720620
0.903606
0.874996
0.911951
0.949502
0.913739
1.123548
1.099706
1.230836
1.699924
7.074475
22.450686
70.082545
131.121874
248.211622
334.741473
439.166427
499.407649
519.664884
485.669971
385.873914
296.746492
181.233883
105.602741
43.993592
20.279884
6.557703
3.544688
3.016591
##ZVALUE=395
0.410676
0.406504
0.378489
0.400543
0.469685
0.409484
0.312924
0.299811
0.319481
0.170469
0.425577
0.312924
0.414848
0.370741
0.439882
0.368953
0.446439
0.344515
0.343919
0.463724
0.469685
0.369549
0.352859
0.566840
0.564456
0.450611
0.525713
0.481606
0.560880
0.626445
0.555515
0.637770
0.685453
0.785589
0.761747
0.692606
0.740886
0.903606
0.707507
0.771880
0.575781
0.649691
0.782609
0.782609
0.557899
0.671744
0.605583
0.477433
0.612736
0.646710
0.575781
0.610948
0.538826
0.629425
0.552535
0.525713
0.513792
0.583529
0.660419
0.689626
0.684857
0.692606
0.622869
0.689626
0.661612
0.786781
0.588894
0.731945
0.855923
0.922680
0.847578
0.853539
0.862479
1.060963
0.835657
0.823736
0.937581
1.093745
1.219511
4.069805
14.260411
49.860477
95.193982
182.543397
272.360444
398.596525
476.191640
529.335737
520.250797
447.003841
355.587602
224.735737
140.484571
62.603951
30.420423
10.259748
##ZVALUE=400
0.667572
0.745654
0.555515
0.574589
0.497699
0.423789
0.639558
0.435710
0.626445
0.646710
0.504851
0.465512
0.494719
0.506639
0.464916
0.563860
0.537634
0.485778
0.594854
0.576973
0.585914
0.480413
0.628829
0.444651
0.689626
0.631809
0.553727
0.572801
0.695586
0.788569
0.743866
0.770688
0.703931
0.867844
0.793934
0.662804
0.689626
0.830889
1.002550
0.814795
0.686646
0.789762
0.870824
0.856519
0.796914
0.804663
0.713468
0.821948
0.801682
0.851750
0.807643
0.857711
0.841618
0.862479
0.776649
0.781417
0.692606
0.685453
0.844598
0.718832
0.771880
0.854731
0.619888
0.709891
0.850558
0.729561
0.842810
0.881553
0.975728
0.820756
0.894666
0.765920
1.071692
0.987649
0.924468
1.037717
0.818968
1.087785
1.132488
1.156926
1.304746
2.508759
7.338524
26.212931
56.842566
130.622983
210.783482
332.528949
417.827964
495.563745
510.043502
455.823541
380.940437
257.436633
171.728730
87.535977
##END
