##TITLE=D8-5
##FORMAT=SPECTACLE-ASCII V-1.2
##DATA TYPE=ULTRAVIOLET SPECTRUM
##SECOND TYPE=ULTRAVIOLET SPECTRUM
##DATE=01/24/18
##TIME=12:21:11
##SPECTROMETER/DATA SYSTEM=SPECTACLE
##XUNITS=NM EM
##YUNITS=ENERGY
##YFACTOR=1
##FIRSTX=220
##LASTX=410
##NPOINTS=96
##3DDATA=Equidistant
##ZUNITS=NM EX
##FIRSTZ=210
##LASTZ=400
##ZPOINTS=39
##XYDATA=(Y..Y)
##ZVALUE=210
14.339685
13.775826
13.594627
11.468530
11.207461
10.220408
10.264516
7.814765
6.072521
6.087422
4.166961
3.019571
2.640486
2.047420
2.168417
1.773834
2.104640
2.693534
2.651811
2.495646
2.594590
2.843738
2.916455
3.724694
4.019737
3.948808
4.620552
5.185604
5.946755
6.240606
7.356405
7.632971
7.183552
7.818937
8.009672
7.608533
8.075833
7.744431
7.281899
7.358789
7.640719
7.934570
7.543564
7.223487
7.138848
6.995797
6.640553
6.576777
6.132722
6.041527
6.475449
6.064773
6.132722
6.724596
6.218553
6.917715
6.502867
5.678535
6.327629
5.652905
5.431771
6.482601
6.304979
5.706549
6.105900
5.567670
5.952716
6.906986
6.331801
7.031560
7.898808
8.344650
7.989407
8.553863
9.222627
8.042455
9.228587
8.771420
9.136796
8.071661
7.849932
7.651448
6.509423
6.388426
5.390644
4.523993
5.046725
5.124807
5.356669
6.332994
7.896423
8.494854
11.701584
15.762448
20.066500
24.921894
##ZVALUE=215
33.840537
31.204820
27.537942
21.675825
21.353960
16.959906
17.108917
17.127991
16.115904
14.603734
12.407899
8.978844
6.999969
4.758835
3.453493
3.562570
2.372861
2.461672
2.417564
2.599955
2.423525
2.963543
2.765656
3.498793
3.884435
4.415512
4.584789
6.561875
6.545782
7.322431
8.340478
8.572936
9.098649
10.086894
9.717941
9.180903
8.324981
9.489655
10.092854
8.024573
8.567572
7.728934
7.762909
7.268786
7.627606
7.946491
7.171631
7.960796
6.735921
8.288622
7.422566
7.234812
8.282661
8.752942
8.280873
7.826686
6.829500
8.176565
7.370710
6.912947
6.905794
6.826520
6.877780
7.805824
6.391406
6.418824
6.287694
6.783605
6.807446
7.432699
6.682873
7.857680
9.840727
9.193420
7.757545
9.106994
8.383989
7.384419
7.303953
6.823540
7.111430
6.317496
5.291700
5.089641
5.262494
4.753470
4.161596
3.961921
3.913641
3.717542
3.652573
4.066825
4.015565
4.693866
6.699562
9.572506
##ZVALUE=220
66.316724
64.921975
67.922473
58.084726
52.898526
43.326616
35.099983
28.506517
28.475523
27.306676
26.480556
25.459528
20.894408
18.584728
14.311671
10.796785
6.674528
5.260706
2.992749
2.870560
3.418922
2.670884
3.722906
3.888607
3.897548
4.436970
5.189776
7.282495
7.332563
8.442998
9.134412
9.304881
10.774732
10.562539
10.386705
9.809732
10.412931
11.422634
11.385679
9.967685
9.355545
9.615421
9.009838
9.031892
8.749962
9.039640
8.753538
8.588433
9.078979
9.078979
9.843707
10.029674
9.693503
10.183454
9.871721
9.799600
9.606481
10.770559
11.326671
9.743571
9.632707
9.981990
8.810759
8.718967
8.689761
8.314848
8.448958
8.066893
7.779598
7.845759
9.140968
7.781982
8.417964
9.003878
9.351969
9.433627
8.477569
7.918477
7.331967
8.574724
7.298589
6.453991
6.520748
5.373955
5.838871
4.075766
4.712939
4.780889
4.075766
3.770590
3.838539
4.201531
3.962517
4.397631
3.623962
3.398657
##ZVALUE=225
77.335835
82.238913
96.066594
112.051964
114.857554
107.819438
96.462965
72.699785
57.244897
44.636726
41.237473
39.929748
39.531589
41.312575
39.505959
34.718513
26.749969
20.177960
13.148785
9.423494
5.615950
4.735589
3.521442
3.959537
3.751516
4.869699
5.566478
5.271435
6.226897
6.386638
7.086992
7.384419
8.030534
8.908510
9.699464
10.484457
9.788871
9.334683
10.514855
9.652972
10.280609
9.910464
9.135604
10.045767
9.671450
10.625720
8.945465
9.200573
9.875894
11.169910
11.403561
11.726618
12.278557
11.546612
11.723638
12.759566
11.695623
12.317896
12.089610
12.126565
11.845827
11.587739
11.965632
10.674596
10.137558
10.422468
9.841919
10.098815
9.923577
9.511709
11.144876
10.179877
9.700656
10.875463
10.080934
10.071993
9.939671
8.329749
8.888841
8.184910
6.598830
6.276965
6.058812
5.664825
5.424619
6.201863
5.289912
4.180670
5.508661
5.070567
4.448891
4.348755
4.267693
3.868937
4.274845
4.057884
##ZVALUE=230
50.892830
56.092739
83.502531
124.688745
157.473683
182.466507
190.092921
181.427598
159.715414
134.822726
95.922947
77.548623
62.163472
57.343841
60.636997
65.864921
65.658689
61.220527
50.077438
40.106773
30.253530
17.862916
12.095571
6.894469
5.950928
4.361868
4.551411
4.492998
4.178882
5.614758
4.977584
5.892515
6.464720
6.583929
7.321835
9.155869
7.337928
9.002686
7.896423
8.938909
9.566545
9.000897
8.979440
9.334683
9.289980
9.299517
10.179877
9.556413
10.342598
10.574460
11.495948
10.651946
11.700988
12.556911
11.675954
11.105537
11.936426
12.606978
11.977553
12.315512
12.309551
13.051629
12.963414
10.228753
11.481643
10.626912
11.167526
10.899901
10.716915
10.545850
11.441708
11.450648
12.369752
11.235476
10.917783
11.755824
11.064410
9.984970
10.342598
9.018779
8.279681
8.119941
8.363724
7.001758
6.534457
6.282926
5.888939
6.476641
6.586909
5.614758
5.911589
5.073547
4.936457
4.768968
5.759597
4.630685
##ZVALUE=235
13.261437
17.200708
32.892823
74.151754
115.032792
176.334977
221.727490
279.447436
301.790833
287.582874
268.484950
204.795599
161.366463
113.461614
92.123747
81.506968
83.756447
90.627670
94.721913
93.572736
86.959004
75.019598
52.263737
37.937760
23.985505
17.251968
10.003448
7.039905
5.839467
6.126761
5.808473
5.724430
5.454421
6.477833
6.659627
7.370710
7.122755
7.910728
8.529425
8.060932
7.142425
9.160638
9.119511
9.054542
10.073781
9.436607
9.454489
9.346604
9.955764
10.781884
10.645986
10.070801
11.834502
11.454821
10.478497
10.861754
11.848807
11.811852
11.364818
11.194944
12.739897
11.841655
11.291504
11.561513
10.401607
11.943579
10.158420
10.348558
12.525916
11.442900
12.424588
12.260675
12.297630
12.438893
12.827516
11.234879
12.700558
11.838675
10.599494
8.752942
10.083914
9.243488
8.655787
8.278489
7.874966
8.411407
6.541610
6.936789
6.025434
6.891489
6.449819
6.196499
6.869435
6.143451
6.418824
6.530881
##ZVALUE=240
1.818538
2.423525
6.302595
13.691783
35.602450
62.890649
127.505660
195.520520
293.070674
358.215570
402.599573
395.230651
372.221470
304.046869
240.114927
163.842440
125.600696
102.784634
99.517703
104.783773
116.255879
119.407773
118.359923
103.762746
83.807707
65.214634
44.818521
31.533837
19.870996
13.320446
10.383725
7.709861
7.762909
7.386804
6.474853
7.675886
7.198453
7.255673
8.296967
8.047819
8.092523
9.102821
8.797646
9.235740
9.317994
9.437799
9.219646
9.645820
9.765625
10.158420
10.058880
9.696484
10.648966
9.980798
11.008978
10.358691
9.628534
10.324717
9.926558
11.096597
10.917783
10.988712
9.287000
10.677576
11.356473
10.378957
10.287762
10.727644
11.233687
12.000799
11.950731
11.812449
12.642741
13.914704
12.901425
11.968613
11.472702
11.643767
10.892749
10.607839
10.886788
9.190440
8.598566
9.101629
8.553863
8.211732
8.704662
7.682443
7.269979
7.747412
7.060766
6.528497
7.598996
7.128716
5.761981
7.090569
##ZVALUE=245
1.361966
1.147985
1.372695
1.569986
3.292561
7.311702
26.105642
56.459904
119.760633
190.192461
304.373503
375.793576
441.597700
466.418862
455.335975
380.527973
315.034986
224.427581
159.174800
112.089515
99.664927
99.805593
116.320848
131.383538
134.103894
130.019784
114.973783
95.461607
69.370866
55.070519
39.132833
24.540424
16.573668
10.687709
8.505583
8.540750
8.306503
7.093549
8.554459
8.910894
8.725524
8.727908
9.101629
8.658767
9.025931
9.369850
9.570718
9.229779
8.642673
9.349585
9.207726
10.148883
10.210872
9.424686
10.085702
9.372830
9.953976
9.693503
10.019541
8.839965
9.584427
9.962916
9.817481
9.816885
9.857416
10.223985
10.474920
9.685755
9.782910
10.659695
9.863973
10.950565
10.599494
12.206435
10.954738
10.703802
10.913610
9.774566
9.906888
9.922981
8.128881
8.822680
7.687807
7.536411
7.119775
6.573796
7.226467
7.180572
6.620884
6.800890
6.534457
6.282926
6.481409
6.327629
5.368590
5.947948
##ZVALUE=250
1.231432
1.258850
1.421571
1.411438
1.437664
1.680851
1.838803
4.919767
19.493699
43.912530
104.926825
178.366899
261.912942
377.376676
454.073548
526.579618
525.066853
466.769934
398.442745
285.980701
203.013420
142.748952
98.251700
97.055435
107.127428
124.342442
138.403773
143.194795
134.209991
124.808550
106.541514
80.061555
61.842799
35.489798
26.003718
15.503764
11.554956
8.555651
9.340644
9.434819
8.907914
8.769631
9.548664
8.967519
10.030866
9.082556
9.610653
10.480881
10.160804
9.662509
9.719729
9.521842
9.403825
11.186600
10.440946
9.976625
9.609461
9.962916
9.748936
9.428859
10.212660
8.530617
8.743405
8.748770
8.373857
8.525848
8.672476
8.871555
8.320808
9.297729
8.979440
8.518696
9.654760
9.143949
9.290576
8.868575
8.529425
8.686781
8.270741
8.059740
7.018447
6.704926
6.571412
6.854534
6.194711
6.296635
5.389452
5.960464
5.540848
5.191565
5.331635
5.313754
5.196929
4.589558
4.748702
4.864931
##ZVALUE=255
1.177788
1.367927
0.985861
1.199841
1.244545
1.378655
1.198649
1.398921
1.770854
2.735853
12.927651
32.669902
68.371892
148.426890
229.922533
362.841487
455.933809
545.579791
575.934649
552.124977
485.087633
398.222804
256.042480
173.059702
106.849670
86.586475
88.235736
103.271604
126.878619
143.499970
147.394538
142.011642
133.376718
105.130672
84.924698
56.487918
40.441751
23.724437
15.882850
11.485815
10.404587
8.913875
10.182858
9.031892
9.951591
9.369850
10.285974
10.029674
9.918809
10.264516
10.460615
10.180473
10.429621
10.582805
10.315776
10.094643
9.897947
9.425879
8.886456
9.596944
9.231567
9.813905
8.924603
8.776784
8.770823
8.469820
8.082986
7.913709
8.184910
8.120537
7.759929
7.679462
8.220673
8.394718
7.527471
8.000731
7.337928
6.665587
6.509423
6.328821
5.858541
5.453825
6.091595
5.460978
5.711913
4.870892
4.607439
4.093647
4.632473
4.860759
3.659725
4.468560
4.332662
4.037619
5.130768
3.929734
##ZVALUE=260
1.024604
1.028776
1.259446
1.129508
1.090765
1.261830
1.050830
1.140833
1.269579
1.397729
1.575947
1.828671
4.861951
20.839572
47.608614
114.234686
190.081000
319.454670
427.627563
564.911962
626.813769
638.538003
562.004447
474.699736
318.697691
225.203633
133.179426
91.991425
74.368715
83.193779
100.262761
127.005577
143.698454
153.592825
151.453614
131.489635
114.116669
81.806779
62.168837
39.707422
27.092695
16.787648
13.028979
10.924935
10.054708
10.485649
10.968447
10.968447
10.863543
11.312962
10.463595
10.692477
11.023879
9.821653
10.195971
9.764433
9.766817
9.571910
9.738803
9.408593
9.338856
8.977652
8.952618
8.820891
7.937551
8.017421
8.239746
7.698536
7.747412
7.394552
7.255673
7.898808
7.389784
7.673502
7.313490
7.135868
6.324649
6.484985
5.728602
5.928874
5.522966
5.213618
4.681945
4.867911
4.793406
4.210472
4.164577
3.963709
4.071593
3.833771
3.930926
4.015565
4.017949
3.836751
3.821850
3.693700
##ZVALUE=265
1.020432
0.892878
0.880957
0.958443
0.863671
1.075864
1.088977
1.115799
1.093745
1.232624
1.112819
1.192689
1.230836
1.504421
2.935529
13.866425
33.282638
84.237456
152.248740
291.264653
413.080454
530.066490
651.313663
675.091743
618.651509
539.792776
403.415561
290.401578
166.793466
107.543468
76.159835
66.167712
79.961419
111.566782
132.448673
150.257945
158.348680
151.710510
135.206580
109.358430
89.103580
59.035420
42.356849
26.454926
19.377470
13.723969
11.733770
11.198521
11.575818
11.056662
11.116862
11.662841
11.857748
11.121631
11.360645
11.614561
10.891557
10.446906
10.327697
9.774566
9.714961
9.049773
9.111762
8.617640
7.945895
8.409619
8.227825
7.815957
7.609725
7.711649
7.517934
7.675886
7.345676
7.240772
7.493496
6.891489
6.327629
6.328821
5.719662
5.507469
5.150437
5.274415
4.968643
4.500747
4.163980
3.859997
4.154444
4.269481
3.904700
3.881454
4.112720
3.616810
3.713965
3.817677
3.716946
3.548861
##ZVALUE=270
0.937581
0.819564
0.982881
0.971556
0.958443
0.876784
0.790954
0.879765
1.105666
1.159906
0.912547
1.060963
1.292825
1.374483
1.585484
1.477599
1.840591
6.169677
18.041730
59.855580
117.382407
212.637782
374.032855
510.371923
650.257468
696.583986
692.940950
628.499985
488.210917
373.709798
260.602832
140.825510
86.762905
56.450963
61.618686
87.026954
108.409524
138.025880
151.159763
160.682797
156.027675
137.442946
116.889477
86.127520
64.701438
40.418506
29.449463
20.685792
15.785694
12.809634
13.016462
12.587905
12.698770
11.994839
12.243986
12.137890
11.958480
11.354685
11.696815
11.022687
10.977983
10.350943
9.719729
9.055734
9.270906
8.828640
8.280873
8.311868
7.514954
7.945895
7.738471
7.059574
7.559657
7.551908
7.269979
6.799698
6.831884
6.122589
5.566478
5.601645
5.230904
5.266666
4.885793
4.791617
4.425645
4.373789
4.207492
3.956556
3.901720
3.515482
3.820658
3.734827
3.774762
3.746748
3.583431
3.664494
##ZVALUE=275
0.838637
0.710487
0.940561
0.822544
0.774860
1.007915
0.847578
0.973940
0.921488
0.923872
1.143813
0.927448
1.109838
1.254678
1.230836
1.080632
1.288652
1.218915
1.349449
2.967715
10.403991
30.963421
92.304945
173.749924
332.928896
448.938608
597.860813
686.895847
730.254650
691.690445
607.400537
450.443625
320.090652
175.424814
106.913447
56.722760
48.530698
62.555671
83.647966
111.393929
130.829811
151.497722
155.952573
149.551630
135.195851
108.983517
88.369846
62.053800
46.524405
29.187799
22.176504
16.186833
14.228821
13.050437
12.186766
11.811852
12.087822
11.986494
11.585951
11.004806
11.560917
10.365844
10.212660
9.985566
9.174943
9.087920
9.329915
8.668900
8.420944
7.793903
7.789731
7.901788
7.542968
7.560849
6.902814
6.925464
6.838441
6.021857
5.747676
5.984902
5.674958
5.201697
4.764795
4.441738
4.492998
4.358888
3.943443
4.312992
4.403591
3.764629
3.998876
3.753901
3.640652
3.545880
3.737807
3.598928
##ZVALUE=280
0.875592
0.781417
0.857711
0.867844
0.676513
0.833869
0.868440
0.812411
0.927448
1.052618
0.933409
0.947714
0.747442
1.033545
1.049638
1.060963
1.097918
1.179576
1.359582
1.339912
1.391768
1.659989
6.796718
23.091435
73.353648
136.160851
259.598494
384.693742
549.400449
662.374496
729.128718
724.779963
655.480623
499.365926
369.228721
214.356780
131.755471
64.068437
44.085979
44.005513
57.605505
83.994865
105.285645
131.631494
146.283507
153.142810
147.365928
129.674673
110.992789
82.094669
64.159632
41.773915
30.010939
18.970966
14.853477
11.862516
11.360645
10.930896
10.698438
10.511875
9.840727
9.773970
9.611845
9.067655
9.348989
8.979440
9.181499
8.654594
8.569956
8.032918
7.865429
8.060932
7.426739
7.115602
7.020831
6.543994
6.227493
6.429553
6.233454
5.628467
5.530715
5.396605
5.059838
5.086660
4.548430
4.381537
4.138947
4.060864
3.854632
3.904700
3.860593
3.950000
3.408790
3.656745
3.837943
3.587604
##ZVALUE=285
0.818968
0.727773
0.597835
0.847578
0.543594
0.708699
0.637770
0.757575
0.849962
0.961423
0.837445
0.844598
1.004934
0.865459
1.000762
0.979900
0.976920
1.132488
1.096725
1.113415
1.128912
1.186728
1.284480
1.373887
3.330708
11.322498
39.848685
82.438588
183.742642
297.159553
429.100990
600.709915
702.281594
748.921633
709.646940
580.047965
454.087853
283.409953
178.642869
87.700486
49.747825
31.250715
35.238862
53.979754
72.749853
103.968978
119.085908
138.217807
145.068765
140.023828
128.603578
105.575919
86.850524
60.760975
42.723417
26.728511
17.729998
12.624860
10.416508
9.070635
9.093881
8.734465
8.180737
8.348823
8.604527
7.919669
7.868409
7.563829
8.072853
7.793903
7.152557
7.358789
7.088780
7.098913
6.496906
6.257892
6.633997
5.881786
5.897880
5.590916
5.660653
5.265474
4.943609
4.744530
4.675984
4.711747
4.629493
4.238486
4.045963
3.996491
3.754497
3.908873
3.752708
3.808737
3.919601
3.590584
##ZVALUE=290
0.624657
0.429749
0.640750
0.433922
0.483990
0.557899
0.385642
0.552535
0.576973
0.572801
0.896454
0.712872
0.802875
0.742674
0.676513
0.710487
0.713468
0.782609
0.821948
0.734925
0.910759
0.996590
0.635982
0.841618
1.015663
1.221895
1.653433
4.618764
20.857453
51.890612
104.583502
226.950645
356.100798
551.631451
663.567781
747.566819
738.082528
639.251471
517.867804
348.744988
230.048895
116.980672
63.002706
29.305816
23.416877
32.808781
46.709776
69.812536
89.065433
116.516948
130.230784
138.767958
136.838555
122.846961
104.839802
78.503489
57.692528
37.668943
26.266575
15.972853
11.313558
8.230805
7.468462
6.344914
7.012486
7.063746
6.366968
6.786585
6.664991
6.421804
6.366968
6.475449
6.161928
6.597638
6.411672
5.816817
5.743504
5.042553
5.178452
4.963875
5.086660
4.501939
4.328489
4.300475
4.103780
3.965497
3.901720
3.653765
3.904700
3.751516
3.654957
3.472567
3.571510
3.304482
3.297925
3.603697
##ZVALUE=295
0.655651
0.779629
0.733733
0.783801
0.678897
0.615716
0.911951
0.766516
0.678897
0.707507
0.798702
0.709891
0.754595
0.682473
0.816584
0.872612
0.800490
0.644922
0.783801
0.728965
0.888705
0.848770
0.965595
0.892878
1.114607
1.357794
1.251698
1.276731
1.533628
2.299547
7.212758
31.122565
73.017478
178.073645
292.407870
465.786457
591.990948
712.083578
735.398531
675.359964
576.021671
411.293507
285.267830
152.222514
83.919764
32.737851
19.933581
19.524693
27.582645
45.093894
61.795712
87.472796
104.998946
123.497844
131.237507
128.256679
117.029548
97.092986
78.253746
53.514838
38.070679
22.624731
15.490651
9.494424
7.149577
6.069541
5.816817
5.746484
5.887747
5.713701
6.166697
6.176829
5.626678
5.799532
6.111860
5.617738
5.693436
5.287528
5.066991
5.003810
4.635453
4.478693
4.427433
4.404783
4.126430
4.241467
3.850460
3.776550
3.794432
3.751516
3.842711
3.626943
3.618598
3.675818
3.798604
3.540516
##ZVALUE=300
0.648499
0.595450
0.652671
0.826716
0.551939
0.531673
0.619888
0.568628
0.599623
0.718832
0.610948
0.668764
0.758767
0.784993
0.651479
0.720620
0.806451
0.654459
0.713468
0.763535
0.882745
0.741482
0.852942
1.067519
1.023412
1.085997
0.999570
0.923872
1.256466
1.210570
1.452565
1.592636
4.611611
15.831590
55.365562
110.455751
235.918760
361.357927
531.612635
635.060668
710.191727
697.628856
605.455637
496.149659
328.558683
215.817690
108.439922
58.832765
23.128986
14.495850
16.675591
24.326444
40.637851
55.491924
80.270767
99.440813
116.543770
123.284459
121.691823
113.521814
94.439983
76.108575
52.971840
38.894415
23.348927
15.202761
9.454489
6.864667
5.697608
5.581975
5.450845
5.270839
5.008578
5.013943
4.961491
4.801750
4.795790
4.863739
4.787445
4.485846
4.383922
4.305840
4.350543
3.987551
4.198551
3.942847
3.794432
3.511906
3.519654
3.617406
3.462434
3.349781
3.148913
3.251433
3.399849
3.480911
##ZVALUE=305
0.566840
0.512600
0.472665
0.580549
0.616908
0.717640
0.441670
0.722408
0.754595
0.595450
0.581741
0.720620
0.700951
0.790954
0.722408
0.840425
0.815988
0.814795
0.724792
0.645518
0.627637
0.659823
0.745654
0.755787
0.780821
0.835657
0.962615
0.964999
1.046658
1.109838
1.176000
1.189709
1.389980
1.428723
2.145767
10.810494
29.912591
87.868571
162.442923
303.187966
427.482724
585.008860
667.148829
699.878931
653.929710
516.580939
403.538942
255.129933
159.123540
72.703958
36.634803
15.654564
11.371970
15.138984
22.568703
38.441420
53.374767
75.773597
93.286633
109.661818
117.027760
115.281940
106.770992
89.424849
71.779490
49.381852
35.481453
21.831989
14.051795
8.438826
6.294847
5.205870
4.999638
4.848838
4.683733
4.579425
4.455447
4.270673
4.179478
4.067421
3.904700
4.059672
4.030466
3.794432
3.963709
3.778934
3.721714
3.436804
3.388524
3.663898
3.244877
3.224611
3.293753
3.027916
3.169775
3.051758
##ZVALUE=310
0.578761
0.489950
0.590682
0.575781
0.711679
0.666976
0.832677
0.672936
0.697970
0.772476
0.672936
0.704527
0.585914
0.793934
0.810623
0.806451
0.757575
0.680685
0.662804
0.682473
0.845790
0.806451
0.782609
0.826716
0.857711
0.979900
0.941753
0.977516
0.949502
1.082420
1.015663
1.064539
1.077652
1.152754
1.078844
1.376867
1.691580
4.479885
15.380979
52.190423
104.642510
218.994617
335.485935
497.645736
604.629517
682.309866
673.489571
583.838820
483.150482
321.998596
214.677453
108.974576
58.328509
23.035407
11.587739
10.222793
13.159513
21.375418
30.855536
48.764944
65.847635
86.960793
99.769831
108.282566
109.133720
100.742579
88.777542
68.265796
51.433444
33.425689
23.093820
13.899803
9.361506
5.859733
5.100965
3.994703
4.089475
3.683567
3.663898
3.665686
3.506541
3.457665
3.243685
3.338456
3.432631
3.369451
3.239512
3.379583
3.169775
3.238916
3.169775
2.975464
2.953410
2.793670
2.989769
2.678633
##ZVALUE=315
0.435710
0.626445
0.578761
0.600815
0.549555
0.616908
0.514984
0.545979
0.757575
0.514984
0.581741
0.703931
0.665784
0.664592
0.794530
0.587702
0.585914
0.698566
0.614524
0.687838
0.639558
0.693798
0.624657
0.734925
0.667572
0.750422
0.841618
0.754595
0.743866
1.027584
0.898838
0.941753
0.891685
0.934601
1.138449
1.097918
1.004934
1.382828
1.242757
2.332926
7.712841
32.892823
73.685646
168.323517
276.129842
448.709726
553.984642
650.866032
676.703453
623.127818
532.463789
382.819772
269.137621
143.567920
79.433918
31.050444
14.564991
8.015633
8.556843
12.026429
17.959476
30.497909
42.614937
61.303973
77.895522
95.196962
101.983547
102.287531
96.151829
80.485940
65.326691
46.999454
33.624768
19.829869
12.499690
7.291436
4.920959
3.830791
3.360510
3.107786
2.859831
2.923608
2.760887
2.540946
2.670884
2.538562
2.452731
2.741814
2.481937
2.653599
2.296567
2.457500
2.579689
2.699494
2.656579
2.648830
##ZVALUE=320
0.400543
0.649691
0.633597
0.552535
0.601411
0.641942
0.551939
0.563860
0.497699
0.552535
0.537634
0.664592
0.582933
0.568628
0.622869
0.682473
0.634789
0.630617
0.517964
0.699759
0.739694
0.609756
0.601411
0.748634
0.698566
0.968575
0.770688
0.651479
0.692606
0.631809
0.612736
0.853539
0.966787
0.893474
1.022816
0.989437
0.980496
1.000762
0.954866
1.273751
1.273751
1.593828
3.645420
18.021464
47.615767
126.260519
211.082697
354.626775
476.242900
609.351993
662.763715
651.381016
583.284497
443.830490
326.033831
181.299448
105.326772
45.521855
21.607876
8.855462
7.051826
7.715821
10.518432
16.283989
24.439692
39.508939
54.083467
73.792934
86.491704
95.091462
97.705722
89.741945
79.307556
60.371757
46.246648
29.314756
20.176768
11.188984
7.221699
4.404783
3.339648
2.769828
2.639890
2.477765
2.420545
2.334714
2.242923
2.241731
2.097487
2.169609
2.335906
2.265573
2.381802
2.440810
2.308488
2.212524
##ZVALUE=325
0.514984
0.600815
0.628829
0.508428
0.416636
0.518560
0.572801
0.588894
0.596642
0.649691
0.599623
0.617504
0.620484
0.676513
0.510812
0.581741
0.640750
0.595450
0.578761
0.549555
0.608563
0.537634
0.622869
0.667572
0.592470
0.835657
0.771880
0.767708
0.813603
0.797510
0.712872
0.765920
0.863671
0.729561
0.715852
0.641942
0.744462
0.824928
0.906587
0.983477
1.097918
1.015663
1.148582
1.249909
2.208948
11.406541
30.412674
82.218647
150.504708
286.195874
400.443673
544.034839
620.801449
650.167465
605.253577
480.074883
361.608863
216.666460
133.194923
61.027408
29.933453
11.139512
6.624460
6.080866
6.824732
9.781718
14.587641
24.049878
36.142468
54.571629
67.221522
82.454681
89.205503
89.103580
83.137751
69.868565
56.920648
40.044785
28.547645
16.256571
10.506511
5.785823
3.927946
2.923608
2.467632
2.202988
1.937747
2.188683
1.940727
2.100468
2.007484
2.119541
2.137423
2.066493
2.386570
2.380610
##ZVALUE=330
0.532866
0.676513
0.682473
0.458956
0.539422
0.652671
0.599623
0.582933
0.563860
0.485778
0.441670
0.636578
0.502467
0.513792
0.492930
0.590682
0.437498
0.512600
0.539422
0.488758
0.620484
0.726581
0.569820
0.627637
0.571609
0.689626
0.701547
0.712872
0.639558
0.573993
0.642538
0.856519
0.786781
0.771880
0.670552
0.744462
0.678897
0.957847
0.904799
0.875592
0.771880
0.873804
0.982881
0.942945
1.123548
1.360774
1.469851
4.914999
15.379786
52.997470
103.731751
214.424729
320.351720
469.862819
562.614799
627.726912
610.333681
512.431860
410.200953
265.923738
169.934630
80.789924
41.394830
16.307831
7.893443
5.335808
5.775690
6.375909
8.346438
14.474988
21.723509
33.803582
47.100782
63.939691
75.132847
83.297491
83.680749
77.239871
67.266822
50.998926
38.484931
24.213791
17.005801
10.330677
6.487966
3.870726
2.816916
2.250671
2.209544
1.939535
1.958609
2.072453
2.031922
2.119541
2.087951
2.093911
##ZVALUE=335
0.445843
0.496507
0.528693
0.451803
0.503659
0.549555
0.465512
0.526905
0.525713
0.649691
0.460744
0.615716
0.603795
0.536442
0.594854
0.488758
0.450611
0.430942
0.655651
0.669956
0.502467
0.558496
0.640750
0.630617
0.513792
0.697970
0.711679
0.665784
0.647902
0.636578
0.692606
0.733733
0.800490
0.704527
0.593662
0.565648
0.598431
0.761747
0.654459
0.689626
0.841618
0.789762
0.806451
0.919700
0.761747
0.962615
1.076460
1.063943
1.191497
2.168417
10.061860
27.938485
79.055429
142.187476
267.532468
378.112793
519.174933
581.842661
594.719648
554.277897
435.962677
331.578851
197.698474
120.931864
52.717924
25.181770
9.394884
5.905628
4.959702
5.116463
6.118417
7.935762
13.352633
19.955635
32.446980
43.676496
58.881640
69.210529
77.410936
78.183413
70.932508
63.133836
49.366951
39.297938
25.964975
18.087626
10.272861
6.750822
4.027486
3.015995
2.303720
2.325773
2.097487
2.015829
2.136827
2.148747
##ZVALUE=340
0.537634
0.403523
0.510812
0.473857
0.505447
0.625849
0.654459
0.509620
0.481606
0.658631
0.590682
0.561476
0.324845
0.478625
0.440478
0.501871
0.464916
0.637770
0.557899
0.582933
0.580549
0.622869
0.745654
0.675917
0.514984
0.658631
0.626445
0.595450
0.649691
0.572801
0.655651
0.560880
0.692606
0.629425
0.658631
0.704527
0.534654
0.714660
0.846982
0.861883
0.779629
0.862479
0.946522
0.732541
0.847578
1.020432
0.617504
1.032948
0.888705
0.998974
1.041889
1.514554
3.986955
19.696951
48.292875
122.687817
206.313729
343.405008
451.492667
563.421845
605.544448
573.152900
500.415564
382.207632
264.950991
137.017965
78.062415
33.717752
14.173985
6.217957
4.937649
4.660487
4.517436
5.593896
7.591844
12.638569
19.321442
30.605793
41.316748
56.904554
65.133572
72.364807
73.033571
67.521930
60.457587
47.147870
37.285686
25.135875
17.799735
10.972619
7.123947
4.084706
3.263950
2.701879
2.656579
2.548695
##ZVALUE=345
0.380874
0.494719
0.347495
0.465512
0.518560
0.522733
0.566840
0.510812
0.539422
0.577569
0.419617
0.492930
0.455976
0.505447
0.439882
0.396967
0.509620
0.433922
0.517964
0.351667
0.468493
0.453591
0.558496
0.343919
0.282526
0.368953
0.574589
0.589490
0.584722
0.656843
0.515580
0.707507
0.718832
0.589490
0.565648
0.544786
0.555515
0.736713
0.395775
0.610948
0.590682
0.557899
0.676513
0.741482
0.766516
0.706911
0.749826
0.832677
0.864863
0.875592
1.027584
0.976920
1.010895
1.323819
2.089739
10.542870
29.230714
78.691840
142.784715
262.517929
363.572836
492.217541
552.577972
563.297868
517.556667
403.959751
305.568576
185.552835
105.793476
41.402578
19.329786
7.466674
5.174875
4.395843
4.073977
4.133582
4.555583
6.693602
9.986758
18.158555
26.575923
39.845705
49.352646
59.192777
64.954758
67.237616
64.367652
56.075454
48.294663
36.370754
26.953816
16.876459
11.515617
7.030964
5.116463
3.874898
##ZVALUE=350
0.557899
0.620484
0.477433
0.579953
0.482798
0.602603
0.594854
0.574589
0.627637
0.580549
0.616908
0.667572
0.665784
0.555515
0.767708
0.457764
0.590682
0.476837
0.551939
0.613928
0.595450
0.489950
0.447631
0.540614
0.711679
0.639558
0.541806
0.650883
0.598431
0.616908
0.580549
0.721812
0.610948
0.739694
0.637770
0.758767
0.539422
0.794530
0.591874
0.625849
0.798702
0.635982
0.643730
0.705719
0.841618
0.760555
0.877976
0.820756
0.750422
1.030564
0.844598
0.801682
0.794530
0.868440
0.862479
1.121759
1.227856
5.502701
16.974807
52.114725
100.651979
205.518603
304.442644
433.636904
517.704487
566.785932
545.762777
459.085703
361.015797
227.086544
132.289529
56.735873
25.298595
8.678436
5.136728
4.366636
3.960729
3.728867
3.612638
4.612803
6.159544
10.146499
15.068650
23.518801
31.640530
42.884946
52.252412
59.022903
61.484575
59.184432
54.203868
44.685602
35.868883
25.333762
18.945932
12.433529
##ZVALUE=355
0.460744
0.375509
0.591874
0.489950
0.520945
0.362992
0.408888
0.462532
0.383854
0.623465
0.479817
0.431538
0.527501
0.464916
0.453591
0.676513
0.496507
0.657439
0.583529
0.516772
0.538826
0.538826
0.470877
0.471473
0.495911
0.409484
0.729561
0.429749
0.682473
0.505447
0.472665
0.532866
0.777841
0.604987
0.653863
0.604987
0.485778
0.721812
0.557899
0.675917
0.670552
0.752807
0.627637
0.728965
0.738502
0.752807
0.843406
0.614524
0.738502
0.689626
0.688434
0.863671
0.774860
0.810623
0.691414
0.964999
1.023412
1.113415
1.142621
2.665520
8.980632
33.656955
70.425868
151.608586
243.137479
382.213593
469.212532
531.624556
526.794791
450.507998
364.409685
242.669582
155.269504
70.753694
34.250617
11.616945
5.862713
4.272461
3.937483
3.562570
3.364682
3.416538
3.794432
5.734563
8.290410
13.882518
19.894838
29.882789
37.541986
47.663450
53.030849
57.052970
56.577921
52.102804
45.822859
36.130548
##ZVALUE=360
0.418425
0.495911
0.484586
0.533462
0.557899
0.305772
0.489950
0.556707
0.505447
0.497699
0.466704
0.531673
0.588894
0.406504
0.608563
0.483990
0.442863
0.585914
0.484586
0.514984
0.562668
0.600815
0.404716
0.543594
0.534654
0.618696
0.471473
0.579953
0.614524
0.670552
0.623465
0.485778
0.539422
0.659823
0.631809
0.496507
0.764728
0.567436
0.519753
0.525713
0.657439
0.592470
0.642538
0.517964
0.625849
0.698566
0.694990
0.825524
0.715852
0.729561
0.873804
0.889897
0.826716
0.858903
0.928640
1.007915
0.979900
0.898838
1.008511
1.110435
1.079440
1.498461
4.418492
17.729998
43.630004
111.129880
192.423463
328.800678
443.886518
555.612445
580.837727
533.350706
443.955660
295.471549
193.947554
93.793869
49.646497
19.212961
8.621812
4.342794
3.829598
3.773570
3.439784
3.166795
3.209710
3.576875
4.638433
7.271767
10.777712
17.383695
23.976564
34.661889
42.118430
50.249696
53.867698
54.161549
##ZVALUE=365
0.534654
0.486970
0.420809
0.438690
0.403523
0.367761
0.535846
0.637770
0.496507
0.500679
0.369549
0.489950
0.733733
0.636578
0.612736
0.435710
0.450611
0.373721
0.311732
0.409484
0.492930
0.503659
0.555515
0.615716
0.601411
0.624657
0.581741
0.624657
0.515580
0.647902
0.516772
0.623465
0.478625
0.421405
0.640750
0.597835
0.567436
0.501871
0.857711
0.554919
0.701547
0.752807
0.593662
0.608563
0.662804
0.657439
0.721812
0.598431
0.695586
0.636578
0.607967
0.494719
0.783801
0.749826
0.871420
0.888705
0.815988
0.858903
0.893474
1.017451
0.944734
1.028776
1.093745
1.332760
1.939535
9.916425
26.701689
72.187781
140.676498
282.662511
400.992632
542.542934
614.200830
598.835945
518.848896
359.812975
240.938663
127.656460
70.264935
26.897788
11.998415
5.013943
4.012585
3.492832
3.425479
3.383756
3.330708
3.581643
3.898740
5.218983
6.976724
11.374950
15.641451
23.166537
30.262470
38.994551
##ZVALUE=370
0.471473
0.541806
0.558496
0.605583
0.482798
0.569820
0.486970
0.346899
0.473857
0.463724
0.306964
0.447631
0.577569
0.586510
0.444651
0.507832
0.498891
0.562668
0.439882
0.513792
0.606775
0.529885
0.480413
0.512600
0.655651
0.558496
0.478625
0.386834
0.572801
0.377893
0.442863
0.382662
0.685453
0.666976
0.727773
0.526905
0.618696
0.493526
0.621676
0.600815
0.624657
0.615716
0.759959
0.639558
0.544786
0.565648
0.531673
0.759959
0.691414
0.704527
0.756979
0.641942
0.655651
0.796914
0.732541
0.819564
0.658631
0.761747
0.725985
0.640750
0.769496
0.790954
0.838637
0.991821
1.034737
1.235604
1.427531
5.133748
16.064644
51.491857
99.821687
204.796791
311.805606
461.922884
545.906425
567.148924
517.233610
397.353768
284.619927
152.228475
86.714625
35.568476
16.492605
6.149411
4.156828
3.752708
3.630519
3.685951
3.821850
3.936887
4.252791
5.137920
6.214976
8.161664
10.730624
15.614629
##ZVALUE=375
0.418425
0.555515
0.545979
0.417829
0.461936
0.381470
0.502467
0.552535
0.454783
0.444651
0.411868
0.519753
0.459552
0.409484
0.381470
0.511408
0.552535
0.482798
0.605583
0.507832
0.444651
0.326633
0.632405
0.447631
0.460744
0.484586
0.362992
0.559688
0.500679
0.397563
0.592470
0.589490
0.561476
0.580549
0.554919
0.502467
0.582933
0.516772
0.439882
0.606775
0.646710
0.684857
0.741482
0.654459
0.538826
0.677705
0.601411
0.644922
0.519753
0.536442
0.557899
0.687838
0.610948
0.792742
0.563860
0.560880
0.682473
0.506639
0.713468
0.691414
0.852942
0.578761
0.817776
0.722408
0.726581
0.781417
0.970960
1.226664
1.042485
2.610683
8.431673
30.097961
66.024661
150.668621
242.077708
381.883979
461.065769
510.782003
498.593450
414.455533
314.434767
188.151598
117.451549
59.061646
30.827522
10.818839
5.384684
3.898740
3.740788
4.079938
4.183650
4.619956
5.081892
5.244613
5.780458
6.423593
##ZVALUE=380
0.556707
0.555515
0.407696
0.444651
0.581741
0.419617
0.542998
0.487566
0.671744
0.431538
0.518560
0.585914
0.529885
0.424981
0.380874
0.534654
0.529885
0.467896
0.587702
0.563860
0.550747
0.548959
0.481606
0.537634
0.551939
0.654459
0.474453
0.684857
0.825524
0.703931
0.607967
0.707507
0.666976
0.574589
0.778437
0.663996
0.707507
0.768900
0.609756
0.651479
0.709891
0.589490
0.580549
0.847578
0.679493
0.627637
0.686646
0.706911
0.768900
0.625849
0.745654
0.649691
0.703931
0.671744
0.647902
0.657439
0.632405
0.721812
0.637770
0.578761
0.661612
0.707507
0.655651
0.536442
0.588894
0.618696
0.677705
0.955462
0.908971
1.140833
1.151562
1.769662
4.625916
21.093488
49.277544
116.989613
190.781951
299.879909
385.028720
462.802649
469.077826
408.420563
336.849689
235.284567
156.884789
77.947974
41.053891
15.804768
7.443428
4.275441
3.927946
4.290938
4.411936
4.600883
4.753470
4.683733
##ZVALUE=385
0.571609
0.523925
0.532866
0.453591
0.572801
0.575781
0.640750
0.523925
0.558496
0.610948
0.512600
0.520945
0.723600
0.683665
0.705719
0.690818
0.723600
0.680685
0.591874
0.616908
0.560880
0.479817
0.719428
0.784993
0.631809
0.641942
0.794530
0.710487
0.721812
0.721812
0.723600
0.816584
0.773668
0.683665
0.902414
0.914931
0.740886
0.670552
0.881553
0.616908
0.901818
0.786781
0.820756
0.826716
0.968575
0.731945
0.981688
0.748634
0.569820
0.655651
0.739694
0.837445
0.787973
0.724792
0.778437
0.794530
0.752807
0.790954
0.884533
0.786781
0.828505
0.771880
0.755787
0.842810
0.797510
0.767708
0.892878
0.947714
1.139641
1.104474
0.979900
1.165867
1.082420
1.430511
2.628565
12.413859
31.540990
81.079602
143.177509
256.925821
345.607996
434.466600
461.914539
443.097949
390.870571
287.279487
203.374624
110.260844
63.792467
26.986599
12.188554
5.348921
4.617572
4.674792
4.773736
4.853606
##ZVALUE=390
0.427961
0.430942
0.463724
0.383854
0.412464
0.532866
0.627637
0.518560
0.359416
0.433922
0.471473
0.287890
0.267625
0.535846
0.479817
0.411868
0.456572
0.341535
0.546575
0.576973
0.580549
0.537634
0.434518
0.469685
0.502467
0.594854
0.466704
0.510812
0.589490
0.563860
0.723600
0.769496
0.587702
0.750422
0.835657
0.726581
0.751615
0.705719
0.713468
0.638962
0.697970
0.738502
0.569820
0.746846
0.638962
0.715852
0.750422
0.700951
0.615716
0.670552
0.702739
0.711679
0.628829
0.650883
0.623465
0.562668
0.637770
0.736713
0.598431
0.508428
0.569820
0.597835
0.628829
0.708699
0.793934
0.628829
0.706911
0.744462
0.710487
0.699759
0.845790
0.893474
1.006722
1.043677
0.971556
0.998974
1.528859
6.328821
19.181967
59.084892
112.620592
212.681890
293.225646
385.434628
439.917445
462.203622
431.943536
343.985558
263.930559
162.560940
93.842745
40.473938
19.916892
7.506609
5.584955
5.155802
##ZVALUE=395
0.626445
0.586510
0.594854
0.588894
0.686646
0.432730
0.444651
0.530481
0.432730
0.514984
0.412464
0.515580
0.540614
0.512600
0.536442
0.580549
0.546575
0.537634
0.533462
0.487566
0.516772
0.443459
0.465512
0.513792
0.457764
0.571609
0.532866
0.625849
0.712872
0.804663
0.779629
0.752807
0.826716
0.867844
0.719428
0.940561
0.771880
0.870824
0.759959
0.865459
0.891685
0.811815
0.824928
0.710487
0.833869
0.847578
0.725985
0.808835
0.871420
0.849962
0.706911
0.533462
0.687838
0.558496
0.793934
0.665784
0.938773
0.772476
0.832677
0.925660
0.687838
0.695586
0.669956
0.789762
0.715852
0.729561
0.853539
0.942945
0.845790
0.850558
0.848770
0.893474
1.038909
0.727773
0.815988
0.941753
0.940561
1.068711
1.151562
2.867579
15.092492
35.916567
86.336732
147.007704
254.438519
340.778828
435.739756
471.011996
462.663770
407.711864
304.300785
215.636492
116.177797
63.623786
25.204420
12.578964
##ZVALUE=400
0.660419
0.512600
0.509620
0.479817
0.383854
0.367761
0.433922
0.533462
0.524521
0.339746
0.373721
0.428557
0.463724
0.426769
0.540614
0.366569
0.547767
0.458956
0.517964
0.590682
0.489950
0.470877
0.489950
0.354648
0.556707
0.470877
0.379682
0.479817
0.547767
0.621676
0.588894
0.604987
0.663996
0.732541
0.632405
0.756979
0.666976
0.573993
0.765920
0.621676
0.675917
0.827909
0.510812
0.582933
0.669956
0.678897
0.649691
0.712872
0.718832
0.570416
0.618696
0.701547
0.738502
0.642538
0.601411
0.645518
0.559688
0.614524
0.592470
0.577569
0.568628
0.693798
0.633597
0.868440
0.730753
0.654459
0.813603
0.739694
0.833869
0.826716
0.794530
0.782609
0.761747
0.914931
0.870824
0.776649
0.958443
1.070499
0.936985
1.015663
1.096725
1.749992
7.595420
20.863414
59.502721
110.729933
214.058757
298.908949
401.476622
453.111529
466.378927
425.162911
332.216620
246.743560
143.073797
86.557865
##END
