##TITLE=FSH701
##FORMAT=SPECTACLE-ASCII V-1.2
##DATA TYPE=ULTRAVIOLET SPECTRUM
##SECOND TYPE=ULTRAVIOLET SPECTRUM
##DATE=03/27/18
##TIME=17:49:14
##SPECTROMETER/DATA SYSTEM=SPECTACLE
##XUNITS=NM EM
##YUNITS=ENERGY
##YFACTOR=1
##FIRSTX=220
##LASTX=410
##NPOINTS=96
##3DDATA=Equidistant
##ZUNITS=NM EX
##FIRSTZ=210
##LASTZ=400
##ZPOINTS=39
##XYDATA=(Y..Y)
##ZVALUE=210
2.210736
2.324581
2.439618
2.630949
2.896786
2.847910
2.855659
3.134608
3.278852
2.891421
3.702641
3.485680
3.534555
3.517866
3.612638
2.810955
2.938509
3.697872
3.402829
3.808737
3.722906
4.443526
4.169941
4.347563
4.806519
5.052686
4.887581
5.302429
5.799532
6.805658
5.679727
5.335808
5.962849
6.271601
6.339550
6.373525
6.277561
5.579591
6.245971
6.431937
6.245971
6.279945
6.932616
6.874800
5.247593
6.984472
6.067753
7.078648
6.581545
6.281734
7.331967
6.397963
6.537437
6.459951
6.660819
7.401705
6.628633
7.105470
6.852746
6.725788
6.838441
7.431507
7.448792
7.391572
7.640719
7.948875
8.273721
8.238554
11.175871
11.372566
12.365580
14.639497
16.705990
18.297434
19.835830
20.552874
18.702745
20.343661
18.655658
17.816424
16.419888
16.154647
14.459491
12.897849
10.269880
10.510683
8.863807
8.363724
7.412434
6.706715
6.865859
8.004904
7.940531
7.425547
8.693933
7.576942
##ZVALUE=215
4.937649
4.246831
4.062653
3.573895
3.478527
3.473759
3.917813
3.653765
4.627705
4.124641
4.859567
4.256964
4.167557
3.605485
4.233718
4.306436
4.241467
4.446507
3.874898
4.449487
4.414916
4.650950
4.884601
4.829764
5.450845
5.574822
5.805492
5.860925
5.720854
5.483627
6.170869
6.102920
6.522536
7.167459
7.217526
6.735921
7.371902
7.841587
6.345510
6.377697
7.071495
6.950498
6.927848
7.466674
6.020665
7.215738
6.757975
6.495714
6.848574
7.476807
7.089972
6.563663
6.873608
6.533861
6.911755
7.276535
7.369518
7.288456
6.911755
7.776618
6.774664
8.509755
7.129908
8.427501
7.661581
8.016825
8.250475
8.882880
9.674430
11.834502
12.036562
15.256405
15.452504
16.346574
18.224716
17.881989
19.271970
17.309785
18.418431
15.177727
15.904903
13.292432
14.260411
12.696981
11.632442
9.782910
8.710623
7.840991
7.129908
7.682443
7.050633
7.486939
7.536411
8.028746
7.571578
7.282495
##ZVALUE=220
16.337633
18.003583
19.460917
15.752912
13.882518
12.491941
8.932948
8.243918
7.515550
7.349849
9.282827
9.121895
9.770989
9.390712
8.534789
7.095933
6.006956
5.416870
5.108714
4.313588
4.711747
4.702806
4.624724
5.043745
4.645586
5.319715
5.593896
5.857944
6.090999
6.702542
7.584691
6.854534
7.592440
8.216500
7.489920
7.765889
8.380413
7.617474
7.137656
8.874536
8.588433
7.985830
7.515550
8.193851
7.314682
7.499456
7.590652
7.866621
7.573962
8.177757
7.480979
7.863641
8.281469
7.485747
7.396936
7.350445
8.010864
8.835793
7.786751
7.656813
7.556677
8.175969
8.905530
8.604527
7.992983
8.168817
10.181665
10.338426
11.764765
12.688637
13.441443
14.225841
15.384555
19.368529
19.575953
21.054745
19.650459
20.547509
18.538833
17.538667
16.156435
16.765594
15.538931
12.691617
11.714697
12.090802
11.200905
10.554790
10.957718
9.909868
9.843707
10.400414
9.971857
9.398460
10.107756
9.805560
##ZVALUE=225
34.267902
34.043789
45.068860
53.427815
58.874488
56.424737
52.469969
41.952729
30.442476
23.647547
18.393993
16.749501
19.085407
19.521713
20.846725
18.898845
17.787814
15.285611
13.980865
9.568930
7.800460
5.892515
4.760623
5.957484
5.967617
7.026792
6.679893
6.439686
8.038878
8.282661
8.884668
8.081794
9.154677
8.916855
9.114742
9.416938
9.516478
8.831620
8.775592
9.867549
9.533763
10.293722
9.012818
8.930564
8.223653
9.903908
9.008646
8.978844
9.622574
10.168552
10.094643
8.930564
9.298921
9.004474
9.633899
11.333823
9.425879
9.153485
9.885430
10.148883
10.827780
10.000467
11.386871
10.970831
10.875463
11.502504
11.673570
13.339520
13.113618
15.335679
17.924905
19.597411
17.286539
21.994710
21.468997
22.065639
23.080707
21.512508
20.773411
20.615458
20.215511
18.257499
17.085671
17.232895
18.583536
17.057657
16.760826
15.674829
15.569925
15.828609
14.877915
16.019940
15.127659
15.181899
14.432669
14.056563
##ZVALUE=230
33.169985
34.186840
61.985850
88.904500
128.020644
145.775676
160.672665
165.159702
145.390630
120.139718
84.603429
60.968995
44.089556
35.077929
35.111904
41.823983
42.015910
42.291880
38.382411
32.384992
25.510788
18.550754
12.112856
8.122921
6.543994
5.798936
6.474853
6.461740
6.930828
8.133650
7.635951
7.879734
8.371472
8.820891
9.829998
10.350943
9.040833
8.906722
10.878444
11.355877
9.455681
10.170937
9.608865
9.355545
10.094643
9.847879
10.175705
9.987950
9.778738
10.062456
8.873940
10.342598
10.363460
11.288524
10.186434
10.809898
9.946823
12.169480
12.741685
12.778640
12.556911
13.818741
14.194846
14.306903
13.845563
15.874505
16.421676
18.573999
18.695593
21.628737
22.837520
24.318695
25.273561
28.694868
28.351545
32.113791
30.374527
29.107928
29.362440
29.629469
27.935505
28.232932
27.800798
27.196407
28.465986
25.982857
26.621819
25.037527
27.344823
27.051568
27.005672
25.812984
24.704933
24.022460
25.802851
26.378632
##ZVALUE=235
14.313459
17.473698
35.874844
80.549717
131.972432
202.931762
267.699957
345.278978
376.029015
371.869802
331.174731
266.157985
181.304812
134.491920
89.122653
71.311593
65.179467
68.094730
73.389411
78.464746
71.136951
57.739615
51.280856
38.078427
24.021864
16.463995
12.633801
9.558797
9.987950
9.664893
8.231997
10.108948
10.818839
9.554625
9.838939
10.407567
11.804700
9.860992
10.397434
10.664463
11.299849
10.862947
10.313988
10.749698
11.686683
12.244582
11.955500
11.392832
11.320710
11.604428
13.614893
11.375546
12.262464
12.871623
13.464689
14.282465
15.630722
14.895797
15.456676
17.119646
17.739534
19.382834
19.905567
19.225478
20.261407
22.757649
23.663640
26.938915
26.910901
29.216409
32.851696
35.860538
37.267804
40.405989
43.124557
43.237805
44.368505
44.764876
44.500828
44.251680
43.589473
43.271780
41.229725
44.148564
42.238832
41.487813
43.422580
41.434765
42.514801
41.613579
41.743517
44.239759
41.199923
42.013526
44.734478
44.768453
##ZVALUE=240
2.494454
2.916455
9.078979
21.196604
57.979822
110.839605
217.528939
325.964689
477.738976
569.411516
626.499653
632.224679
573.764443
455.356836
357.646942
227.884650
159.504414
105.796456
95.148683
96.183419
106.822848
110.066533
106.014609
98.463893
81.939697
61.959624
42.861700
32.772422
21.479726
16.099811
13.049841
9.287000
9.561777
9.740591
10.755658
10.366440
10.743737
10.782480
10.876656
9.250641
10.161996
10.867715
11.252761
12.481809
11.260509
11.158586
11.997819
11.805892
12.766719
11.235476
13.060570
13.142824
13.068914
12.813807
14.373660
15.035868
15.961528
17.676950
16.191602
17.465949
18.688440
18.357635
21.232963
21.867752
23.546815
26.769638
27.897954
30.458570
31.646490
33.292770
36.678910
39.165616
44.123530
45.486689
46.855807
50.086975
52.478909
52.247643
52.368641
51.345825
51.490664
53.760409
56.171417
52.627921
55.912733
54.605603
55.630803
56.756735
53.521991
54.217577
56.560636
55.822730
54.625869
54.987669
54.324865
54.988861
##ZVALUE=245
2.657771
2.570748
2.452731
3.067851
6.420612
18.222928
57.571530
116.899610
248.474479
376.335979
567.823648
703.431964
791.353583
818.772912
771.273971
636.157990
507.654548
348.094702
233.871937
137.097836
106.986761
99.056959
109.284520
120.415688
123.423934
125.936866
111.251473
94.392896
72.329640
52.694678
35.553575
24.903417
17.624497
12.556911
11.239648
10.646582
9.936690
11.080503
10.927916
10.902882
11.364818
11.145473
11.500716
11.692643
11.807680
12.220740
11.376739
11.619925
11.452436
12.620687
13.308525
12.525916
14.575720
11.372566
12.516975
12.912750
14.195442
16.020536
15.665889
17.373562
17.963648
17.669797
20.178556
20.707846
22.349954
24.790764
26.541948
26.487708
31.036735
33.196807
34.746528
38.777590
41.954517
46.604872
46.472549
49.462914
48.299432
50.349832
53.606629
51.910877
53.341985
55.434704
54.677725
53.221583
56.198835
56.246519
56.898594
57.492852
56.648850
59.024692
57.542920
56.681633
58.002472
57.086945
58.421493
58.344603
##ZVALUE=250
2.458692
2.569556
2.325773
2.559423
2.741814
3.176928
4.442930
24.490952
47.088861
95.789433
321.208835
405.194759
556.932688
775.327682
966.990590
973.481536
966.454744
839.821696
545.785427
500.118732
233.459473
198.658705
120.850801
100.084543
101.726651
120.087862
132.748485
138.106942
135.234594
122.037530
103.009939
78.801513
59.856772
35.294890
25.650859
18.174648
13.297796
12.248755
11.700988
11.413693
11.501908
12.178421
11.057854
10.999441
12.797713
11.946559
10.879636
11.815429
11.470914
11.310577
12.264848
11.551976
12.804866
12.372732
13.249516
12.705922
13.707876
14.071465
14.525652
14.352798
15.698671
17.229915
18.284917
18.404722
19.067526
20.769835
24.293661
25.495887
27.390718
32.553673
30.770898
37.514567
37.493706
40.107965
41.472912
45.781732
45.111775
47.454834
48.257709
49.645901
49.722791
52.643418
51.049590
53.533912
55.449605
54.621696
54.358840
54.153800
58.004856
55.652857
54.158568
56.872964
56.585670
57.317615
55.061579
58.310628
##ZVALUE=255
1.998544
2.103448
1.897812
2.297759
2.276897
2.339482
2.737641
2.394915
3.050566
18.314719
31.925440
73.931813
308.017731
327.932835
536.473989
729.221702
1015.605927
1015.605927
1015.605927
1015.605927
773.333907
632.730722
345.911980
245.178938
159.786940
99.685788
94.721913
105.248690
121.423602
140.932798
145.959854
141.207576
128.209591
107.978582
85.204840
42.704940
39.600730
26.737452
18.761754
14.216900
11.824965
12.191534
12.713671
12.116432
11.775494
12.172461
13.055801
12.666583
11.878610
12.532473
13.213754
12.574792
11.931658
12.084842
12.983680
12.777448
13.282895
13.194680
13.561845
14.260411
15.691519
14.925599
17.105937
17.186999
18.314719
20.368695
21.522641
22.835732
24.297833
25.789738
27.977824
30.420423
33.350587
36.276579
36.698580
38.567781
40.068626
42.594671
42.388439
44.362545
44.892430
44.802427
47.069788
47.421455
49.097538
51.298738
49.498677
52.622557
49.889684
53.390861
53.363442
54.581761
53.628683
54.466724
53.631663
54.923892
##ZVALUE=260
2.074838
2.076626
2.324581
2.093911
1.960993
1.931787
2.322793
2.408624
2.646446
2.607703
3.001690
4.359484
11.967421
51.617622
115.040541
277.573466
441.013575
713.708997
924.903750
1015.628576
1015.628576
1015.628576
1015.628576
877.118111
584.847927
390.236974
223.089457
134.949684
87.355971
85.742474
105.640888
125.869513
142.951608
153.569579
147.989988
133.839846
114.181638
87.057948
64.862967
44.030547
30.167699
20.535588
16.852617
13.602972
13.140440
13.087988
13.794899
12.676716
13.903975
13.727546
13.462901
13.168454
12.926459
12.797713
13.003945
12.929440
13.349652
14.008880
14.628768
14.153719
15.288591
15.657544
15.834570
16.759634
16.994476
19.036531
19.399524
21.533966
23.493767
25.118589
26.266575
29.482841
30.980706
32.776594
33.970475
35.880804
35.703778
39.159656
38.478971
40.580630
43.939948
43.482780
45.013428
46.779513
46.599507
47.819614
47.114491
48.471689
50.582886
49.012899
50.383806
50.928593
51.637888
52.175522
51.547885
53.019524
##ZVALUE=265
1.813769
1.929998
1.858473
1.850724
1.608729
2.249479
1.891851
1.942515
2.186894
2.239943
2.140999
2.750754
2.524853
3.152490
8.867979
29.660463
98.284483
199.638605
353.686810
650.569797
901.045799
1015.605927
1015.605927
1015.605927
1015.605927
984.203815
775.896907
485.986471
310.685635
186.742544
99.151731
76.002479
85.339546
110.132694
133.761764
148.534775
159.319639
151.867867
135.769844
114.482641
90.583563
64.146519
47.063828
28.799772
22.227764
15.841722
14.998913
13.330579
14.829636
14.453530
13.664961
13.321638
13.985634
14.332533
13.767481
14.266968
14.030933
14.823675
14.540553
15.314817
15.193820
15.970469
17.363429
16.930699
19.171834
19.239783
19.641519
21.825433
23.045540
23.564696
25.625825
28.067827
30.723810
31.039715
33.326745
34.811497
34.643412
35.225749
37.954450
38.756728
38.694739
40.888786
42.503476
43.261647
43.415427
44.189692
44.930577
46.682954
47.354698
46.288967
47.806501
48.110485
47.424436
50.111413
50.664544
50.525665
##ZVALUE=270
1.925826
1.705885
1.778603
1.809597
1.760721
1.756549
1.777411
1.866817
1.810789
2.029538
2.162457
2.335906
2.365708
2.432466
2.802610
3.024936
3.808737
13.247728
59.032440
135.979652
318.114758
538.738966
907.748938
1015.605927
1015.605927
1015.605927
1015.605927
1015.605927
992.478728
689.435005
468.529463
238.651633
137.254596
76.348782
68.071485
88.309646
110.178590
137.581825
153.610706
160.482526
155.948997
137.544870
117.646456
89.105964
68.332553
43.725967
30.848980
21.708608
17.917752
14.978647
14.862418
13.839602
14.194846
13.933778
14.724731
14.924407
14.498830
15.368462
14.797449
16.083717
15.945435
16.892552
16.984940
18.253922
18.937588
19.750595
20.189881
21.890998
23.275614
24.545789
25.578737
27.249455
28.403997
30.761957
31.622648
34.074783
35.101771
35.794973
37.205815
36.742687
38.024783
39.290786
40.439963
40.972829
41.515827
42.130947
41.780472
43.176413
45.621991
44.649839
45.974851
45.550466
45.112967
46.176910
47.514439
48.419833
##ZVALUE=275
1.650453
1.752973
1.698732
1.747608
1.563430
1.625419
1.719594
1.798868
1.882911
1.929998
1.837611
1.938939
1.988411
2.069473
2.111793
2.260804
2.622604
2.766848
3.237724
8.436441
30.688643
82.842708
237.210989
433.600545
787.153840
1011.283994
1015.605927
1015.605927
1015.605927
1015.605927
1015.605927
907.487869
640.063882
335.586667
190.783739
85.778832
58.692694
64.103603
83.009005
110.238791
132.313967
153.768659
157.897472
151.531696
138.036609
111.304522
91.707706
64.515471
47.969818
31.224489
23.357868
18.016696
15.787482
14.616847
14.431477
15.139580
14.375448
14.593601
14.976859
15.748739
17.076731
17.721653
17.976761
18.903613
19.828677
20.739436
21.615624
22.659898
23.050904
25.679469
27.227998
27.936697
28.396845
31.348467
32.946467
33.751726
34.514666
36.559701
37.048459
38.126707
38.048625
38.075447
39.414763
40.203929
41.678548
40.702820
42.275786
42.907596
42.185783
42.551756
44.635534
43.394566
44.375658
45.560598
44.514537
45.136809
##ZVALUE=280
1.511574
1.571774
1.462698
1.608729
1.519918
1.642704
1.669526
1.830459
1.650453
1.768470
1.750588
1.669526
1.740456
1.894832
2.086759
1.980662
1.880527
2.221465
2.641678
2.966523
2.987981
3.851652
18.895864
63.002706
190.217495
343.164802
625.482798
887.715816
1015.606523
1015.606523
1015.606523
1015.606523
1015.606523
998.315811
749.363899
425.282717
252.740979
111.066699
62.184930
48.318505
58.177710
84.642768
106.477737
132.354498
144.324899
152.170658
147.380829
133.460760
113.011003
84.612966
64.560771
44.179559
32.647848
21.665692
17.701983
16.174912
15.339851
15.575886
15.638471
16.281605
16.724467
17.529726
18.820763
19.668937
20.697713
20.898581
21.813512
22.806525
24.947524
25.748610
27.186871
29.182434
30.350685
31.600595
33.252835
34.378767
34.127831
35.980940
36.107898
37.901998
38.133860
39.588809
38.875937
39.743781
40.158629
42.124987
41.872859
42.499900
42.563677
43.014884
43.215752
42.297840
42.526722
43.547750
42.635798
43.194890
##ZVALUE=285
1.458526
1.445413
1.427531
1.368523
1.599789
1.271963
1.614690
1.580715
1.554489
1.691580
1.767874
1.710653
1.762509
1.996756
2.238750
1.951456
1.817942
2.108812
1.933575
2.399683
2.450943
2.533793
2.770424
3.177524
9.415746
32.866597
108.113885
218.060613
462.480783
710.994005
979.170799
1015.607715
1015.607715
1015.607715
1015.607715
1015.607715
937.137604
576.394796
361.944437
168.595910
86.870790
41.626692
38.143992
56.283474
75.843930
105.159879
122.982860
141.999722
149.241686
145.496726
133.624673
112.343431
91.454983
64.670444
48.371553
31.497478
23.666620
18.857718
17.562509
17.082691
17.713904
17.787814
18.971562
19.890666
20.769835
21.504760
23.182631
23.775697
26.070476
27.322769
28.753877
29.859543
30.038953
32.502413
34.885406
34.490824
36.071539
36.774874
37.135482
38.024783
38.257837
39.711595
40.812492
40.102601
41.440725
41.389465
41.285753
41.668415
43.109655
42.354465
42.817593
42.059422
42.112470
43.438673
43.329000
43.436885
##ZVALUE=290
1.400709
1.534820
1.441836
1.573563
1.488924
1.605749
1.665950
1.500845
1.524687
1.763701
1.581907
1.655817
1.637936
1.654625
1.633763
2.045631
1.894832
1.966953
2.163649
2.088547
2.154708
2.384782
2.776980
2.476573
2.747774
2.917647
4.367828
12.956858
61.046481
141.206980
277.550817
559.870601
842.225552
1015.691757
1015.691757
1015.691757
1015.691757
1015.691757
1015.691757
737.592578
487.934947
241.532922
124.024749
49.037933
31.381845
37.150979
51.208735
73.571801
92.610717
121.052861
135.272741
143.769979
143.669844
129.071474
111.986995
85.803866
66.319704
46.874881
34.862757
25.194883
21.572709
19.974709
19.501448
20.219684
20.874739
21.739602
23.434758
24.490952
26.155710
28.022528
29.540658
30.518770
31.538606
33.992529
34.432411
35.750866
37.124753
37.801862
38.660765
38.203001
39.595962
41.061640
41.108727
42.275786
41.958690
42.575598
42.481422
43.187737
43.130517
43.558478
43.877959
43.330789
43.236613
42.850971
43.444633
43.288469
##ZVALUE=295
1.052618
1.374483
1.269579
1.435876
1.327991
1.498461
1.456738
1.523495
1.557469
1.629591
1.406670
1.368523
1.652837
1.561642
1.465678
1.543760
1.747608
1.848936
1.851916
1.935959
1.886487
1.953840
2.053976
2.078414
2.022982
2.493858
2.304912
2.868772
3.002882
6.779432
24.985671
99.809766
209.463835
458.461642
716.098547
1015.605927
1015.605927
1015.605927
1015.605927
1015.605927
1015.605927
900.408030
615.399480
324.727893
174.715519
65.250993
31.909943
25.191903
31.251907
49.452782
66.947937
91.850758
109.941959
128.868818
137.662888
137.064457
127.653480
106.173754
89.387894
64.886808
49.514771
36.124587
28.986931
24.644732
22.722483
22.794604
24.075508
25.991797
26.891828
29.238462
30.304790
30.971766
32.772422
34.605861
35.558939
37.549734
38.509965
39.344430
39.169788
40.823817
41.227937
42.753816
43.283701
43.044686
43.332577
44.492483
45.029521
44.342875
44.342875
44.090748
43.711662
43.849945
43.266416
43.036938
43.326616
43.061972
##ZVALUE=300
1.217723
1.342893
1.356602
1.347661
1.476407
1.201630
1.271963
1.255870
1.358986
1.283884
1.280904
1.620650
1.321435
1.412630
1.324415
1.513958
1.673698
1.616478
1.652837
1.669526
1.667738
1.770854
1.923442
1.782775
1.828671
2.114773
2.179742
2.303720
2.553463
2.737641
3.065467
3.446937
12.593865
45.976639
151.103735
293.872952
588.077903
880.711675
1015.605927
1015.605927
1015.605927
1015.605927
1015.605927
1015.605927
740.053654
483.786464
238.109827
124.218464
44.482946
23.342967
21.840930
28.815866
45.434833
61.007738
85.791945
104.533434
124.536753
133.552551
132.781863
125.615597
107.624531
90.643764
68.022609
54.368973
40.608644
32.648444
28.123856
26.766658
27.320981
28.425455
30.255914
32.125711
33.620000
34.506917
36.356449
36.849976
38.615465
39.990544
40.119886
41.797757
43.009520
43.566823
43.932796
44.849515
44.791698
45.870543
46.089888
45.820475
46.210885
45.785904
44.390559
46.069622
44.486523
44.927597
44.720769
44.337511
##ZVALUE=305
1.129508
1.082420
1.029968
1.142621
1.059771
1.105666
1.311898
1.227856
1.286864
1.292825
1.299977
1.237988
1.230836
1.137853
1.171827
1.250505
1.158714
1.270771
1.468658
1.450777
1.391768
1.449585
1.626611
1.513958
1.678467
1.790524
2.052784
1.825690
1.903772
2.204776
2.289414
2.448559
2.504587
3.317595
5.459785
31.551719
86.139441
239.349604
426.947474
772.523880
1015.502810
1015.502810
1015.502810
1015.502810
1015.502810
1015.502810
928.158760
579.336882
359.393954
160.886645
78.655481
27.946830
16.932487
20.482540
28.035641
44.723749
60.491562
84.918737
100.500584
122.065544
129.493475
129.563808
120.963454
105.335712
90.431571
68.079829
55.059791
42.421818
36.076903
32.562613
31.402707
32.890439
32.925606
35.273433
36.049485
38.513541
38.324594
40.457845
41.638613
43.559670
44.223666
44.840574
45.253634
46.224594
47.571659
46.948791
46.596527
46.974421
48.070550
46.246648
46.672821
46.908855
47.190785
45.998693
46.411753
45.823455
##ZVALUE=310
1.299977
1.157522
1.091957
1.356602
1.237988
1.141429
1.228452
1.230836
1.188517
1.439452
1.223683
1.341701
1.362562
1.316667
1.373887
1.373887
1.422763
1.276731
1.347661
1.621842
1.538992
1.564622
1.753569
1.711845
1.861453
1.670718
1.682639
1.764894
1.918674
1.966953
2.038479
1.998544
2.037883
2.465844
2.440810
2.957582
3.325939
13.392568
43.798685
145.199895
284.049511
573.503971
860.044956
1015.645862
1015.645862
1015.645862
1015.645862
1015.645862
1015.645862
766.877532
508.603454
249.612927
130.857825
47.418475
21.445751
15.641451
18.636584
27.631521
38.610697
57.155490
73.866844
97.937584
112.564564
124.305487
126.504898
120.225549
108.783841
90.863705
76.224804
57.019591
48.691630
41.472912
38.790703
36.931634
37.933588
38.638711
40.202737
41.532516
42.153597
43.726563
44.800639
46.402812
47.077537
48.094988
48.298836
47.935843
49.622655
49.610734
47.961473
49.197674
48.467517
48.377514
48.062801
47.755837
47.852993
47.954917
##ZVALUE=315
1.203418
1.155734
1.236796
1.051426
1.107454
1.305938
1.147985
1.288652
1.469851
1.332760
1.176596
1.222491
1.375675
1.323819
1.254678
1.276731
1.266599
1.575947
1.353621
1.429915
1.583695
1.464486
1.492500
1.434684
1.491904
1.630783
1.736879
1.726747
1.739860
1.804829
1.881719
1.938939
1.912713
2.329946
2.428889
2.488494
2.529621
2.752542
3.100634
6.453991
22.730827
91.058612
199.598670
445.599556
715.968013
1015.653610
1015.653610
1015.653610
1015.653610
1015.653610
1015.653610
925.866961
647.754669
343.138576
187.090635
68.605542
29.602647
15.448928
15.307665
19.918680
26.909709
40.037632
53.356886
75.001717
91.259480
111.349821
120.217800
122.877955
119.529963
105.774999
93.892813
76.365471
63.976645
51.330924
45.730472
42.485595
41.726828
41.841865
43.433905
44.505000
45.665503
46.333671
47.766566
48.537850
49.179792
50.049424
49.465895
50.054789
50.614476
48.874617
50.163865
50.053596
49.104691
48.800707
48.703551
49.247742
##ZVALUE=320
1.150966
1.099706
1.326799
1.089573
1.171827
1.109838
1.246929
1.136661
1.239777
1.314878
1.425743
1.210570
1.203418
1.268983
1.258850
1.275539
1.222491
1.355410
1.217723
1.357794
1.395941
1.255870
1.399517
1.439452
1.366735
1.439452
1.410842
1.582503
1.648664
1.593828
1.713634
1.704693
1.710653
1.838803
1.767874
2.014637
2.132654
2.326965
2.391934
2.289414
2.711415
3.596544
10.246634
51.171780
126.966834
324.570537
550.081730
925.772786
1015.605927
1015.605927
1015.605927
1015.605927
1015.605927
1015.605927
803.418756
445.860624
252.493024
107.205510
49.760938
19.456744
15.022755
16.073585
19.885898
26.808977
36.198497
53.430796
69.826841
92.304945
106.702447
119.282603
122.480989
118.653774
109.690428
93.407631
79.763532
64.836740
56.567788
49.347878
46.939850
45.096874
45.183897
46.915412
47.018528
48.309565
48.999786
49.522519
50.244927
49.694777
49.853921
50.829649
50.188899
49.082637
49.403906
49.167871
49.454570
49.169660
##ZVALUE=325
1.064539
1.042485
1.226664
1.136661
1.173615
1.183748
1.232624
1.170635
1.049638
1.076460
1.156926
1.032948
1.165867
1.246929
1.238585
1.342893
1.191497
1.180768
1.329780
1.231432
1.441836
1.276731
1.193881
1.248717
1.350641
1.370907
1.330972
1.534820
1.484752
1.475811
1.515746
1.541972
1.540780
1.646876
1.811981
1.950860
1.923442
1.841784
1.975894
2.183914
2.438426
2.393723
2.689958
2.946854
6.790757
25.746822
95.791817
199.566483
442.980528
707.721710
1015.606523
1015.606523
1015.606523
1015.606523
1015.606523
1015.606523
855.609775
584.437847
307.843685
169.577003
64.248443
29.510856
16.236901
15.739799
17.948747
21.388531
28.662682
37.874579
57.089925
73.068738
92.982650
107.457638
117.539763
121.227503
115.279555
106.514692
92.785954
79.969764
65.662861
58.226585
51.413774
48.945546
47.617555
47.570467
48.387647
49.128532
49.218535
49.964786
49.174428
50.183535
49.962997
49.457550
49.224496
49.418807
48.534870
49.321651
##ZVALUE=330
1.031756
1.190901
1.183748
0.996590
1.179576
1.197457
0.967979
1.082420
1.022816
1.153946
1.033545
1.150966
1.094937
1.009703
1.117587
1.095533
1.025796
1.439452
1.256466
1.269579
1.306534
1.465678
1.322627
1.287460
1.135468
1.197457
1.243949
1.388788
1.423955
1.473427
1.440644
1.384616
1.542568
1.442432
1.583695
1.755953
1.695752
1.620650
1.669526
1.876950
1.772642
1.802444
2.171993
2.265573
2.401471
2.939701
3.435612
14.469624
46.689510
154.220462
296.842456
594.684482
873.194933
1015.605927
1015.605927
1015.605927
1015.605927
1015.605927
1013.433933
678.274632
436.129570
205.162764
103.505850
38.822889
20.527840
16.272664
17.099977
19.650459
23.348927
31.308532
40.286779
55.396557
69.345832
89.942813
103.394985
113.712549
116.788745
112.459660
104.590654
90.798736
79.401731
66.727996
59.778690
53.098798
49.948692
48.910975
48.416853
47.796965
49.092770
48.657656
48.581958
48.694611
48.236847
48.284531
48.406720
47.796965
##ZVALUE=335
0.976920
1.007915
0.765920
0.759959
1.100898
1.069903
1.099706
1.071692
1.182556
1.194477
1.121759
0.984669
1.090765
1.106858
1.137853
1.048446
1.089573
0.951886
1.176596
1.217723
1.153946
0.997782
1.075864
1.467466
1.302958
1.315475
1.394749
1.249909
1.312494
1.325607
1.241565
1.318455
1.346469
1.353621
1.424551
1.587868
1.521707
1.676679
1.547933
1.694560
1.799464
1.796484
1.800656
1.882911
2.011657
2.161860
2.196431
2.454519
2.986789
6.979704
24.131536
95.080733
201.622844
445.505977
710.089803
1015.605927
1015.605927
1015.605927
1015.605927
1015.605927
1015.605927
808.142424
548.232794
283.298492
149.205923
53.984523
26.387572
17.767549
17.762780
19.134879
21.232963
26.349425
31.460524
43.522716
54.896474
73.358417
86.396933
101.079941
109.734535
112.610459
109.578967
99.480748
89.533925
77.823997
69.177747
58.834553
54.790974
49.791932
47.791600
46.258569
46.725869
46.304464
46.532750
46.505928
46.794415
46.890974
##ZVALUE=340
1.120567
0.994802
1.000762
1.040697
1.025796
1.113415
1.054406
0.991821
1.279712
0.934601
1.003742
1.088977
1.114607
1.072884
1.071692
1.023412
1.071692
1.019835
1.053810
1.108646
1.133680
1.126528
1.125932
1.340508
1.320839
1.376867
1.157522
1.257658
1.200438
1.220703
1.290441
1.219511
1.240969
1.315475
1.310706
1.291633
1.394749
1.344681
1.572967
1.533628
1.419783
1.463890
1.612902
1.774430
1.787543
1.862645
2.082586
2.164841
2.209544
2.351999
2.598763
3.852844
11.806488
57.528615
141.713619
353.186727
589.376688
955.096483
1015.605927
1015.605927
1015.605927
1015.605927
1015.605927
953.066945
667.162538
347.868800
193.556547
80.122948
35.690665
18.788576
18.096566
19.446611
20.922422
23.822784
27.223825
34.651756
42.396784
55.671930
69.447756
86.593628
97.514987
107.711554
107.992887
105.565786
99.122524
87.496638
77.685714
66.076517
58.264732
51.322579
47.973990
45.508742
44.639707
43.951869
43.842793
44.286847
##ZVALUE=345
0.969768
1.018643
0.999570
0.945926
0.887513
0.945926
0.868440
1.082420
1.054406
1.000762
1.045465
1.005530
1.119971
1.232624
1.067519
1.025796
1.126528
1.016855
1.050830
1.089573
1.055598
1.096725
1.137853
1.092553
1.219511
1.219511
1.082420
1.231432
1.158714
1.207590
1.281500
1.135468
1.020432
1.200438
1.239777
1.147985
1.262426
1.300573
1.409650
1.498461
1.448989
1.475811
1.442432
1.536608
1.709461
1.716614
1.675487
1.863837
1.814961
2.007484
2.121925
2.292991
2.288818
2.797842
5.249977
32.050610
89.390874
237.837434
425.243974
767.205954
1008.556485
1015.605927
1015.605927
1015.605927
1015.605927
1015.605927
796.025991
451.935530
259.522796
109.741688
51.935911
22.680759
18.507838
19.087791
20.137429
21.616817
23.773909
27.732849
33.167601
42.345524
52.153468
67.873597
79.214573
92.841983
99.318624
102.388859
99.835992
92.913508
85.581541
73.663592
64.559579
54.174662
49.901605
45.766830
43.761730
42.088628
##ZVALUE=350
1.095533
0.889897
0.986457
0.882745
0.916719
0.950694
0.875592
0.959635
1.056790
0.973940
0.925660
1.057982
0.968575
1.055598
1.191497
1.125932
1.288652
1.127720
1.068711
0.958443
1.022816
0.936985
1.086593
1.101494
1.354814
1.244545
1.215935
1.194477
1.224875
1.102686
1.305938
1.083612
1.027584
1.290441
1.312494
1.276731
1.304746
1.410842
1.271963
1.293421
1.356602
1.406670
1.519918
1.488924
1.391768
1.485944
1.622438
1.489520
1.592636
1.685619
1.683831
1.789927
1.859665
2.191663
2.232790
2.735853
3.452897
16.005635
50.632954
161.195993
307.313800
609.223843
881.611705
1015.601754
1015.601754
1015.601754
1015.601754
1015.601754
912.995934
540.401936
332.962871
156.099796
73.732734
27.214885
18.704534
17.999411
18.860698
20.110607
21.500587
24.048686
27.403831
33.234954
39.186478
49.550533
59.170723
72.903633
82.968473
90.301633
94.597936
92.828870
87.685585
78.368783
70.515871
60.305595
52.912831
47.048926
##ZVALUE=355
1.031756
1.060963
0.976920
1.050830
0.861883
1.113415
0.897646
0.910759
0.904799
1.109838
1.081824
1.008511
1.071692
1.107454
1.130700
0.915527
1.043677
1.084805
1.123548
0.951886
1.041889
1.074672
1.205802
1.091957
1.070499
1.209974
1.144409
1.135468
1.162887
1.052618
1.275539
1.081824
1.131892
1.126528
1.093745
1.260638
1.235604
1.173615
1.260638
1.266599
1.427531
1.300573
1.399517
1.349449
1.396537
1.405478
1.456738
1.536608
1.552701
1.614690
1.818538
1.771450
1.755953
1.865625
1.889467
2.123713
2.269745
2.281666
2.854466
8.220673
27.462840
106.043816
218.570828
460.225940
711.203814
1015.605927
1015.605927
1015.605927
1015.605927
1015.605927
992.419720
659.565926
418.258905
185.815692
92.173815
33.093691
19.411445
16.974807
17.563701
19.002557
19.704700
21.297932
22.890568
26.245713
29.777884
36.680698
43.495893
55.245757
64.115524
75.003505
81.394911
85.641742
84.472895
81.114769
74.495673
64.909458
##ZVALUE=360
0.919700
0.956655
1.045465
1.084805
1.079440
0.896454
1.046658
0.914931
0.868440
1.015663
1.020432
1.046658
1.156926
1.039505
1.073480
1.002550
1.072884
1.064539
0.921488
0.991821
1.044869
1.079440
0.961423
1.168847
1.250505
1.141429
1.233816
0.969768
1.042485
1.177788
1.208782
1.141429
1.223683
1.230836
1.273751
1.216531
1.325607
1.204610
1.170635
1.340508
1.328588
1.252890
1.249909
1.254678
1.493692
1.437664
1.396537
1.355410
1.467466
1.826882
1.510978
1.676679
1.685619
1.697540
1.880527
1.898408
1.968741
1.944900
2.225637
2.370477
2.603531
3.931522
12.069941
55.051446
133.428574
332.134962
549.845695
890.746713
1015.594006
1015.594006
1015.594006
1015.594006
1015.594006
753.925443
505.560637
263.047814
136.780739
49.563646
24.216771
16.098619
15.903711
16.990900
17.965436
18.820763
19.735694
21.237731
22.956729
26.624799
30.531883
38.021803
45.522451
57.032704
64.753890
73.225498
76.760650
77.470541
##ZVALUE=365
0.953674
0.962615
0.983477
1.013875
1.091957
1.029968
0.982881
0.975728
1.114607
1.142621
0.977516
0.970960
0.981688
1.145601
0.914931
1.102686
1.089573
1.265407
1.152754
1.149774
1.080632
1.110435
1.113415
1.091957
1.234412
1.151562
1.206994
1.274943
1.095533
1.177788
1.294613
1.137853
1.043677
0.947714
1.054406
1.176000
1.206994
1.300573
1.144409
1.309514
1.264811
1.328588
1.487732
1.195669
1.350641
1.365542
1.314878
1.497865
1.280904
1.403689
1.480579
1.455545
1.544952
1.723766
1.743436
1.733899
1.799464
1.812577
1.715422
2.088547
2.179742
2.330542
2.539754
2.993941
5.658865
30.840635
83.291531
221.842527
410.067439
754.491687
997.148752
1015.605927
1015.605927
1015.605927
1015.605927
880.537033
625.254512
345.051885
188.317895
71.039796
31.609535
16.016960
14.654994
15.329719
15.996695
16.646981
17.086864
18.230677
19.421577
21.324754
23.313761
28.299689
33.414960
41.429996
48.790574
57.821870
##ZVALUE=370
1.031756
0.811815
0.946522
1.074672
0.975728
1.051426
1.039505
0.993609
0.870824
0.936985
0.868440
0.918508
0.945926
0.988841
0.959635
0.986457
1.056790
1.048446
1.085997
1.129508
1.072884
1.161695
1.028776
1.025796
1.005530
0.984669
0.971556
1.008511
0.986457
1.107454
1.120567
1.201630
1.136661
1.248717
1.261830
1.247525
1.134872
1.149774
1.234412
1.070499
1.248717
1.168847
1.093745
1.226664
1.120567
1.290441
1.233816
1.108646
1.398921
1.234412
1.324415
1.230836
1.397729
1.551509
1.513958
1.494884
1.551509
1.598597
1.750588
1.825690
1.797676
2.000928
2.006888
2.196431
2.348423
2.614856
3.557801
16.347766
53.957701
166.158676
316.354036
605.528951
876.301527
1015.605927
1015.605927
1015.605927
1015.605927
987.711549
740.019679
421.743989
241.666436
97.478628
45.728683
18.822551
14.032722
14.089942
14.492869
14.788508
15.732646
16.296506
16.938448
17.774701
19.260645
21.290779
24.329424
29.927492
##ZVALUE=375
0.838637
0.893474
0.774860
0.958443
0.977516
0.884533
0.892878
0.928640
0.870824
0.945926
0.899434
1.027584
1.004934
1.067519
0.931621
0.708699
0.908971
1.057982
0.989437
0.916719
1.048446
1.097918
0.974536
0.920892
1.082420
1.117587
1.098514
1.050830
1.019835
1.054406
1.094937
1.041889
1.044869
1.178980
1.057982
1.074672
1.062751
1.152754
1.080632
1.101494
1.117587
1.160502
1.230836
1.224875
1.191497
1.223683
1.217723
1.119971
1.257658
1.171827
1.206994
1.195669
1.210570
1.257658
1.339912
1.362562
1.352429
1.532435
1.559854
1.519918
1.459718
1.597404
1.620650
1.840591
1.922846
2.073646
2.174973
2.618432
3.084540
8.240938
28.092861
100.175738
218.442678
480.419993
738.740563
1015.605927
1015.605927
1015.605927
1015.605927
1015.605927
855.594873
520.692468
326.818824
161.579847
82.485676
29.115677
15.824437
12.489557
12.870431
13.558865
13.936758
14.411807
15.310645
15.712976
16.128421
17.413497
##ZVALUE=380
0.801682
0.966787
1.010895
0.994802
0.872612
1.030564
0.923872
1.018643
0.687838
0.817776
0.862479
0.863671
1.002550
0.952482
0.971556
0.993609
0.879765
0.865459
0.871420
0.873804
0.990629
0.850558
1.023412
0.966787
0.956655
0.974536
0.968575
1.112819
1.036525
0.943542
1.039505
0.975728
0.983477
1.032948
1.008511
0.984669
0.982881
1.029968
0.952482
0.999570
1.090765
1.070499
1.117587
0.987649
1.000762
1.172423
1.188517
1.092553
1.059771
1.242757
1.211762
1.218915
1.303554
1.263618
1.235604
1.219511
1.213551
1.295805
1.445413
1.310706
1.420975
1.301765
1.457930
1.588464
1.667738
1.747608
1.744628
2.036691
2.168417
2.604723
2.777576
4.755855
14.987588
72.424412
165.416598
386.056900
617.783666
965.843797
1015.607715
1015.607715
1015.607715
1015.607715
980.748534
676.601529
451.967716
222.325921
114.820004
42.130947
19.798875
11.941791
11.644959
11.930466
12.332797
13.289452
13.499856
14.067888
##ZVALUE=385
0.859499
0.880957
0.910759
0.783801
0.944734
0.809431
0.926852
0.835657
0.947714
0.910759
0.965595
0.868440
0.832677
0.748634
0.771880
0.820756
0.921488
0.881553
0.828505
0.938773
1.019835
1.039505
0.878572
0.860691
0.959635
0.947714
0.888705
0.926852
0.944734
1.076460
1.026988
0.952482
1.044869
0.958443
0.955462
0.964999
1.095533
0.882745
0.869632
1.009703
1.136661
1.156926
1.106858
0.962615
1.091957
1.045465
1.008511
0.965595
1.097918
1.088977
1.145601
0.976920
1.060963
0.907779
1.170635
1.275539
1.080632
1.087785
1.299977
1.291633
1.399517
1.337528
1.428723
1.465678
1.551509
1.624823
1.600981
1.784563
1.758933
2.054572
2.039671
2.331734
2.520680
2.998710
7.278919
39.814711
104.254484
263.860822
467.372537
817.180872
1015.605927
1015.605927
1015.605927
1015.605927
1015.605927
835.527778
589.914918
320.256948
180.862546
74.680448
32.444000
12.625456
10.887980
10.936856
11.186600
11.527538
##ZVALUE=390
0.950694
0.683665
0.578761
0.707507
0.842810
0.894666
0.748634
0.838637
0.895858
0.811815
0.916719
0.697970
0.887513
0.778437
0.713468
0.741482
0.812411
0.889897
0.833869
0.873804
0.797510
0.709891
0.943542
0.870824
0.852942
0.810623
0.756979
0.857711
0.874996
0.744462
0.864863
0.809431
0.909567
0.965595
1.019835
0.947714
0.856519
0.927448
0.948906
0.934601
0.847578
0.875592
0.936985
1.106858
0.989437
1.014471
1.011491
1.119971
0.983477
1.021624
0.917912
1.043677
1.029968
1.178980
1.005530
1.045465
1.354814
1.162887
1.151562
1.163483
1.102686
1.190901
1.105666
1.233816
1.315475
1.302958
1.382828
1.458526
1.770854
1.772642
1.847744
2.033710
2.106428
2.172589
2.218485
2.575517
4.040599
21.086931
64.446926
196.374655
368.387699
687.549710
945.407748
1015.540957
1015.540957
1015.540957
1015.540957
982.707739
747.628808
450.620651
260.574818
106.716752
51.287413
18.723607
10.986924
10.220408
##ZVALUE=395
0.919700
0.820756
0.834465
0.794530
0.759959
0.713468
0.882745
0.875592
0.773668
0.808835
0.901818
0.829697
0.959635
0.865459
0.789762
0.885725
0.976920
1.024604
0.880957
0.809431
0.878572
0.891685
1.054406
1.023412
0.987649
0.906587
0.881553
0.983477
0.839829
0.821948
0.861883
0.895858
0.994802
0.912547
1.073480
0.960827
1.161695
1.106858
0.927448
1.005530
1.030564
0.986457
1.034737
0.938773
0.969768
1.077652
1.058578
0.812411
0.847578
1.013875
1.076460
0.948906
0.970960
1.042485
1.134872
1.154542
1.205802
1.197457
1.158714
1.128912
1.061559
1.292825
1.367927
1.376867
1.380444
1.376867
1.433492
1.542568
1.762509
1.786947
1.787543
2.021790
1.844764
2.032518
1.875758
2.075434
2.333522
2.475977
2.979636
12.087822
42.609572
146.817565
278.678536
523.328781
770.151615
1015.605927
1015.605927
1015.605927
1015.605927
1015.605927
900.631547
553.925633
341.745615
150.079727
73.155761
25.873780
##ZVALUE=400
0.801682
0.715852
0.653863
0.765920
0.857711
0.815988
0.756979
0.939965
0.924468
0.856519
0.933409
0.971556
0.824928
0.865459
0.815988
0.775456
0.858903
0.876784
0.853539
0.881553
1.072884
0.992417
0.786781
0.894666
0.890493
1.104474
0.940561
0.905991
1.043677
0.929832
0.938773
0.867844
1.025796
0.780821
1.058578
1.052618
0.946522
0.887513
0.826716
0.936985
0.969768
0.898838
0.852942
1.082420
1.118779
1.031756
1.069903
1.121759
1.177788
1.015663
1.132488
0.947714
1.060963
1.073480
1.019835
1.096725
1.071692
1.197457
1.223683
1.093745
1.017451
1.249909
1.241565
1.260638
1.385808
1.377463
1.483560
1.483560
1.463890
1.693964
1.835823
1.693964
1.937747
1.806617
1.815557
1.786947
1.692772
2.027750
2.289414
2.264977
2.542734
6.371737
21.856427
81.691742
176.788568
398.172736
632.246733
970.543623
1015.605927
1015.605927
1015.605927
1015.605927
985.252857
656.691790
429.681540
215.682983
##END
