##TITLE=FSH702
##FORMAT=SPECTACLE-ASCII V-1.2
##DATA TYPE=ULTRAVIOLET SPECTRUM
##SECOND TYPE=ULTRAVIOLET SPECTRUM
##DATE=03/27/18
##TIME=17:53:17
##SPECTROMETER/DATA SYSTEM=SPECTACLE
##XUNITS=NM EM
##YUNITS=ENERGY
##YFACTOR=1
##FIRSTX=220
##LASTX=410
##NPOINTS=96
##3DDATA=Equidistant
##ZUNITS=NM EX
##FIRSTZ=210
##LASTZ=400
##ZPOINTS=39
##XYDATA=(Y..Y)
##ZVALUE=210
2.679825
2.199411
2.638698
2.346635
2.909899
2.502799
2.834797
2.838969
3.314614
2.631545
2.658963
3.583431
3.177524
2.903938
3.098845
3.605485
3.710985
3.502965
3.835559
4.332662
4.086494
4.767776
5.450845
5.268455
4.656911
4.947782
5.841851
5.042553
5.220771
5.230904
5.896688
5.826950
6.337762
6.238818
6.468892
6.859899
7.870793
6.023645
6.507635
6.317496
6.028414
6.778836
7.096529
6.421804
6.965995
6.274581
7.293820
6.663799
5.921721
6.284714
6.689429
6.416440
6.959438
6.080866
6.571412
7.167459
6.966591
6.926656
7.723570
6.590486
6.558895
7.272959
6.918907
6.735921
7.355809
7.346869
7.303953
9.160638
8.899570
11.107922
11.744499
12.997985
15.827417
17.649531
19.289851
17.351508
19.362569
18.478632
17.133951
16.974807
15.103817
13.843775
13.013482
11.327863
10.258555
9.413958
9.227991
7.609725
7.708669
7.366538
6.980896
6.534457
7.696748
6.653666
7.503629
7.634759
##ZVALUE=215
4.917979
4.322529
3.538728
3.863573
3.298521
3.244877
3.908873
3.835559
4.589558
4.327893
5.306602
3.836751
4.683733
4.119873
4.062653
3.436804
4.345775
3.533959
3.763437
4.116893
4.163980
4.703999
4.852414
5.361438
5.185604
5.234480
5.391836
6.140471
6.592870
7.717609
7.055998
7.845759
7.197857
7.929802
7.866621
7.091761
7.917881
7.811785
8.159876
7.671714
7.493496
8.001924
8.331537
7.146597
7.837415
7.350445
7.536411
7.705688
7.296801
8.568764
7.641912
7.794499
8.163452
7.941723
7.954836
7.912517
7.218719
6.513596
7.553697
7.952452
7.270575
8.103848
7.548928
7.320642
7.868409
7.352829
8.778572
7.998943
9.630919
10.553598
11.903644
12.848973
15.300512
16.568899
17.402768
17.611980
17.493963
18.572807
17.248988
16.393661
16.438961
13.655424
12.419820
10.786653
9.936690
9.917617
8.040667
8.362532
9.005666
7.378459
7.609725
7.077456
7.954836
7.215738
7.824898
7.637739
##ZVALUE=220
15.339851
16.149879
17.098784
15.812516
14.596581
10.264516
9.071827
9.083748
7.524490
7.581711
8.716583
8.875728
8.741617
8.523464
7.733703
6.727576
5.543828
5.256534
4.864931
5.237460
5.066991
4.792809
5.679727
4.933476
6.136894
6.040931
6.133914
7.561445
8.421540
9.367466
10.164976
9.643435
10.876656
10.913610
11.964440
10.258555
11.277795
11.653900
11.436939
11.905432
11.229515
10.763407
10.912418
10.072589
10.794997
9.638667
9.785891
9.329915
9.516478
9.657741
9.317994
10.018945
8.869767
9.338856
8.368492
9.040833
9.248853
8.071661
8.630753
9.102821
9.085536
8.641481
8.797646
9.253621
9.492636
9.287596
9.672642
9.479523
10.030866
12.665987
13.138652
14.718771
15.051961
17.622709
18.126965
17.858744
19.023418
18.880963
18.525720
17.214417
17.190576
15.837550
15.445948
13.859868
13.310909
11.336803
10.518432
9.965897
9.721518
10.092854
10.354519
10.308623
9.276867
10.063648
9.459853
10.539889
##ZVALUE=225
32.166839
32.354593
42.582750
51.821470
52.613616
56.296587
48.852563
37.215948
30.557513
24.791956
18.146634
17.757416
17.830729
19.423962
20.460486
20.630956
17.549992
14.944673
12.126565
9.285808
7.000566
5.374551
6.589890
5.323887
6.091595
7.455945
7.927418
9.134412
9.348989
9.959936
11.160970
13.030767
13.673902
13.605952
13.541579
14.070868
13.908744
14.467835
13.200641
14.257431
14.831424
14.475584
13.325810
13.410449
12.544990
13.709664
12.945533
12.269616
12.049675
11.323690
11.657476
10.363460
9.943843
10.645986
11.254549
11.244416
11.309981
11.542439
11.587739
10.732412
11.298656
11.203885
12.134910
11.773705
11.746883
12.529492
12.212992
13.312697
14.065504
14.601946
16.944408
18.405914
19.302964
20.848513
21.741986
23.002625
22.173524
21.524429
21.009445
21.116734
20.862818
18.635988
18.876791
17.804503
17.760992
16.573668
15.574694
16.408563
16.602874
15.933514
14.693737
15.182495
17.433763
14.135838
15.687943
15.096664
##ZVALUE=230
32.968521
36.821961
54.437518
90.446472
117.098689
146.855712
153.254867
154.972672
149.505734
117.279887
86.667538
64.470768
43.164492
36.266446
37.361979
38.997531
42.773485
40.339828
37.295818
34.543872
26.204586
18.265843
11.542439
9.751916
8.558631
8.430481
8.440614
9.029508
8.919835
10.197759
12.383461
13.003945
13.641715
13.961792
14.915466
16.134977
15.569925
15.260577
14.740825
16.049743
16.115904
15.051961
14.921427
14.967918
14.454722
13.807416
13.772845
14.347434
13.078451
13.241768
13.207793
13.943911
13.966560
13.855696
14.293790
14.380813
13.988614
12.656450
14.352798
14.922619
16.139746
15.501976
16.845465
15.898943
16.407967
18.867850
17.918944
18.947721
20.885468
23.067594
22.116899
25.707483
27.490854
28.403997
29.626489
30.247569
29.403567
29.420853
30.887723
31.046867
29.223561
28.365850
28.997660
27.358532
27.209520
29.368997
26.998520
27.131438
26.854873
26.135445
25.504827
28.264523
24.731755
26.353598
26.093721
26.878715
##ZVALUE=235
13.713837
14.465451
32.442808
75.190663
125.239491
196.592808
254.514813
325.974822
357.451439
358.589888
325.540900
269.485712
187.784433
131.026506
90.299845
70.695877
68.443418
67.242980
75.622797
76.131821
70.331693
60.916543
50.373673
34.710765
24.255514
16.917586
12.326837
10.421872
9.986758
9.953976
11.127591
12.448430
11.643767
11.743903
13.440847
12.688637
14.071465
13.950467
13.964772
14.979839
15.250444
15.150905
14.338493
14.888644
14.889836
15.119910
14.383793
14.501810
13.853908
14.378428
14.549494
14.682412
16.026497
14.946461
13.886690
16.615987
16.563535
18.172860
18.486977
18.721819
18.431544
19.796491
20.397902
23.171902
23.857951
24.281740
23.870468
26.973486
25.958419
30.951500
32.087564
33.214688
35.690665
39.755702
40.558577
40.800571
44.002533
42.947531
42.162538
45.505762
45.489669
43.446422
41.210651
42.742491
44.985414
42.967796
42.068958
43.547750
43.870807
43.633580
43.160915
43.477416
44.072866
43.776631
42.539835
44.052601
##ZVALUE=240
3.268719
3.340840
8.026958
18.972754
54.442883
104.177594
206.906796
310.124755
456.234813
540.571809
612.971783
618.682504
572.515726
457.983613
359.607935
220.873952
155.394673
105.492473
95.022917
92.014670
103.132725
108.244419
110.351443
95.059872
78.987479
64.989924
46.812892
34.950972
22.921562
16.422868
13.871789
12.464523
10.759830
12.672544
13.317466
13.514757
13.433695
14.038682
14.201999
13.548732
14.840961
15.657544
14.168620
15.903711
17.014742
14.695525
15.763640
16.072989
15.451908
17.251968
15.988946
15.268922
17.028451
15.972853
17.636418
17.375946
18.511415
19.300580
20.136833
20.206571
21.203756
23.040771
22.507906
23.803711
27.451515
29.352903
30.550957
31.034946
32.557845
35.521984
39.171576
40.924549
43.736696
47.596693
48.779845
53.088665
50.217509
52.840710
54.067969
52.170753
53.649545
53.444505
54.953694
56.092739
56.778789
56.337714
57.922602
55.964589
55.652857
53.814650
58.155656
57.733655
56.260824
57.165623
55.082440
56.784749
##ZVALUE=245
2.541542
2.548695
2.640486
2.376437
5.942583
16.505718
51.998496
110.480785
228.408575
354.110003
546.732545
671.265721
768.172741
807.075500
763.405561
637.467504
503.040552
341.563821
231.295824
138.893723
104.549527
98.526478
110.375881
122.447610
124.630928
120.297670
109.508634
96.356869
72.047710
55.895448
39.511919
27.048588
21.114945
16.296506
13.924837
14.668703
15.586615
15.407801
15.656948
15.876889
15.462637
15.806556
15.390515
16.821623
15.782714
17.073750
15.668869
16.119480
16.687512
15.063882
16.911626
16.380548
16.368628
16.217828
16.249418
16.763806
17.979741
17.445683
18.240809
18.345714
20.357966
21.787882
21.450520
23.993850
25.500655
27.183890
27.976632
29.781461
29.671788
34.993887
38.073659
38.692951
44.376850
43.997765
46.065450
47.347546
48.679709
53.245425
51.189661
53.287745
53.317547
53.534508
54.634809
57.561994
57.517886
55.994987
55.977702
60.223937
59.481859
57.704449
56.995749
56.812763
57.390928
57.944655
59.787631
59.221983
##ZVALUE=250
2.531409
2.166629
2.218485
2.556443
2.800822
2.793670
4.079938
10.574460
45.051575
97.341537
220.328569
366.957784
522.821546
733.504891
862.372518
954.355001
932.890773
827.368498
686.912537
471.867919
320.534706
207.046866
120.990872
98.628998
102.445483
116.245747
133.715868
139.282942
137.322545
124.294758
107.366443
85.069537
66.753626
44.557452
31.307936
23.017526
19.907951
20.024776
19.276738
19.347668
18.153787
19.059777
18.353462
17.954707
18.459558
18.111467
17.487407
17.268658
17.801523
17.069578
18.030405
17.827749
17.584562
17.479658
17.602444
18.190742
18.224716
17.108917
19.586682
19.460917
19.097924
21.044612
21.605492
23.397803
24.261475
25.772452
26.094913
27.224422
28.345585
31.624436
33.924580
36.463737
37.568808
40.110946
43.872595
45.159459
44.826865
48.775673
49.670935
49.322844
51.112771
48.474669
52.371621
52.556992
52.861571
54.376721
56.123734
56.745410
54.754615
57.556629
54.645538
56.925416
56.778789
59.070587
57.873726
58.049560
##ZVALUE=255
1.906753
2.089739
2.418756
2.298951
2.467632
2.168417
2.164841
2.789497
3.174543
6.640553
31.847954
75.261593
152.585506
320.400596
486.848950
742.374659
904.764533
1015.605927
1015.605927
1008.572578
866.565704
698.171854
431.571007
274.919868
147.363544
104.025602
93.526840
106.244683
127.937794
142.367482
153.526664
151.478648
139.891505
112.589598
93.156695
69.228411
54.238439
36.015511
29.950738
25.489926
23.875833
23.843646
23.058653
22.701621
23.072958
20.786524
21.171570
21.030903
20.340681
19.909739
20.209551
19.696951
20.374656
19.086599
19.353628
18.724799
20.190477
19.081831
18.178821
20.046830
19.256473
20.746589
19.892454
20.703673
21.314621
23.600459
23.736954
26.425719
27.863979
28.618574
29.965639
32.772422
35.098791
37.980676
38.619637
40.790439
40.235519
42.972565
43.142438
44.252872
45.226812
46.635866
48.527718
49.792528
49.772859
50.722957
51.842928
54.347515
53.788424
52.032471
52.928925
54.022670
54.442883
55.894852
56.373477
55.165887
##ZVALUE=260
1.741648
1.933575
1.834631
1.809597
2.132654
2.185702
2.533793
2.852678
2.619624
2.564788
2.774596
4.152656
12.386441
48.986673
112.088919
262.913704
427.143574
688.138604
894.719958
1015.605927
1015.605927
1015.605927
1015.605927
859.963894
562.458634
384.463668
219.787955
137.384534
90.958476
93.504786
110.409856
139.856935
157.848597
168.341994
165.617466
146.489739
128.392577
99.917650
81.898570
58.313608
47.041774
35.360456
30.495524
29.166937
27.958751
26.575923
25.301576
24.629831
23.957491
22.657514
22.998452
22.265911
22.318959
21.472573
20.392537
20.731688
21.121502
20.785928
20.470619
20.548701
20.600557
21.582842
20.794868
22.403598
22.705793
22.786856
23.717880
24.209619
26.198626
27.781725
29.519796
30.666590
32.770634
34.697652
35.982728
36.469698
37.086606
39.412975
39.925575
42.776465
42.625666
43.772459
47.466755
46.689510
47.162771
47.590733
47.877431
48.999786
48.967600
51.446557
50.017834
49.779415
51.246881
51.791668
52.835941
53.078532
##ZVALUE=265
1.807809
1.733899
1.710653
1.794696
1.817942
1.866817
1.783967
2.069473
2.086759
2.262592
2.246499
2.253652
2.740622
3.342628
7.057786
34.712553
81.611872
201.599002
355.532765
650.228858
895.629525
1015.473008
1015.473008
1015.473008
1015.473008
1007.339954
760.134459
542.438626
305.974483
189.318657
121.628642
90.997815
100.579858
132.379532
150.757432
174.558759
179.787874
169.622898
158.184767
132.233500
109.994411
81.817508
64.211488
47.295690
37.862659
32.189488
30.090809
27.489662
27.062893
26.273727
24.459958
24.527907
24.106503
22.532940
22.862554
21.313429
20.906925
20.518899
20.705462
20.902753
20.529628
20.461679
21.176934
22.229552
21.981001
22.260547
22.773743
24.501681
25.460720
27.312636
27.990937
29.885769
32.646656
32.226443
34.443736
34.628510
36.466718
37.267804
39.417744
38.760900
40.841699
40.715933
43.405890
42.347908
44.385791
45.678616
45.909882
46.022534
47.198534
46.935678
46.942830
47.626495
48.828721
47.651529
49.983859
50.081611
##ZVALUE=270
1.752973
1.742840
1.710653
1.834631
1.937747
1.920462
1.938939
1.940727
1.856685
2.037883
2.307892
2.295971
2.270937
2.405643
2.526641
2.727509
4.259944
13.943911
56.437850
136.505961
266.757011
543.980598
803.367496
1015.605927
1015.605927
1015.605927
1015.605927
1015.605927
990.888476
684.801936
468.253493
247.071981
153.270960
91.764927
87.208748
106.724501
130.822659
158.015490
174.566507
181.479454
176.532865
156.154633
134.881735
105.399489
83.910823
57.383776
46.696663
35.522580
30.397773
26.553869
26.587844
25.153756
23.742914
22.732615
22.823811
21.665692
21.073818
21.413565
20.608902
20.105839
21.292567
21.295547
21.248460
22.022724
21.378994
22.545457
23.176670
24.501681
25.016665
26.011467
27.899742
29.242635
30.345917
32.064915
34.125447
35.688877
35.309792
36.746860
37.044883
38.864613
39.090514
40.757656
41.243434
41.957498
43.604970
43.306947
44.002533
44.166446
44.199824
44.915676
45.792460
45.878887
46.060681
45.419931
47.176480
47.463775
##ZVALUE=275
1.620650
1.650453
1.636744
1.767874
1.577735
1.804829
1.793504
1.824498
1.975894
1.976490
2.006888
2.157688
2.057552
2.283454
2.203584
2.275705
2.681613
2.644658
3.091693
6.095767
32.575727
88.438988
246.839523
433.154702
703.842640
1000.077724
1015.605927
1015.605927
1015.605927
1015.605927
1015.605927
877.833962
627.551675
346.995592
207.318664
104.243755
73.238611
79.264641
98.755956
126.048923
146.703720
168.342590
172.499418
167.168975
152.204633
124.208927
103.729963
77.320933
58.401823
41.042566
32.419562
26.245713
23.408532
21.897554
21.264553
20.487905
20.063519
20.056963
20.119548
19.483566
21.071434
20.667911
20.467639
22.375584
22.077560
22.681952
23.745894
24.536848
24.956465
27.775764
27.983785
29.542446
30.725598
32.259822
33.257604
34.749508
35.622716
35.070777
36.295652
38.266778
38.132668
39.649606
39.646626
40.933490
41.032434
42.445660
43.035746
44.299960
43.768883
44.231415
44.520497
43.554902
43.899417
43.496490
44.276714
45.253634
##ZVALUE=280
1.684427
1.691580
1.616478
1.611710
1.513958
1.430511
1.526475
1.602769
1.912713
1.732707
1.819730
2.040863
1.906753
1.857877
1.947880
2.066493
2.184510
2.237558
2.288818
2.650619
3.075600
4.927516
17.832518
58.299899
182.974935
330.107808
597.283840
866.786838
1015.605927
1015.605927
1015.605927
1015.605927
1015.605927
1015.605927
712.430477
471.704602
234.094858
129.813552
63.617826
53.447485
68.463683
89.840889
116.277933
136.615634
158.809423
160.875916
156.840682
143.392682
119.685531
96.299648
69.350600
51.790476
36.201477
27.921796
21.802783
20.288825
18.244982
18.568635
18.820763
19.200444
19.980669
19.959807
21.388531
21.691918
22.458434
22.582412
23.829937
24.954677
26.391745
27.864575
27.724504
30.270815
30.717850
32.389760
34.327507
34.104586
36.150813
36.060810
36.984682
37.093759
40.384531
39.321780
40.484667
41.257739
42.406917
43.124557
42.391419
43.096542
42.228699
42.965412
42.772889
42.515993
42.921901
44.200420
43.396950
43.893456
##ZVALUE=285
1.527667
1.611710
1.307726
1.242757
1.642704
1.497865
1.428723
1.691580
1.708865
1.862645
1.853704
1.772642
1.920462
1.793504
1.527667
1.762509
1.992583
2.206564
2.109408
2.204776
2.525449
2.563596
3.057718
3.453493
10.079741
34.205914
89.628696
235.500932
407.367945
720.144510
980.195999
1015.605927
1015.605927
1015.605927
1015.605927
1015.605927
939.893723
569.075942
358.703732
170.980692
88.728666
44.488907
42.727590
60.315728
79.539418
109.309554
126.443505
145.529509
151.077509
147.886872
137.173533
114.002824
94.356537
68.585873
51.361918
34.400821
27.353764
20.955801
19.169450
19.501448
19.801855
19.078851
20.819902
22.439957
22.350550
23.411512
25.553703
25.696754
26.807785
28.550625
29.423833
31.363964
31.599998
33.368468
34.396648
34.332871
35.178661
37.557483
38.143992
38.927794
39.429665
39.470792
41.080713
40.782690
41.390657
41.587949
42.667985
42.481422
42.182803
42.936802
43.784976
44.009686
43.073893
44.074655
43.380857
43.940544
##ZVALUE=290
1.465678
1.479983
1.417994
1.470447
1.447797
1.508594
1.507998
1.513958
1.598597
1.552701
1.465678
1.536608
1.501441
1.716614
1.724958
1.920462
1.788735
1.858473
1.793504
2.140999
2.146959
2.233982
2.313852
2.623796
3.021955
3.018975
4.316568
12.468696
56.249499
133.372545
260.779858
535.863638
812.448859
1015.605927
1015.605927
1015.605927
1015.605927
1015.605927
1015.605927
733.729601
481.793880
240.011811
124.578476
50.669909
31.964779
39.628744
53.231716
76.081753
96.848607
123.768449
137.987733
147.162676
145.042539
132.967830
116.503835
88.107586
68.929791
47.943592
36.027431
26.861429
23.085475
21.253824
20.848513
21.812916
22.346973
23.848414
24.972558
26.038885
28.156638
28.829575
30.673742
31.073689
33.006668
33.952594
35.676956
36.837459
37.713647
38.291812
39.333701
39.727688
40.436983
41.326880
41.237473
42.411685
42.386651
42.457581
43.825507
44.351816
43.688416
43.372512
43.945909
43.737888
44.073462
43.382645
43.964982
43.285489
##ZVALUE=295
1.330972
1.403689
1.420975
1.471639
1.395941
1.483560
1.326799
1.366735
1.487732
1.496673
1.566410
1.623631
1.411438
1.531839
1.560450
1.625419
1.718998
1.548529
1.761913
1.873970
1.945496
2.077818
2.053976
2.175570
2.028942
2.366900
2.584457
2.656579
3.269911
5.693436
20.590425
84.219575
186.957717
434.178710
685.983896
1015.600562
1015.600562
1015.600562
1015.600562
1015.600562
1015.600562
888.432860
611.465573
326.245427
174.201727
64.852834
33.166409
25.416613
33.160448
50.184727
67.276955
93.967915
113.742948
132.194757
139.853954
138.613582
128.699541
108.776689
88.980794
65.474510
51.463842
36.522746
29.980540
25.577545
24.132729
24.112463
24.916530
26.520491
27.819872
29.529929
30.865669
33.172965
33.211708
34.793615
36.282539
37.654638
38.203597
39.993525
41.294694
41.294694
42.438507
43.148994
42.956471
43.726563
44.711828
45.280457
45.252442
45.452714
45.175552
45.324564
44.441819
45.151711
44.310689
43.999553
43.888688
44.839978
##ZVALUE=300
1.211762
1.194477
1.433492
1.399517
1.260638
1.334548
1.381636
1.455545
1.333952
1.428723
1.378655
1.430511
1.321435
1.476407
1.384616
1.647472
1.475811
1.659989
1.668930
1.668930
1.692772
1.830459
1.739860
1.879930
1.787543
1.980662
2.235770
2.109408
2.536774
3.016591
3.197789
3.657937
9.106994
49.417615
122.392774
308.830738
521.073937
886.758566
1015.606523
1015.606523
1015.606523
1015.606523
1015.606523
1008.706689
766.766071
429.371595
250.663757
110.563636
52.196980
22.366643
21.067858
30.604601
43.439865
64.297915
83.771944
110.083818
125.211477
136.277676
134.759545
123.460889
110.612512
85.937977
71.019530
52.081943
41.160583
32.053590
29.118657
27.273893
27.852654
30.002594
30.023456
33.015609
33.656955
35.940409
36.461949
38.054585
39.243698
40.562749
40.710568
41.874647
43.695569
44.421554
44.565797
45.473576
45.790672
46.268702
46.244860
46.694875
46.692491
46.393871
46.617985
45.763850
45.363903
45.370460
45.205951
45.662522
##ZVALUE=305
1.207590
1.223683
1.209974
1.239777
1.230836
1.319647
1.332760
1.412630
1.369715
1.337528
1.349449
1.327991
1.348853
1.114607
1.316667
1.414418
1.631975
1.546741
1.630783
1.590848
1.539588
1.658797
1.658797
1.770854
1.906753
1.881719
1.970530
2.025962
2.150536
2.074838
2.526641
2.547503
2.548695
3.050566
5.235672
29.697418
80.820918
226.311684
400.722027
729.428530
994.457006
1015.605927
1015.605927
1015.605927
1015.605927
1015.605927
901.366472
561.401844
348.791480
156.965852
75.692534
27.264953
17.836690
20.520687
28.352737
44.209957
60.354471
85.305572
102.444887
122.197866
130.333900
129.544735
123.768449
106.974840
91.174841
68.780780
56.247711
42.961836
37.244558
33.667684
32.538772
33.742785
34.469962
35.958886
37.228465
38.394928
39.698482
41.856766
42.233467
43.587685
44.407845
45.878887
46.300888
47.525764
47.867894
47.468543
48.601627
48.291683
48.339963
48.197508
48.000813
46.632886
46.485662
46.373606
47.162771
46.656728
##ZVALUE=310
1.268983
1.192689
1.293421
1.181960
1.211762
1.138449
1.207590
1.501441
1.426935
1.360774
1.390576
1.279712
1.227856
1.457930
1.515746
1.202822
1.385808
1.293421
1.431704
1.448989
1.700521
1.366735
1.469851
1.550913
1.623631
1.715422
1.759529
1.852512
2.017617
1.828671
1.966953
1.907945
2.234578
2.401471
2.591610
2.852678
3.200769
12.850761
41.503906
136.995912
270.159841
553.483963
831.208825
1015.608907
1015.608907
1015.608907
1015.608907
1015.608907
1015.608907
745.677948
493.635535
244.585872
128.461719
44.823885
21.251440
15.490651
18.857718
27.719736
39.521456
58.271885
75.626969
98.652840
113.093853
124.687552
128.376484
120.364428
110.313892
91.015697
75.476766
59.511662
49.309731
41.640997
38.671494
37.431717
37.362576
39.342642
40.348768
42.001605
42.423606
45.090914
45.958757
46.503544
47.876835
47.983527
49.012899
49.230456
49.641728
49.538612
50.004721
48.653483
49.450994
49.883723
49.233437
48.812628
47.733784
48.218966
##ZVALUE=315
1.346469
1.245737
1.204610
1.308918
1.240969
1.384616
1.354814
1.267791
1.325607
1.200438
1.332760
1.398921
1.278520
1.378655
1.472831
1.197457
1.284480
1.459718
1.388788
1.452565
1.450777
1.627803
1.589656
1.496673
1.500845
1.696944
1.695752
1.749992
1.850724
1.808405
1.989603
1.962781
1.985431
2.087951
2.197623
2.400875
2.528429
2.711415
3.118515
5.987883
21.002889
86.838603
186.814666
420.641899
680.154562
1015.691757
1015.691757
1015.691757
1015.691757
1015.691757
1015.691757
904.386640
631.985664
331.602693
178.977847
65.672994
28.600693
15.483499
15.864968
20.516515
26.475787
39.918423
53.550601
75.416565
91.706514
112.138987
121.307969
123.778582
120.662451
106.268525
93.717575
76.631904
63.898563
51.394701
47.009587
42.595863
41.997433
42.835474
43.654442
45.113564
46.487451
47.989488
48.443675
48.773885
48.455000
50.679445
50.666928
50.600767
51.059723
50.875545
50.813556
50.470829
50.317645
49.964786
49.954653
49.049854
##ZVALUE=320
1.023412
1.250505
1.176596
1.247525
1.218915
1.259446
1.163483
1.249909
1.272559
1.066923
1.224875
1.215935
1.232624
1.242757
1.273751
1.170635
1.213551
1.374483
1.232624
1.278520
1.399517
1.356602
1.399517
1.382828
1.617670
1.541972
1.545548
1.670718
1.597404
1.597404
1.285672
1.673698
1.802444
1.721978
1.943707
2.145767
2.125502
2.375841
2.528429
2.373457
2.696514
3.796816
9.314418
48.162937
123.199821
317.924619
524.652004
866.583586
1015.622616
1015.622616
1015.622616
1015.622616
1015.622616
1015.622616
787.397027
437.572598
248.077512
103.586912
47.461987
18.836856
15.262961
16.236901
19.605756
27.445555
37.311912
54.806471
70.802569
92.201829
105.808973
119.210482
123.353601
118.640661
109.688640
93.331933
80.653429
64.319968
56.810975
49.897432
47.264695
46.314597
46.345592
47.927499
48.332810
49.380660
49.215555
50.776601
50.683618
51.935911
51.335692
51.005483
51.554441
51.332712
50.593615
50.828457
50.204992
50.201416
##ZVALUE=325
1.048446
0.965595
1.065731
1.016855
1.095533
0.980496
0.913739
0.950694
1.059771
0.983477
1.108646
1.079440
1.281500
1.151562
1.228452
1.290441
1.208782
1.300573
1.311898
1.194477
1.223683
1.333952
1.315475
1.357794
1.329780
1.207590
1.251698
1.438856
1.461506
1.488924
1.478791
1.617670
1.776814
1.561642
1.924634
1.749992
1.796484
1.981854
1.925826
2.305508
2.242923
2.282858
2.454519
2.955794
5.279779
31.052828
81.402659
215.386748
390.273929
727.261901
989.658833
1015.586853
1015.586853
1015.586853
1015.586853
1015.586853
881.582499
534.372926
319.189429
140.110850
67.752600
24.518967
16.410947
16.034842
17.728806
22.657514
28.610826
40.066838
53.504705
76.041818
90.289712
106.896758
116.550922
120.856762
116.423965
104.998946
93.189478
78.977942
68.547726
57.390928
52.108765
48.743486
48.329830
48.162937
49.154758
49.136877
50.459504
50.590634
50.552487
50.013661
50.081611
51.085949
50.297976
50.538778
49.849749
50.446987
##ZVALUE=330
1.046658
0.874996
1.058578
1.057982
1.044869
1.032948
1.141429
1.159906
1.128912
1.231432
1.209974
1.190901
1.471639
1.184940
1.007915
1.254678
1.176596
1.105666
1.188517
1.122952
1.306534
1.371503
1.229644
1.318455
1.395941
1.411438
1.210570
1.390576
1.298785
1.423955
1.429915
1.514554
1.339912
1.478791
1.809597
1.643896
1.749992
1.675487
1.805425
1.797676
1.820922
2.019405
2.276897
2.196431
2.498627
2.751946
3.441572
13.963580
43.641925
145.083666
280.898809
565.553904
830.250978
1015.607715
1015.607715
1015.607715
1015.607715
1015.607715
998.979807
660.147667
421.707630
194.145441
98.938942
37.645698
19.645691
16.252995
17.321706
20.035505
23.776889
32.433867
41.164756
56.978464
70.912838
91.564655
104.915500
114.997625
116.961002
113.380551
105.400681
90.573430
79.274774
66.662431
59.606433
53.995848
51.614642
50.085783
49.398541
49.287677
49.490929
49.050450
49.752593
49.054623
48.855543
49.767494
49.026608
49.767494
##ZVALUE=335
1.081824
1.069903
1.059771
1.012683
1.069903
1.045465
1.123548
0.969768
0.991821
1.098514
1.126528
1.133680
1.279712
1.032948
1.232624
0.987649
1.243949
1.126528
1.106858
1.039505
1.161695
1.101494
1.259446
1.254678
1.231432
1.242757
1.161695
1.258850
1.236796
1.332760
1.429915
1.307726
1.323819
1.316667
1.467466
1.411438
1.583695
1.593828
1.665950
1.650453
1.710653
1.746416
1.653433
1.808405
2.028942
2.381802
2.296567
2.676845
2.790689
6.800890
22.428632
88.930726
189.064741
423.671603
681.156516
1015.605927
1015.605927
1015.605927
1015.605927
1015.605927
1015.605927
777.371526
526.194572
273.767710
146.988630
53.971410
26.147962
17.671585
17.636418
19.959807
21.658540
26.959777
32.554865
44.671893
56.283474
73.982477
87.266564
102.844834
111.295581
114.402771
110.736489
100.894570
92.000961
78.531504
69.886446
60.512424
54.797530
51.644444
48.738718
48.738718
47.702789
47.112703
46.997666
47.292709
47.182441
47.506690
##ZVALUE=340
0.962615
1.062751
0.779629
0.884533
1.060963
1.003742
1.107454
1.044869
1.217723
1.134872
0.990629
1.021624
1.003742
1.120567
1.089573
1.316667
1.084805
1.130700
1.245737
1.146793
1.108646
1.101494
1.161695
1.161695
1.288652
1.114607
1.048446
1.146793
1.112819
1.285672
1.496673
1.346469
1.506805
1.513958
1.368523
1.354814
1.497865
1.581907
1.302958
1.565814
1.452565
1.546741
1.617670
1.592636
1.721978
1.887679
1.920462
2.012849
2.081990
2.333522
2.619624
3.517866
10.787845
53.880811
132.927895
330.705643
552.346706
909.138918
1015.606523
1015.606523
1015.606523
1015.606523
1015.606523
914.201736
637.946725
331.782699
184.976459
75.390935
34.485459
18.624663
18.221736
19.483566
20.835996
23.761988
27.822852
35.196543
43.227673
56.953430
70.381761
88.454485
99.880695
107.496977
109.771490
106.593966
101.097822
88.203549
78.663826
67.103505
60.125589
53.083897
49.559474
46.094656
45.628548
45.360923
45.731664
45.477748
##ZVALUE=345
0.855923
0.990629
0.946522
0.995994
0.976920
1.098514
1.086593
0.948906
1.132488
1.080632
1.014471
1.179576
1.054406
1.039505
1.110435
1.162887
1.199841
1.197457
1.203418
1.120567
1.143813
1.064539
1.189709
1.087785
1.159906
1.076460
1.035929
1.101494
1.216531
1.255870
1.244545
1.337528
1.353621
1.274943
1.409650
1.470447
1.487732
1.448989
1.335740
1.451969
1.400709
1.395941
1.564622
1.349449
1.565814
1.524687
1.599789
1.773834
2.007484
1.942515
2.053976
2.264977
2.337694
2.937913
5.447865
30.704737
85.597634
228.628516
402.596593
717.407465
982.616544
1015.605927
1015.605927
1015.605927
1015.605927
1003.244519
758.214593
428.917408
245.316625
103.593469
49.385428
21.899939
18.569827
19.776821
20.722747
22.190809
24.464726
28.664470
33.571720
43.476820
53.805709
68.919659
80.074668
93.173981
99.535584
103.400946
101.716518
94.708800
87.491870
73.857903
65.363646
55.931807
50.201416
46.434999
44.863820
43.191910
##ZVALUE=350
1.021624
0.922680
1.106858
1.013875
1.038909
0.972748
0.929832
0.933409
1.037717
1.155734
1.040697
0.881553
0.952482
1.046658
1.126528
1.119971
1.121759
1.063943
0.959635
0.987649
1.059771
1.116991
1.028776
1.092553
1.077652
1.218915
1.136661
1.158714
1.182556
1.027584
1.109838
1.197457
1.210570
1.261830
1.283884
1.321435
1.250505
1.134872
1.400709
1.267791
1.449585
1.384616
1.416802
1.523495
1.493692
1.470447
1.589656
1.469851
1.531839
1.636744
1.648664
2.039671
2.086759
2.222657
2.359748
2.728701
3.457665
15.432835
48.103929
152.501464
291.595459
578.323007
835.388899
1015.599966
1015.599966
1015.599966
1015.599966
1015.599966
871.611834
517.000556
316.850543
145.829916
70.419908
26.410818
18.650889
18.701553
19.377470
20.971894
22.128820
24.597645
27.700663
34.248829
40.550828
51.066875
60.422421
74.099898
82.833767
91.247559
95.826983
93.869567
88.940859
79.353452
71.644783
60.755610
54.806471
47.858953
##ZVALUE=355
1.142621
1.090765
1.205802
1.148582
1.125932
1.043677
1.170635
1.171827
1.169443
1.161695
1.221895
1.208782
1.280904
1.020432
1.232624
1.204610
1.020432
1.048446
0.957847
1.150966
1.118779
0.979900
1.240969
1.213551
1.281500
1.210570
1.357794
1.294613
1.305938
1.253486
1.142621
1.065731
1.253486
1.228452
1.223683
1.281500
1.331568
1.242757
1.527667
1.424551
1.509786
1.477599
1.433492
1.534820
1.437664
1.520514
1.622438
1.706481
1.769662
1.670718
1.798868
1.916885
1.811981
2.012849
2.119541
2.308488
2.326965
2.509952
2.733469
7.779598
26.035905
100.349784
205.595493
432.970524
678.375959
1007.647514
1015.707850
1015.707850
1015.707850
1015.707850
963.338614
633.190870
397.549868
175.796747
86.417794
31.926632
19.247532
17.483830
18.255711
19.421577
20.483732
22.075772
24.238825
27.675629
30.180812
38.158894
45.101643
56.628585
65.823793
75.966716
83.773732
88.562965
87.776780
82.761645
75.897574
66.470504
##ZVALUE=360
1.077652
1.073480
1.063943
1.066923
0.920892
1.004934
0.907779
1.011491
0.891685
1.147985
1.090765
1.088977
0.888705
0.996590
1.076460
1.150966
1.158714
0.947714
1.070499
1.022816
0.960827
1.076460
1.132488
1.039505
1.056790
1.116991
1.012683
1.119971
1.207590
1.086593
1.033545
1.027584
1.230836
1.296997
1.292825
1.315475
1.288652
1.286864
1.294613
1.369715
1.416802
1.244545
1.289845
1.341701
1.277924
1.350641
1.574755
1.307726
1.451969
1.544952
1.666546
1.688600
1.596808
1.607537
1.706481
2.094507
2.025962
2.170801
2.318621
2.552867
2.552867
3.913641
11.282563
51.710606
128.082633
315.852761
523.287654
847.684741
1015.605927
1015.605927
1015.605927
1015.605927
1015.605927
735.865831
485.555530
236.590505
124.788880
49.201846
24.558902
16.810894
17.017722
17.856956
18.535852
19.253492
20.750761
22.286773
24.390817
28.010607
31.556487
39.797425
47.321916
58.150887
66.131949
75.457692
79.162717
79.897642
##ZVALUE=365
0.902414
0.831485
0.920892
0.917912
1.072884
0.949502
0.745654
0.782609
1.015663
0.928640
0.899434
1.055598
0.912547
0.999570
0.993609
0.980496
1.103878
1.071692
0.950694
1.222491
1.144409
1.095533
1.033545
1.048446
1.062751
1.148582
1.153946
1.241565
1.053810
1.013875
1.091957
1.249909
1.159906
1.190901
1.111627
1.211762
0.966787
1.205802
1.295805
1.253486
1.259446
1.235604
1.259446
1.106858
1.329780
1.364946
1.298785
1.361966
1.321435
1.352429
1.462698
1.559854
1.427531
1.503825
1.456738
1.612902
1.796484
1.772642
1.710653
2.214909
2.020597
2.297759
2.447963
2.968907
5.557537
29.342771
78.199506
209.472775
387.006402
714.870691
961.661935
1015.551686
1015.551686
1015.551686
1015.551686
845.698714
595.950484
326.195955
177.414417
66.207647
30.203462
15.956759
14.938712
15.905499
16.065836
17.353892
18.093586
19.230843
20.383596
21.967888
24.013519
29.301643
34.575462
42.220950
49.827695
59.861541
##ZVALUE=370
1.014471
0.951886
0.999570
1.049638
1.017451
0.997782
1.028776
1.086593
1.014471
0.979900
1.095533
1.035929
0.872612
0.911951
0.867844
0.973940
0.988841
0.963807
0.988841
0.996590
1.027584
1.120567
1.001954
1.251698
1.078844
1.074672
1.166463
1.117587
1.192689
1.064539
1.092553
1.029968
1.074672
1.177788
1.014471
1.141429
1.255870
1.180768
1.165867
1.099706
1.164675
1.266599
1.229644
1.311898
1.260638
1.493692
1.264811
1.099706
1.072884
1.337528
1.281500
1.303554
1.492500
1.375675
1.516938
1.556873
1.563430
1.660585
1.633763
1.804829
1.630783
1.964569
1.973510
2.189875
2.166629
2.543926
3.421903
15.880466
50.454736
157.185793
297.942758
572.367907
829.413533
1015.605927
1015.605927
1015.605927
1015.605927
954.735875
705.457926
396.660566
225.528479
90.789795
42.406917
18.135905
14.601946
14.436841
14.771819
15.910864
16.421676
17.158985
17.829537
18.947721
20.200610
22.593737
25.983453
31.467676
##ZVALUE=375
0.986457
0.872612
1.013875
0.876784
1.081824
0.944734
0.981688
0.969768
1.055598
1.015663
1.001954
0.990629
1.076460
0.889897
0.955462
1.002550
0.827909
1.064539
0.906587
1.033545
0.927448
0.965595
1.014471
1.116991
0.969768
0.999570
1.005530
1.106858
1.154542
1.038909
0.900626
1.151562
1.075864
1.100898
1.187921
1.118779
1.187921
1.222491
1.136661
1.138449
1.302958
1.088977
1.201630
1.293421
1.061559
1.020432
1.083612
1.166463
1.307726
1.249909
1.336932
1.341701
1.201630
1.226664
1.417994
1.459718
1.579523
1.359582
1.558661
1.531839
1.609921
1.451969
1.683831
1.885891
1.915693
2.028942
2.268553
2.445579
2.836585
7.896423
26.634932
94.740987
204.374790
451.926589
697.425604
1005.568504
1015.617847
1015.617847
1015.617847
1015.617847
813.248754
493.836403
310.636759
153.401494
77.338815
28.106570
15.468597
13.176799
13.509989
14.129877
14.681816
15.672445
15.999675
17.165542
17.654896
18.912554
##ZVALUE=380
0.850558
0.963807
0.869632
0.946522
0.845790
0.893474
0.884533
0.880957
0.964999
0.846982
1.066923
0.939965
0.779629
0.857711
0.931621
0.879765
0.963807
0.798702
0.853539
0.828505
0.902414
0.881553
0.891685
1.021624
1.018643
0.902414
0.923872
0.928640
0.906587
0.917912
0.980496
0.937581
1.033545
1.085997
1.096725
1.171827
1.211762
1.250505
1.133680
1.159906
1.226664
0.979900
1.076460
1.166463
1.136661
1.011491
1.135468
1.202822
1.328588
1.078844
1.139641
1.273751
1.064539
1.169443
1.181960
1.171827
1.272559
1.387596
1.262426
1.341701
1.539588
1.595616
1.405478
1.707673
1.586676
1.731515
1.827478
2.190471
2.097487
2.499819
2.508759
4.315972
14.476776
67.482591
154.830813
363.572836
583.522916
904.850960
1015.605927
1015.605927
1015.605927
1015.605927
939.787626
623.386502
414.812565
203.685760
104.476810
39.597750
19.514561
12.664795
12.142658
12.887716
13.159513
13.825893
14.632940
15.203953
##ZVALUE=385
0.882745
0.758767
0.919700
0.986457
0.898838
0.919700
0.872612
0.917912
0.982881
0.806451
0.864863
0.925660
0.994802
1.070499
0.979900
0.969768
0.919700
0.779629
0.990629
0.886917
0.890493
1.021624
0.935793
1.020432
0.824928
0.997782
1.026988
0.942945
0.984669
0.996590
1.046658
0.970960
1.013875
1.089573
1.151562
0.870824
0.994802
1.010895
0.978708
1.025796
0.930429
1.100898
1.055598
1.004934
1.187921
1.014471
0.972748
1.089573
1.049638
1.158714
1.072884
1.051426
1.083612
1.131892
1.248717
1.196861
1.158714
1.222491
1.239777
1.284480
1.270771
1.301765
1.407862
1.428723
1.556873
1.466870
1.595616
1.818538
1.870990
2.049804
2.214909
2.488494
2.480745
3.067851
6.943941
37.572980
97.261667
247.627497
437.199473
768.280029
997.827649
1015.605927
1015.605927
1015.605927
1015.605927
789.643526
557.698011
300.381780
170.005560
70.718527
30.594468
13.145804
11.258721
11.385679
11.823773
12.601614
##ZVALUE=390
0.883937
0.753999
0.837445
0.803471
0.888705
0.858903
1.004934
0.901818
1.028776
0.818968
0.815988
0.712872
0.809431
0.943542
0.774860
1.042485
0.808835
1.028776
0.917912
0.918508
0.902414
0.960827
0.890493
0.892878
0.862479
0.980496
0.964999
0.893474
0.998974
0.947714
0.921488
0.940561
1.058578
1.020432
1.094937
1.044869
0.926852
1.052618
0.976920
0.963807
0.923872
1.035929
1.117587
1.056790
0.883937
1.032948
1.076460
0.984669
1.171827
1.130700
1.096725
1.109838
1.073480
1.035929
1.229644
1.187921
1.324415
1.208782
1.086593
1.183748
1.274943
1.144409
1.227856
1.279712
1.239777
1.433492
1.566410
1.549721
1.667738
1.921654
1.914501
2.064705
2.224445
2.218485
2.398491
2.431870
3.829598
19.727945
60.994625
189.363956
353.330970
655.421019
887.609720
1015.605927
1015.605927
1015.605927
1015.605927
939.576030
709.770918
422.948599
243.490934
98.262429
47.160983
17.999411
11.457801
10.702610
##ZVALUE=395
0.767708
0.956655
0.890493
1.074672
0.993609
1.047850
0.794530
0.823736
0.838637
0.898838
0.872612
0.768900
0.964999
0.826716
0.851750
0.915527
0.967979
0.814795
1.053810
0.921488
0.950694
0.957847
1.057982
0.950694
0.933409
0.956655
0.944734
0.981688
0.946522
0.941753
1.007915
0.932813
0.917912
1.038909
0.985861
0.939965
0.893474
1.002550
0.890493
1.045465
1.138449
1.060963
1.054406
1.112819
0.922680
1.073480
1.078844
1.151562
1.124740
1.114607
1.181960
1.122952
1.062751
1.140833
1.066923
1.214743
1.220703
1.143813
1.323819
1.110435
1.249909
1.311898
1.277924
1.354814
1.352429
1.398921
1.355410
1.658797
1.701713
1.792908
1.798868
1.771450
1.789927
1.810789
1.923442
2.063513
2.095699
2.266765
2.875924
11.070967
39.509535
136.010647
256.697536
489.240885
722.188950
1014.209986
1015.605927
1015.605927
1015.605927
1015.605927
852.148533
521.629453
321.630836
139.574409
67.162514
24.030805
##ZVALUE=400
0.905991
0.967979
0.904799
0.779629
0.881553
1.018643
0.987649
1.036525
1.014471
1.039505
1.084805
0.902414
1.071692
1.083612
0.921488
0.961423
0.910759
1.136661
1.011491
1.053810
1.042485
1.017451
1.191497
1.019835
1.131892
1.057982
1.088977
1.081824
1.063943
1.081824
0.948906
1.020432
1.145601
1.142621
1.233816
1.192689
0.940561
1.060963
1.108646
1.254678
1.142621
1.104474
1.019835
1.112819
1.165867
1.075864
1.084805
1.231432
1.356602
1.083612
1.299977
1.160502
1.212955
1.023412
1.223683
1.159906
1.209974
1.249909
1.213551
1.191497
1.229644
1.218915
1.426935
1.343489
1.334548
1.498461
1.481771
1.682639
1.644492
1.884699
1.949668
1.900792
1.921654
1.788735
2.025962
1.803637
1.816750
2.073646
2.069473
2.438426
2.642870
6.340742
20.748973
75.960755
165.205598
374.101996
593.214631
912.906528
1015.720963
1015.720963
1015.720963
1015.720963
933.791995
608.626604
399.296880
200.093985
##END
