##TITLE=DDW1
##FORMAT=SPECTACLE-ASCII V-1.2
##DATA TYPE=ULTRAVIOLET SPECTRUM
##SECOND TYPE=ULTRAVIOLET SPECTRUM
##DATE=01/09/18
##TIME=15:25:35
##SPECTROMETER/DATA SYSTEM=SPECTACLE
##XUNITS=NM EM
##YUNITS=ENERGY
##YFACTOR=1
##FIRSTX=220
##LASTX=410
##NPOINTS=96
##3DDATA=Equidistant
##ZUNITS=NM EX
##FIRSTZ=210
##LASTZ=400
##ZPOINTS=39
##XYDATA=(Y..Y)
##ZVALUE=210
12.249947
12.519956
11.508465
10.621548
9.783506
9.809732
8.072853
6.874800
5.632639
4.954934
3.866553
2.719760
2.903938
1.648664
1.765490
2.074838
1.497865
1.740456
1.566410
2.298951
2.246499
2.064705
2.082586
2.437830
2.784729
2.991557
2.312660
2.695918
2.733469
3.164411
2.912879
3.314614
3.171563
2.613664
2.617836
3.817677
3.870726
3.530979
3.598928
3.841519
3.908873
4.433990
3.850460
4.119873
3.393888
3.859997
3.410578
4.229546
4.148483
4.770756
4.015565
4.191995
4.165769
4.123449
4.953742
4.553795
5.366802
4.369617
4.429817
4.595518
4.956722
4.788637
4.418492
4.434586
4.167557
3.997684
4.366636
5.017519
5.252957
5.963445
6.521940
6.826520
7.321835
7.365942
8.824468
8.831620
7.505417
7.820725
7.806420
6.989837
6.032586
5.984902
5.563498
5.154610
4.215837
3.871918
3.632903
3.810525
3.850460
5.038977
5.738735
8.172989
11.596680
12.486577
16.974807
20.403862
##ZVALUE=215
31.211972
28.261542
25.385618
21.206737
18.382668
16.077757
15.433431
14.152527
13.054609
13.439655
10.696650
8.288622
5.941987
4.593730
2.999902
2.614856
2.203584
1.678467
2.352595
2.208948
2.173781
1.987815
2.266765
2.514720
2.421737
2.614856
2.803802
2.837777
2.770424
2.858639
3.331900
3.180504
3.523827
3.440976
3.580451
3.593564
3.569722
4.650950
4.051924
4.713535
4.110932
4.405975
4.570484
4.680753
4.824996
4.425645
4.673600
4.388690
4.365444
4.902482
5.490780
5.646944
5.850792
6.556511
6.324649
6.962419
6.610751
5.857944
6.667972
5.643964
6.236434
5.962849
6.103516
5.943775
5.731583
5.267859
6.426573
6.832480
6.009936
6.405711
7.813573
7.107854
7.122755
8.191466
7.765889
8.827448
8.706450
8.377433
8.212924
7.290840
6.729960
6.306767
5.286932
5.169511
4.681945
4.363656
4.824996
4.090667
3.788471
3.816485
3.913641
3.319979
3.084540
4.355907
5.059838
8.218884
##ZVALUE=220
59.397817
60.828924
60.848594
55.053830
48.999786
38.974881
31.029582
27.935505
25.073886
22.761822
23.251772
22.813678
19.807816
17.818809
12.982488
10.093451
5.753636
4.826784
3.379583
2.573729
2.680421
3.176928
2.241731
3.179908
2.441406
3.004670
2.702475
2.903938
3.371835
2.998710
2.825856
3.183484
3.254414
4.657507
3.974438
5.174875
4.625916
5.635619
5.396605
5.507469
5.158782
5.760789
5.775690
5.088449
5.751848
6.884933
5.635619
5.473495
5.917549
7.196665
6.946921
7.819533
7.368922
8.343458
8.684993
9.026527
10.299683
10.443926
8.918643
9.808540
9.584427
9.152889
8.860826
8.312464
8.954406
8.555651
8.791685
8.409619
9.066463
8.464456
8.673668
9.336472
8.749962
8.720756
10.028481
9.284616
10.647774
9.211898
9.593964
9.116530
9.737611
7.751584
6.727576
6.263852
5.464554
5.081892
4.196763
4.924536
3.794432
4.170537
4.119873
4.330873
4.265904
3.538728
4.364848
3.834963
##ZVALUE=225
73.869824
75.755715
95.186830
104.153752
103.265643
96.571445
86.755753
66.956878
53.505898
44.142604
37.873983
36.801696
35.099983
38.917661
36.500692
32.977462
24.908781
17.788410
13.256669
8.698702
5.894899
3.499985
3.510714
2.381802
2.860427
3.675818
3.257990
3.629923
3.159642
3.224611
3.534555
3.755689
4.711747
3.877878
4.415512
5.112886
6.143451
5.519986
6.487966
6.399751
5.924702
5.787611
6.749630
7.198453
7.126927
7.264614
6.880760
5.913973
7.780790
8.648634
9.485483
9.547472
10.917783
11.167526
11.153817
11.974573
12.065768
10.956526
12.359619
13.374686
13.174415
12.139678
12.179613
11.387467
10.553598
10.710955
10.410547
9.677410
9.715557
10.082722
11.236668
10.297894
10.753870
11.059642
11.307597
10.498762
10.093451
9.620786
9.619594
7.672906
6.859899
7.359982
6.284714
6.208420
6.927848
5.481839
5.224943
4.938841
4.948974
5.404949
4.649758
4.429817
4.722476
4.169941
4.618764
4.803538
##ZVALUE=230
47.467947
53.163767
75.426698
119.008422
150.212646
175.374746
181.068778
167.171955
144.405961
122.475624
89.179873
70.283413
55.514574
52.046776
54.306984
57.661533
58.524609
55.677891
45.947433
38.199425
27.754903
16.845465
12.666583
6.271601
4.434586
3.637671
4.190803
3.886819
3.841519
4.100800
3.944635
4.260540
4.971623
4.471540
5.633831
5.492568
6.477833
5.680919
6.692410
6.952882
6.894469
6.597638
7.614493
6.655455
7.948875
7.792711
8.589625
7.450581
8.514524
9.455681
9.419918
11.380911
11.582971
12.148619
12.402534
12.665987
12.567639
12.622476
14.312863
14.271736
12.698770
12.978911
12.714863
11.874437
12.534857
11.723638
11.212826
10.494590
10.384917
10.455847
10.243654
10.507703
10.722876
10.763407
10.917783
12.018681
9.766817
10.039806
9.358525
8.402467
7.526875
8.291602
6.899834
6.251931
7.191896
6.052852
5.696416
5.483627
5.182624
6.215572
5.079508
4.920959
5.062819
4.855990
5.681515
4.759431
##ZVALUE=235
13.957620
14.617443
32.836795
70.920587
108.549595
173.241496
219.246745
263.414979
285.500884
277.359486
242.973566
196.718574
139.246583
109.128952
81.734657
77.170730
74.346662
81.865788
90.567470
87.338686
80.533624
67.877769
46.476722
33.577681
19.699931
13.944507
8.493662
4.920959
4.578829
4.252791
4.116893
4.732609
3.779531
4.383922
4.430413
5.329847
4.533529
5.278587
6.017685
6.123781
6.664991
6.061792
6.294847
6.224513
6.097555
7.063746
7.122755
6.553531
6.639957
7.955432
7.656813
9.234548
8.673668
10.546446
9.300709
10.159612
10.445714
10.461807
10.590553
11.565685
12.342930
10.098815
9.672642
9.666681
9.187460
9.895563
9.849668
9.023547
11.141896
9.405613
11.032820
10.468960
10.502934
10.456443
10.195971
10.569692
10.293722
10.064840
9.023547
8.993745
7.374883
7.149577
7.507801
5.912781
6.703734
5.943775
6.391406
5.479455
6.550550
5.536675
5.101562
5.693436
5.671978
5.398989
5.881786
5.912781
##ZVALUE=240
1.697540
1.524687
5.701780
14.342666
38.004518
73.734522
144.948959
216.356516
322.840810
379.669666
419.227481
418.176651
381.157994
304.497480
238.425732
153.861642
116.545558
100.344419
96.569657
106.159449
116.726756
124.399662
117.886662
107.374787
82.919598
66.249967
43.028593
30.150414
18.045902
11.888742
7.275939
5.665421
4.003644
4.602671
5.135536
5.319715
4.863739
5.061626
5.238652
5.613565
5.934834
5.600452
5.288720
5.196929
5.399585
5.184412
5.321503
6.238818
4.918575
6.293654
7.040501
6.923676
6.684661
7.360578
7.687807
7.351637
8.302927
7.676482
8.459687
8.518696
8.656979
8.467436
8.441806
8.142591
7.918477
7.926822
8.635521
8.149743
8.589625
8.868575
8.765459
9.072423
9.701848
10.187626
9.801984
9.681582
9.795427
9.484887
8.552670
9.494424
8.278489
8.254647
7.241964
7.447600
7.045865
6.066561
6.724596
6.435513
5.964637
6.449819
6.528497
5.497932
5.565882
6.624460
5.951524
6.679893
##ZVALUE=245
1.188517
1.321435
1.392961
1.819730
2.669692
10.695457
24.039745
68.591833
126.960874
203.228593
323.359966
414.156914
488.692522
503.512621
476.775765
406.803489
303.331017
230.688453
165.910721
110.331774
96.146464
102.301836
115.249753
130.691528
132.617950
124.463439
114.159584
86.666942
74.100494
47.524571
34.187436
18.163919
11.851788
6.366968
5.493760
4.856586
5.077720
4.857779
5.261898
4.476905
4.645586
4.977584
4.495978
4.741549
3.981590
4.831553
4.391670
4.317760
4.966855
5.409718
5.595684
6.282926
6.681681
6.268620
6.361604
6.693602
7.106662
7.190704
6.270409
7.563829
7.601976
7.687807
7.583499
7.997751
7.970929
7.021427
7.358789
7.265806
7.933974
7.779598
8.869767
8.311868
8.212924
8.932948
10.087490
9.589791
8.650422
9.101629
7.697940
7.859468
8.742809
6.918907
6.627440
6.731749
5.913973
5.640984
5.855560
5.553961
5.642772
6.745458
5.145669
5.578995
5.733967
5.013943
5.311966
5.333424
##ZVALUE=250
0.997782
1.273751
1.401901
0.654459
1.090765
1.691580
1.670718
4.789829
21.212697
48.106909
115.744472
193.335414
289.383531
422.406793
505.283475
569.290519
559.566617
500.568748
419.501662
289.901495
197.258592
136.728883
95.645785
91.292858
104.542971
126.259923
137.493610
144.484639
135.554671
120.878816
101.581812
75.448751
54.613948
31.482577
20.104647
10.545850
6.498694
4.802942
4.265904
4.298687
4.502535
4.644990
4.243851
4.624724
4.173517
5.094409
4.482865
4.558563
5.389452
5.145669
5.807877
6.607771
6.347895
6.672740
7.011890
6.328821
6.478429
6.689429
6.743670
7.234812
6.776452
7.598996
7.172823
6.566644
7.499456
6.973743
7.191896
7.093549
7.436872
7.212758
7.449985
7.718801
7.591844
8.326769
8.411407
8.123517
7.590652
8.029938
7.186532
6.552935
6.999969
6.111860
5.942583
6.121993
5.643964
5.936623
5.309582
5.221963
4.647970
5.767941
5.134940
5.072951
4.711747
4.855990
5.089641
4.982948
##ZVALUE=255
0.980496
0.871420
0.805855
1.168847
0.858903
0.970960
1.143813
1.466870
2.448559
2.696514
13.629794
32.937527
88.331699
149.474740
262.190700
363.178849
544.799566
579.898953
589.895844
573.577881
479.311943
380.792618
239.857435
160.496831
97.849965
83.028674
88.961720
104.841590
129.373670
140.700936
147.553682
141.265988
128.811598
104.374886
81.246495
52.311420
35.322905
19.462705
12.336969
7.508993
5.901456
4.731417
5.340576
5.000830
5.503893
5.757809
5.911589
5.284548
5.452633
5.916953
6.124973
6.787777
6.943941
6.864667
6.516576
7.136464
7.641912
7.197857
7.396936
7.716417
8.012652
7.385612
7.743835
7.444620
6.940961
7.325411
7.176995
7.423759
7.519722
7.463694
7.994771
7.938743
7.755756
8.024573
7.382631
7.469654
7.499456
6.428957
6.860495
6.824732
6.054640
5.696416
5.838871
5.085468
5.364418
5.455613
5.127788
4.585981
5.092621
4.452467
4.216433
4.748702
4.474521
3.875494
4.351735
4.790425
##ZVALUE=260
0.738502
0.783801
0.676513
0.840425
0.767708
0.608563
0.810623
1.063943
1.272559
1.169443
1.410842
1.660585
5.597472
38.760900
53.545833
175.827742
219.827890
398.893952
472.755432
646.155477
650.065541
589.907765
575.626493
445.531011
335.576534
207.706690
89.510679
85.659623
72.068572
79.995990
107.670426
129.670501
144.642591
152.238607
150.271654
130.700469
111.494660
66.179633
54.536462
29.064417
23.430586
9.669662
8.776784
6.539822
5.810857
5.697608
5.697608
5.637407
6.143451
6.767511
7.583499
7.379651
7.802844
7.547736
8.405447
8.578897
8.739829
8.502603
8.592606
8.752942
8.827448
9.140968
9.021759
8.031726
8.674860
8.338690
7.804632
7.299781
7.839799
7.718801
7.801652
8.047819
7.893443
7.338524
7.347465
7.609725
6.844997
6.704926
6.475449
6.119609
5.806684
5.886555
5.677938
5.959868
5.135536
4.452467
5.170703
4.597902
4.968643
4.382730
3.889799
4.556775
4.091859
4.411936
3.990531
3.746748
##ZVALUE=265
0.698566
0.410676
0.796914
0.641942
0.648499
0.542998
0.757575
0.668764
0.754595
0.775456
0.893474
1.100898
0.999570
1.252890
2.760887
14.062524
36.590695
93.128681
164.474845
311.075449
437.520742
558.615923
675.621033
703.071952
638.480783
546.957850
406.245589
293.037891
168.511868
105.144978
72.465539
65.664649
80.119967
112.816691
131.864548
154.475570
161.498785
148.598552
135.239959
108.934641
84.705949
56.682825
38.622618
23.011565
14.529824
9.158850
8.424520
7.055998
7.590652
7.865429
8.314848
8.671880
8.476973
9.018779
9.412766
9.464622
8.974671
9.634495
10.026693
8.988976
9.354949
9.808540
9.442568
8.811951
8.250475
8.345842
8.481741
8.117557
8.390546
8.188486
8.626580
7.811785
7.700920
7.892847
7.580519
7.975698
6.761551
7.435679
6.929636
6.301999
5.937815
5.686879
5.369782
5.724430
5.719662
4.829764
4.631877
4.786849
4.309416
4.661679
4.462600
3.933907
4.319549
4.413724
3.954768
4.145503
##ZVALUE=270
0.383854
0.342727
0.271797
0.404716
0.440478
0.270605
0.444651
0.219941
0.440478
0.458956
0.583529
0.602603
0.559688
0.557899
0.744462
0.867844
1.504421
5.748868
19.291639
64.528584
125.954747
223.481655
398.386717
534.510612
676.755905
732.898712
717.980862
649.528503
502.911806
376.976728
261.966586
139.967799
86.179972
57.098866
60.732961
85.095763
109.308958
138.520002
152.120590
159.598589
154.065490
134.890676
114.298463
83.597898
61.377883
36.857724
24.920702
15.747547
11.571646
8.851886
8.877516
8.548498
9.778738
9.681582
9.509921
10.022521
9.434819
10.229945
10.089874
10.347962
9.878874
10.466576
10.212660
9.903908
9.030700
9.172559
8.450747
9.265542
8.464456
8.419752
7.920861
8.250475
8.256435
8.234978
8.134842
7.459521
7.010698
7.287860
6.326437
5.910993
6.115437
5.620718
5.840659
5.268455
5.158782
4.862547
4.187822
4.586577
4.012585
4.151464
3.912449
4.121661
3.926754
4.154444
3.903508
3.615618
##ZVALUE=275
0.459552
0.634789
0.468493
0.569820
0.549555
0.521541
0.491738
0.484586
0.506639
0.720620
0.537634
0.791550
0.702739
0.752807
0.728965
0.800490
0.849962
0.953674
0.873804
2.861619
10.993481
32.965541
100.828409
192.293525
353.696942
482.286811
630.543828
715.290904
749.687552
711.669922
627.011657
463.698506
331.088901
176.579952
105.325580
56.533813
46.916604
61.149597
82.274675
111.248493
133.766532
152.018666
159.686804
150.184631
136.830807
108.180642
86.056590
60.219765
42.796731
25.950670
17.940998
12.709498
11.032820
9.739995
9.778738
10.189414
10.146499
10.758638
10.654926
10.777712
10.550618
10.406971
10.328889
10.084510
9.800792
9.320974
8.858442
9.117723
8.876920
8.704662
8.415580
8.545518
7.837415
8.032918
7.541776
7.643700
7.632971
7.278919
6.599426
6.380677
6.195903
5.873442
5.350709
5.113482
4.623532
4.743934
5.059838
4.393458
4.586577
4.733801
4.184842
4.288554
4.431605
3.865957
4.417896
3.929734
##ZVALUE=280
0.375509
0.507832
0.479817
0.275970
0.504851
0.443459
0.623465
0.645518
0.537634
0.586510
0.533462
0.765920
0.663996
0.740886
0.726581
0.585914
0.564456
0.539422
0.862479
0.804663
0.972748
1.143813
6.747842
22.914410
76.823831
146.340728
277.937651
410.335660
590.002537
697.485805
771.288872
758.324862
687.365532
522.248745
387.036800
219.920874
132.921934
64.449906
43.165684
42.426586
57.057738
84.151626
105.134845
133.928657
148.171782
153.009892
147.733688
130.237937
111.983418
84.059834
62.814951
40.746927
28.088689
18.208623
13.213754
10.891557
9.599924
9.739995
9.348989
10.022521
10.813475
10.435581
9.495616
9.792447
9.336472
9.367466
8.079410
8.703470
8.413792
8.178949
8.447766
8.112788
7.844567
7.597804
7.799864
7.622838
6.757975
7.264614
6.062984
6.173849
5.874634
5.551577
5.190969
5.163550
5.158782
5.041957
4.678965
4.966855
4.358888
4.355907
4.441738
4.225969
4.003644
4.062653
3.987551
3.387928
##ZVALUE=285
0.185966
0.345707
0.217557
0.158548
0.235438
0.344515
0.255704
0.245571
0.128746
0.109673
0.164509
0.161529
0.537634
0.440478
0.263453
0.501871
0.550747
0.399947
0.622869
0.716448
0.793934
0.589490
0.766516
0.937581
3.185868
11.277795
40.893555
87.851882
197.147727
306.021571
436.079502
611.227751
716.403723
765.194893
722.568631
587.570667
461.104512
290.449858
178.589821
87.663531
48.428774
30.418634
34.105778
53.174496
74.000955
103.787780
123.536587
140.510798
147.774816
144.115686
129.742622
109.131932
86.411834
60.364604
42.233467
25.399923
18.415451
12.166500
10.009408
9.005666
8.838773
8.412600
8.268952
7.805824
8.222461
8.184910
7.624626
8.096695
8.011460
7.432699
7.081628
7.266998
7.086992
6.683469
6.719828
6.543994
6.184578
6.073713
5.805492
5.391836
5.225539
4.905462
4.880428
4.825592
4.718900
4.367828
4.222989
4.036427
4.245639
4.034638
3.812909
4.115701
3.727674
3.567934
3.564954
3.262758
##ZVALUE=290
0.395775
0.402927
0.299811
0.470877
0.337958
0.379682
0.471473
0.312924
0.408888
0.343919
0.480413
0.307560
0.450611
0.370741
0.414848
0.445843
0.486970
0.588894
0.462532
0.668764
0.689626
0.688434
0.810623
0.943542
1.024604
1.018643
1.526475
4.927516
22.646785
54.276586
133.354664
234.338641
364.516973
562.742949
682.233572
777.290463
762.963891
657.189488
538.164973
359.964967
237.485766
120.757818
64.247847
28.477907
22.846460
33.163428
45.991540
70.597529
91.567636
117.655993
133.345723
142.969489
141.448975
127.424598
110.304952
81.611872
60.482621
38.463473
26.662946
16.336441
11.970997
8.273721
7.613897
6.880760
6.670952
6.824732
6.701946
7.001758
6.737709
6.274581
6.159544
6.250739
6.284714
6.473660
6.136894
5.746484
5.694628
5.212426
5.365610
5.032420
4.541874
4.721880
4.321933
4.439950
4.301667
4.263520
4.047751
4.276633
3.904700
3.449917
3.848672
3.540516
3.480911
3.690720
3.419518
3.419518
##ZVALUE=295
0.312924
0.241995
0.167489
0.358820
0.363588
0.262856
0.203848
0.403523
0.412464
0.422597
0.345707
0.472665
0.640750
0.402927
0.451803
0.425577
0.476837
0.513792
0.571609
0.527501
0.565648
0.422597
0.771880
0.825524
0.612736
0.678897
0.969768
0.877976
1.219511
2.209544
11.041760
31.849742
76.096654
185.748935
301.578641
490.503907
620.211959
738.924742
767.325759
703.324676
604.652762
429.392457
294.242501
151.695609
85.483789
35.081506
20.295978
19.862652
27.834773
45.614839
62.529445
89.426637
107.025504
127.863884
133.782625
133.910775
120.911598
99.792480
81.744790
55.587888
39.850473
23.763776
15.544891
9.529591
7.403493
5.671978
5.276799
5.459785
4.993677
4.874468
4.712939
5.232692
5.108714
5.110502
4.803538
4.954934
4.848838
4.436970
4.437566
4.381537
4.193783
3.999472
3.929734
3.793836
3.711581
3.722906
3.671646
3.565550
3.706813
3.507733
3.405809
3.128648
3.295541
3.354549
3.406405
3.430843
##ZVALUE=300
0.172853
0.391603
0.151992
0.325441
0.221729
0.367761
0.372529
0.261664
0.195503
0.326633
0.280738
0.203848
0.448823
0.330806
0.385642
0.401735
0.298619
0.412464
0.446439
0.414848
0.439882
0.310540
0.660419
0.616908
0.653863
0.662804
0.570416
0.772476
0.861883
1.020432
1.164675
1.441836
4.804730
17.254949
59.435964
119.389892
248.172879
384.396911
570.781827
683.227777
770.059824
762.193799
655.378699
529.267788
347.667933
226.036906
114.959478
61.406493
25.045872
14.949441
17.337799
24.855733
40.950775
57.350993
80.989599
101.725459
120.271444
126.969814
126.632452
118.305683
97.861886
79.455972
56.029558
39.673448
23.334622
15.229583
8.329749
5.774498
4.669428
4.588962
4.220605
4.109740
4.135966
3.924966
4.186630
4.005432
3.957748
3.845692
3.695488
3.803968
3.750920
3.410578
3.527999
3.428459
3.438592
3.378987
3.030896
3.230572
3.406405
3.169775
3.199577
2.960563
3.129840
3.071427
3.054738
3.092885
##ZVALUE=305
0.262856
0.228882
0.210404
0.337958
0.193715
0.213981
0.200868
0.150800
0.275970
0.295639
0.257492
0.139475
0.315905
0.221729
0.205636
0.337958
0.294447
0.277758
0.340939
0.429749
0.489950
0.433922
0.444651
0.380874
0.401735
0.518560
0.583529
0.596642
0.447631
0.655651
0.616908
0.848770
1.017451
1.164675
2.490878
9.192824
38.901567
85.482001
192.290545
301.924944
469.792485
592.382550
705.768466
735.623837
672.477484
570.079684
410.171747
291.680694
155.695677
86.184740
34.275651
17.532706
12.223721
14.510751
23.984909
36.302805
58.856606
75.649619
97.165704
111.429691
120.471716
120.832920
110.188723
95.254779
72.074533
55.157542
35.369992
22.831559
12.787580
8.213520
5.351901
4.448891
4.028678
3.652573
3.725886
3.419518
3.635883
3.296733
3.419518
3.170967
3.284812
3.218651
2.861619
3.346801
3.435612
3.237724
3.274679
3.150702
3.168583
3.311634
3.222823
2.914667
2.907515
3.182888
3.235936
2.919436
##ZVALUE=310
0.181794
0.258684
0.201464
0.301600
0.211596
0.163913
0.280738
0.201464
0.195503
0.297427
0.281930
0.389814
0.491738
0.267625
0.342727
0.187755
0.249743
0.408888
0.245571
0.545979
0.333786
0.326633
0.485778
0.392795
0.373721
0.415444
0.563860
0.610948
0.552535
0.565648
0.602603
0.610948
0.665784
0.772476
0.812411
0.832677
1.151562
5.176663
17.531514
60.046911
115.971565
237.466693
360.181928
531.783700
639.882684
717.658997
709.148645
623.613000
516.158938
347.718596
231.823921
118.375421
63.998699
24.914742
12.216568
9.916425
12.651682
21.112561
30.907989
49.875975
64.995885
88.524818
102.118850
111.135840
113.324523
104.021430
90.938807
71.256757
53.966641
33.681989
23.032427
13.593435
8.860826
5.303621
4.160404
3.700852
3.614426
3.107786
2.974868
2.859831
3.059506
2.967715
2.980828
3.017783
3.094673
3.163815
3.168583
3.085732
3.253818
2.983809
3.161430
3.078580
3.085732
3.083944
2.961755
3.144741
##ZVALUE=315
0.274777
0.122786
0.132918
0.031590
0.228882
0.053644
0.127554
0.267625
0.125766
0.174642
0.215769
0.183582
0.302792
0.151992
0.280738
0.149608
0.199676
0.155568
0.352859
0.298619
0.307560
0.341535
0.392795
0.312924
0.356436
0.432730
0.398755
0.520945
0.381470
0.516772
0.323653
0.441670
0.538826
0.554919
0.724792
0.691414
0.698566
1.026988
1.136661
1.741648
10.616779
30.040741
89.713931
163.318515
306.931734
437.385440
590.010881
678.185821
723.948479
685.611963
568.626523
452.677011
285.079479
181.514621
87.492466
42.259693
14.471412
8.711815
8.927584
11.410713
18.973947
28.152466
45.069456
60.651898
80.832839
94.358921
105.013847
105.647445
96.559525
84.728599
64.249635
49.418807
32.238960
21.882653
12.313724
8.081794
5.006790
3.926754
3.501773
3.283620
2.889633
2.919436
2.993941
2.725720
3.026724
2.983809
3.027916
3.093481
3.170967
2.799630
3.455877
3.106594
2.835989
2.882481
2.971888
2.797842
##ZVALUE=320
0.140667
0.064969
0.261664
0.112653
0.144839
0.362992
0.339746
0.146627
0.297427
0.220537
0.150800
0.149608
0.187755
0.221729
0.314713
0.345707
0.100732
0.311732
0.232458
0.342727
0.315905
0.296831
0.395775
0.249743
0.379682
0.232458
0.335574
0.301600
0.324845
0.532866
0.478625
0.480413
0.526905
0.423789
0.518560
0.494719
0.583529
0.770688
0.682473
0.853539
0.965595
1.230836
3.373623
19.601583
50.634742
132.785439
220.060945
363.620520
485.606790
631.372929
691.815615
692.033768
630.115867
490.394831
359.922647
202.871561
118.457675
51.655769
24.326444
9.047985
7.024407
7.799864
10.226965
16.715527
24.488568
39.985776
55.418611
74.881911
88.323951
97.570419
100.129843
92.969537
82.520843
62.791705
47.646761
30.998588
20.475984
11.768937
7.806420
4.820824
3.842711
3.157854
2.942681
2.782941
2.950430
2.855659
2.678633
2.727509
2.719760
2.673864
2.718568
2.965927
2.822876
3.018975
2.881885
2.726912
##ZVALUE=325
0.085831
0.028610
0.037551
-0.021458
0.043511
-0.082850
0.137687
0.119805
0.027418
0.184774
0.135899
0.193715
0.156760
0.119805
0.038743
0.118613
0.063777
0.097752
0.084639
0.159740
0.089407
0.295639
0.263453
0.240803
0.138879
0.285506
0.254512
0.256896
0.371933
0.213981
0.134706
0.318885
0.250936
0.309944
0.154972
0.407696
0.386834
0.229478
0.279546
0.526905
0.479817
0.793934
0.567436
1.045465
1.704693
11.703968
32.991767
89.540482
161.715746
301.084518
423.030853
573.500991
652.037859
686.517954
643.397570
517.902970
392.507911
235.014558
144.140720
65.744519
32.032728
11.521578
6.619692
5.953908
6.828904
10.000467
14.813542
24.826527
36.501884
55.637956
69.486499
86.087584
92.539787
92.085600
87.258816
73.145628
59.515834
41.225553
29.253960
17.365813
11.019707
6.231666
4.387498
3.391504
3.109574
2.816916
2.816916
2.670884
2.808571
2.870560
2.871752
2.811551
2.691746
2.627969
2.699494
2.498627
##ZVALUE=330
0.215769
0.142455
0.159740
0.271797
-0.040531
0.054836
0.049472
0.217557
0.164509
0.195503
0.164509
0.257492
0.299811
0.167489
0.122786
0.181794
0.197887
0.137687
0.068545
0.207424
0.252724
0.134706
0.322461
0.441670
0.308752
0.471473
0.499487
0.355840
0.196695
0.393987
0.330806
0.395775
0.337958
0.384450
0.419617
0.423789
0.530481
0.509620
0.386834
0.400543
0.644922
0.631809
0.547767
0.704527
0.775456
0.870824
1.265407
5.321503
16.726851
58.115721
113.059878
229.822397
340.356827
496.348739
593.882799
662.910938
647.217035
557.052493
450.285673
296.579599
195.699930
92.805624
48.057437
17.948747
8.552670
5.518794
5.572438
6.304979
8.582473
14.849901
22.352934
35.746694
48.605800
67.563653
77.561736
86.018443
86.980462
79.909563
70.093870
53.391457
40.241480
25.924444
17.859936
11.325479
7.505417
4.948974
3.758669
3.009439
2.918839
2.936721
2.801418
2.682805
2.545714
2.517700
2.554655
2.754927
##ZVALUE=335
0.132918
0.061989
0.155568
0.110865
0.013709
0.114441
0.150800
0.132918
0.099540
0.236630
0.080466
0.229478
0.076890
0.230670
0.253916
0.237823
0.226498
0.240803
0.243783
0.308752
0.297427
0.109673
0.082850
0.109673
0.047684
0.200868
0.223517
0.047684
0.163913
0.335574
0.190735
0.392795
0.469685
0.196695
0.323653
0.332594
0.274777
0.473857
0.435710
0.446439
0.405908
0.344515
0.417829
0.524521
0.477433
0.662804
0.567436
0.737906
0.696778
2.252460
8.854866
35.121441
74.968934
169.823766
274.080634
430.111885
545.112491
636.081696
651.028752
588.230491
497.272015
342.880487
233.194828
124.371648
66.338778
24.468899
11.355877
5.847812
5.089641
5.056858
5.901456
8.864999
12.876987
22.555590
32.751560
47.651529
60.565472
74.243546
79.868436
80.229640
74.808598
62.472820
51.846504
38.550496
28.458834
17.342567
12.115836
7.048845
5.201697
3.637671
3.205538
2.758503
2.865791
2.388954
2.418756
2.559423
##ZVALUE=340
0.103712
0.048876
0.149608
0.064969
0.172853
0.150800
0.192523
0.111461
0.051856
0.243783
0.134706
0.143647
0.032783
0.103712
0.020862
0.306964
0.270605
0.115633
0.071526
0.099540
0.083447
0.093579
0.122786
0.216961
0.161529
0.200868
0.236630
0.182986
0.145435
0.380874
0.253916
0.350475
0.345707
0.267625
0.255704
0.205636
0.241995
0.441670
0.406504
0.298619
0.383854
0.413656
0.388622
0.356436
0.327826
0.602603
0.514984
0.739694
0.459552
0.692606
0.771880
1.114607
4.927516
17.591715
60.136914
118.849874
241.922736
348.461866
485.532880
568.717718
626.648664
608.613491
510.135889
406.423807
257.371664
161.876678
76.222420
36.703944
11.801720
6.060600
5.059838
4.788637
4.794598
5.790591
8.397698
12.007952
20.484924
30.069947
44.616461
56.944489
69.054961
74.349642
74.186921
71.645975
61.648488
52.016973
37.710667
27.997494
17.392635
12.050867
7.265806
4.905462
3.464818
2.930760
2.473593
2.630949
##ZVALUE=345
0.120997
0.186563
-0.004768
0.322461
0.100732
0.150800
0.184774
0.173450
0.171661
0.090599
0.186563
0.238419
0.092983
0.118613
0.256896
0.074506
0.144839
0.175834
0.288486
0.250936
0.171661
0.265837
0.325441
0.103712
0.132918
0.298619
0.315905
0.301600
0.322461
0.289679
0.459552
0.005960
0.149608
0.216961
0.312924
0.266433
0.204444
0.294447
0.286698
0.371933
0.270605
0.370741
0.300407
0.381470
0.292659
0.401735
0.452995
0.360608
0.488758
0.480413
0.531673
0.753999
0.771880
0.977516
1.942515
11.393428
32.179952
86.262822
156.104565
288.380980
396.323800
529.040694
591.663718
606.145859
558.410883
431.872606
322.608948
189.816952
108.583570
42.765737
19.726753
7.785559
5.207658
4.324913
4.459620
4.355907
4.954934
6.988645
10.733604
18.772483
27.859807
41.892529
51.215887
61.499476
67.336559
69.351792
66.297650
57.834983
49.710870
36.787987
27.271509
17.305613
12.144446
6.958842
4.890561
3.420711
##ZVALUE=350
0.062585
0.128746
0.137687
0.162721
0.132918
0.138879
0.057817
0.102520
0.127554
0.021458
0.055432
0.175834
0.030994
0.013709
0.106692
0.135899
0.110865
0.127554
0.139475
0.203848
0.104904
0.202656
0.038743
0.129938
0.106692
0.099540
0.192523
0.150800
0.204444
0.250936
0.234842
0.161529
0.251532
0.173450
0.116825
0.156760
0.275970
0.344515
0.204444
0.370741
0.151992
0.258684
0.058413
0.237823
0.363588
0.284910
0.461936
0.448823
0.467896
0.396967
0.405908
0.452995
0.526905
0.613928
0.634789
0.761747
1.243949
4.306436
20.823479
48.764944
120.457411
201.768875
337.381959
440.914631
549.090505
586.546659
557.723641
483.007431
339.563489
229.295492
116.700530
64.298511
25.470853
10.897517
5.114675
4.515648
4.116893
3.924966
3.873706
4.526973
6.581545
9.999871
16.692877
23.815632
34.903884
44.256449
55.068731
60.826540
63.822865
61.488748
54.558516
46.609640
35.373569
26.598573
16.749501
11.785626
##ZVALUE=355
0.285506
0.222921
0.285506
-0.052452
0.238419
0.055432
-0.013709
0.015497
0.086427
0.152588
0.303984
0.016689
0.123978
0.270605
0.179410
0.212789
0.230670
0.236630
0.144839
0.198483
0.165701
0.041723
0.266433
0.117421
0.153780
0.101924
0.123978
0.065565
0.198483
0.230670
0.165701
0.245571
0.421405
0.407696
0.341535
0.158548
0.250936
0.121593
0.229478
0.144839
0.297427
0.382662
0.166893
0.351667
0.326633
0.285506
0.319481
0.392795
0.285506
0.221729
0.514984
0.462532
0.442863
0.400543
0.653863
0.564456
0.703931
0.713468
0.937581
1.958609
11.112690
30.673742
85.596442
153.765678
279.441476
380.840898
496.116877
551.107526
548.767447
488.668680
375.332832
270.865560
143.900514
80.658793
33.794641
14.907718
5.696416
4.513860
3.858805
3.595948
3.620982
3.789663
4.198551
5.718470
9.047985
13.180971
21.610856
29.074550
40.513873
47.634840
54.913759
57.072639
55.644512
50.987601
42.176843
34.648776
##ZVALUE=360
0.015497
0.119805
0.086427
0.081658
0.216961
-0.021458
0.027418
0.065565
0.074506
0.083447
0.152588
0.181794
0.087619
0.152588
0.142455
0.195503
0.060797
0.085831
0.055432
0.159740
0.238419
0.192523
0.161529
0.215769
0.193715
0.288486
0.222921
0.221729
0.136495
0.203848
0.164509
0.049472
0.250936
0.192523
0.149608
0.298619
0.155568
0.201464
0.210404
0.202656
0.327826
0.276566
0.251532
0.278950
0.328422
0.391603
0.376701
0.302792
0.278950
0.282526
0.224710
0.385642
0.412464
0.293851
0.480413
0.429749
0.563860
0.410676
0.633597
0.756979
0.763535
0.995994
4.783869
16.041994
55.213571
107.271671
210.033655
311.222672
444.939733
514.190793
540.237427
505.221486
406.730771
309.861898
183.787942
109.669566
47.327876
21.095872
7.378459
4.357696
4.135966
3.721714
3.447533
3.258586
3.347993
3.533959
4.772544
6.399751
11.244416
16.109943
24.853945
32.334924
41.934848
48.062801
52.048564
52.000880
##ZVALUE=365
0.172853
0.026822
0.032783
0.072718
0.311732
0.121593
0.081658
0.318885
0.156760
0.115633
0.065565
0.017881
0.159740
0.034571
0.140667
0.257492
0.101924
0.147820
0.200868
0.131726
0.245571
0.309944
0.222921
0.241995
0.108480
0.079870
0.216961
0.183582
0.143647
0.173450
0.157952
0.247955
0.319481
0.182986
0.185966
0.244975
0.189543
0.108480
0.247955
0.300407
0.344515
0.228882
0.425577
0.354648
0.270605
0.499487
0.326633
0.425577
0.162721
0.244975
0.195503
0.334978
0.383854
0.359416
0.402927
0.367761
0.576973
0.580549
0.547767
0.563860
0.574589
0.642538
0.762939
0.858903
1.810789
10.468960
29.161572
78.110695
145.329833
267.056823
361.351967
465.137959
515.576005
510.402918
451.884866
342.409611
253.002644
139.120817
76.655746
28.861761
11.812449
4.726648
3.770590
3.454685
3.476739
3.082752
2.845526
3.003478
3.008842
3.820658
5.419850
9.107590
13.593435
21.580458
27.578473
36.469698
##ZVALUE=370
-0.006557
0.209808
0.111461
0.104904
0.110865
0.079870
0.035763
0.090599
0.095963
0.043511
-0.035763
0.078678
0.107884
0.092983
0.104904
0.139475
0.158548
0.148416
0.109673
0.266433
0.124574
0.250936
0.206828
0.075698
0.142455
0.098944
0.204444
-0.085831
0.178814
0.149608
0.258684
0.166893
0.293851
0.146627
0.110865
0.303984
0.180602
0.137687
0.153780
0.264645
0.281930
0.328422
0.260472
0.218749
0.184774
0.129938
0.236630
0.245571
0.149608
0.162721
0.223517
0.217557
0.238419
0.281930
0.324845
0.346899
0.263453
0.388622
0.464916
0.384450
0.445843
0.464916
0.621676
0.494719
0.457764
0.738502
1.011491
5.352497
18.236637
58.253407
111.591816
214.325786
310.351849
430.275798
490.205884
505.856872
466.446877
367.551446
273.537636
155.363679
89.429617
36.523938
16.490817
6.110668
4.004836
3.409982
3.092885
2.835989
2.872944
2.706647
2.700686
2.578497
3.291965
4.989505
6.964803
11.627674
##ZVALUE=375
0.118613
0.102520
-0.006557
0.081658
0.040531
0.136495
0.041723
0.143647
0.338554
0.116825
0.100732
0.157952
0.218749
0.168681
0.067949
0.179410
0.174642
0.127554
0.105500
0.182986
0.300407
0.193715
0.182986
0.181794
0.119805
0.172853
0.194907
0.143647
0.126958
0.152588
0.170469
0.144839
-0.021458
0.129938
0.170469
0.173450
0.244975
0.229478
0.126958
0.150800
0.070930
0.210404
0.295639
0.299811
0.221729
0.262856
0.354648
0.108480
0.141859
0.189543
0.273585
0.305772
0.313520
0.231862
0.155568
0.195503
0.268817
0.361800
0.300407
0.416636
0.407696
0.353456
0.340939
0.287890
0.395775
0.451803
0.421405
0.765920
0.862479
2.566576
9.623766
36.328435
78.437924
174.559951
267.594457
396.094918
475.859642
527.584553
517.756939
432.145000
337.450504
207.299590
127.419829
59.111714
29.691458
10.252595
5.013943
3.470778
3.044605
2.912879
2.947450
2.692938
2.593994
2.520680
2.613664
2.967715
##ZVALUE=380
0.071526
0.000000
0.105500
0.056624
0.151992
-0.061989
0.087619
0.104904
0.052452
0.211596
0.070930
0.068545
0.005960
0.087619
0.138879
0.204444
0.195503
0.160933
0.070930
-0.105500
-0.022650
-0.031590
0.207424
0.075698
0.011921
0.196695
0.106692
0.121593
0.060797
0.237823
0.215769
0.196695
0.120997
0.281930
0.207424
0.123978
0.171661
0.253916
0.106692
0.382662
0.049472
-0.044703
0.286698
0.184774
0.156760
0.135899
0.169873
0.186563
0.186563
0.229478
0.323653
0.310540
0.107884
0.244975
0.362992
0.269413
0.330806
0.268817
0.383854
0.220537
0.271797
0.355840
0.358820
0.384450
0.459552
0.416636
0.373721
0.560880
0.696778
0.843406
0.921488
1.314878
5.181432
24.884939
59.336424
139.660835
226.303935
356.063843
449.447632
528.050661
531.315804
460.957885
371.717811
248.853564
165.585876
81.232786
42.824745
16.994476
7.417798
3.727674
3.166795
2.863407
2.872944
2.473593
2.673864
2.611876
##ZVALUE=385
0.081658
0.098944
-0.009537
0.127554
0.054836
-0.014901
0.210404
0.156760
0.001788
0.055432
0.078678
0.088811
0.076890
0.087619
0.101924
0.044703
-0.055432
0.120997
0.024438
0.045896
0.088811
0.120997
0.045896
0.141859
0.028610
0.070930
0.159740
0.202656
0.132918
0.227690
0.168681
0.141859
0.060797
0.109673
0.168681
0.164509
0.240803
0.272989
0.110865
0.173450
0.132918
0.081658
0.287890
0.222921
0.232458
0.139475
0.150800
0.249743
0.169873
0.195503
0.295639
0.347495
0.215769
0.172853
0.258684
0.116825
0.318885
0.337958
0.313520
0.157952
0.142455
0.224710
0.250936
0.277758
0.379682
0.297427
0.325441
0.395775
0.396967
0.467896
0.421405
0.684857
0.775456
0.983477
2.329946
13.535619
36.206841
95.630884
170.316696
302.065611
400.581956
496.706963
521.190763
491.411686
429.353714
313.661695
221.516490
120.623708
68.458915
28.276443
11.915565
4.175901
3.160834
2.986789
2.851486
2.668500
##ZVALUE=390
0.343919
0.202656
0.323653
0.250936
0.175834
0.178814
0.061989
0.137687
0.222921
0.113845
0.267625
0.379682
0.146627
0.207424
0.169873
0.247955
0.361800
0.264645
0.077486
0.233650
0.203848
0.079870
0.201464
0.217557
0.244975
0.303984
0.266433
0.217557
0.298619
0.229478
0.358820
0.117421
0.235438
0.293851
0.295639
0.353456
0.343919
0.461936
0.390410
0.269413
0.357628
0.265837
0.213981
0.476837
0.218749
0.273585
0.359416
0.366569
0.468493
0.468493
0.403523
0.449419
0.456572
0.301600
0.406504
0.355840
0.379682
0.331998
0.492930
0.259876
0.361800
0.409484
0.335574
0.411868
0.430942
0.366569
0.435710
0.595450
0.659823
0.679493
0.656843
0.715852
0.777841
0.929832
0.711679
0.955462
1.434684
7.192492
23.486614
73.948503
139.788985
261.683464
354.187489
455.809832
508.188605
520.038009
479.508638
377.866626
284.128785
172.679424
100.346804
41.731000
19.598603
6.307960
3.425479
2.863407
##ZVALUE=395
0.112653
0.107884
0.153780
0.078678
0.155568
-0.033975
0.070930
0.080466
0.046492
0.136495
0.042915
0.028610
0.049472
-0.048876
0.128746
0.184774
0.065565
0.123978
0.079870
0.174642
0.072718
0.019670
0.136495
0.255704
0.236630
0.058413
-0.077486
0.136495
0.138879
0.041723
0.116825
0.073910
-0.011921
0.071526
0.301600
0.200868
0.258684
0.192523
0.007749
0.257492
0.173450
0.318885
0.286698
0.378489
0.274777
0.142455
0.229478
0.094771
0.091791
0.148416
0.131726
0.123978
0.241995
0.188947
0.191927
0.354648
0.284910
0.266433
0.144839
0.251532
0.312924
0.247955
0.226498
0.460744
0.408888
0.350475
0.362992
0.504851
0.265837
0.379682
0.378489
0.347495
0.649691
0.484586
0.418425
0.512600
0.413656
0.613928
0.736713
4.007816
14.531612
52.393675
100.081563
190.783739
282.100439
411.100984
484.000444
530.568957
516.711473
435.371995
341.091752
211.575627
132.031441
57.245493
27.834773
9.802580
##ZVALUE=400
0.255704
0.195503
0.078678
0.067949
0.152588
-0.095963
0.079870
0.071526
0.097752
0.089407
0.157952
0.214577
0.189543
-0.014901
-0.019670
0.184774
0.034571
0.077486
0.014901
0.190735
0.217557
0.181794
0.114441
0.160933
0.051856
0.095963
-0.005960
0.062585
0.214577
0.289679
0.153780
0.147820
0.113845
0.274777
0.182986
0.145435
0.121593
0.170469
0.277758
0.368953
0.287890
0.245571
0.290871
0.309944
0.388622
0.163913
0.217557
0.162721
0.219941
0.122786
0.150800
0.332594
0.163913
0.247955
0.262856
0.183582
0.170469
0.189543
0.321865
0.244975
0.436902
0.255704
0.291467
0.335574
0.382662
0.335574
0.248551
0.463724
0.500679
0.396967
0.434518
0.372529
0.465512
0.380874
0.415444
0.493526
0.507832
0.476837
0.479817
0.515580
0.804663
1.993775
7.218719
28.195977
62.943697
142.724514
230.110884
354.880691
439.973474
510.098934
514.783859
457.787514
381.487012
263.156891
174.185634
88.010430
##END
