##TITLE=FQP00651
##FORMAT=SPECTACLE-ASCII V-1.2
##DATA TYPE=ULTRAVIOLET SPECTRUM
##SECOND TYPE=ULTRAVIOLET SPECTRUM
##DATE=01/09/18
##TIME=17:00:46
##SPECTROMETER/DATA SYSTEM=SPECTACLE
##XUNITS=NM EM
##YUNITS=ENERGY
##YFACTOR=1
##FIRSTX=220
##LASTX=410
##NPOINTS=96
##3DDATA=Equidistant
##ZUNITS=NM EX
##FIRSTZ=210
##LASTZ=400
##ZPOINTS=39
##XYDATA=(Y..Y)
##ZVALUE=210
2.381802
2.183914
2.498627
2.555847
2.020597
2.203584
2.319813
2.526641
2.329946
2.243519
2.332926
2.381802
2.250671
2.791882
3.087521
2.974868
3.518462
2.995729
3.051758
2.754927
2.934933
3.282428
3.653765
3.150702
3.784895
4.124641
4.258752
4.073977
4.495978
3.995895
4.907846
4.882812
5.208850
4.430413
4.571676
4.709959
5.843639
5.072951
5.302429
5.452633
4.478693
5.741715
5.862713
5.168915
5.749464
6.165504
5.302429
6.503463
6.016493
6.270409
6.025434
5.879998
6.653666
6.182790
5.171895
6.044507
6.729960
6.219745
6.166697
6.744862
6.624460
6.725788
6.100535
6.297827
6.596446
6.727576
6.705523
7.549524
8.036494
8.614659
11.375546
12.532473
13.383627
16.240478
17.818809
18.369555
19.616485
20.604730
20.726919
19.914508
19.296408
17.680526
14.820695
12.879968
11.325479
9.219646
7.932782
6.496906
6.089807
5.030632
5.578995
5.885959
5.663633
5.105734
5.181432
6.181598
##ZVALUE=215
6.260872
6.381869
4.953742
5.812645
4.761815
4.871488
4.948974
4.571676
6.371737
5.702972
4.540682
5.170703
3.719926
3.676414
3.131628
2.740622
2.749562
3.137589
2.445579
2.989769
4.148483
3.354549
3.216863
3.170967
4.125834
4.035830
3.716946
3.684759
4.459620
4.665852
4.315972
4.312992
4.834533
4.550815
4.379749
5.032420
5.101562
4.784465
4.652739
5.450845
5.052686
4.910827
5.200505
4.789829
5.368590
4.732609
4.808903
5.444884
5.627871
5.130768
4.919767
5.056858
5.194545
5.477667
5.841851
4.794598
6.963611
5.546808
5.164742
5.050898
5.285740
4.753470
4.931688
5.216599
5.196929
5.793571
6.157756
6.673932
5.929470
7.072687
8.082986
8.809566
10.900497
12.108684
12.262464
12.619495
12.831688
11.746883
11.077523
10.780692
9.058714
8.830428
7.964969
6.747842
5.637407
5.545616
6.226897
5.046725
4.849434
3.867745
4.545450
4.965663
3.721714
3.819466
4.545450
3.982782
##ZVALUE=220
23.011565
24.540424
27.276874
26.853681
25.129914
21.968484
17.111897
12.895465
10.076761
10.926723
11.463761
11.424422
11.201501
10.967851
9.930730
7.483959
5.899668
4.983544
3.583431
2.968907
2.931952
3.373623
2.767444
3.197789
3.413558
4.059672
4.226565
3.829598
4.870892
4.614592
5.309582
5.132556
5.672574
5.671978
5.776882
5.509853
5.391836
5.196929
6.534457
5.455613
4.780889
5.495548
5.058646
4.633665
5.008578
5.226731
5.410910
5.380511
5.813837
5.223751
5.310774
4.985929
6.151795
4.775524
5.445480
5.794764
5.043745
4.893541
5.465746
5.465746
5.972981
6.010532
5.956888
5.142689
5.454421
5.937815
6.045699
6.791949
8.154511
9.164810
8.340478
10.629892
11.087656
14.035702
13.433695
15.757680
15.261769
13.551712
14.722943
13.886690
12.797713
12.709498
10.383725
9.386539
8.480549
7.267594
6.178617
6.035566
6.413460
4.359484
4.546642
5.051494
5.753636
5.743504
5.679727
5.178452
##ZVALUE=225
37.608743
40.529966
52.339435
70.420504
75.185895
77.856779
71.743727
56.487918
42.886734
37.028790
24.420619
23.945570
23.419857
25.355816
25.610924
23.513436
19.353628
18.548965
14.162660
8.890629
6.117821
4.713535
3.988743
4.130602
4.488826
3.951788
4.842877
6.022453
5.814433
5.770922
5.721450
7.145405
6.867647
6.960630
7.742643
6.072521
7.664561
7.570982
6.636977
7.314682
6.683469
6.684661
6.105900
7.250905
6.606579
5.953908
5.970597
6.401539
5.934834
6.505847
5.710721
6.409883
5.854964
5.692840
6.987453
6.913543
5.920529
6.427765
6.603599
5.976558
7.531643
7.202625
6.744862
7.416606
7.221699
7.270575
7.564425
7.334948
8.190870
9.132624
10.878444
10.605454
12.605786
13.606548
15.435815
14.546514
13.721585
16.468763
14.725924
14.956594
14.028549
12.297630
10.873675
10.789633
9.763837
9.506941
7.583499
7.379651
7.400513
7.067919
6.560683
6.614923
7.473826
7.348657
7.357597
6.782413
##ZVALUE=230
33.593774
38.301945
61.854720
99.196434
135.395527
165.263414
181.231499
176.149607
160.339475
132.980943
91.075897
64.553618
50.469637
45.113564
45.698881
52.473545
50.078630
51.737428
47.641993
35.486817
28.002858
19.237995
11.560917
8.237958
6.496906
5.308986
5.838871
5.993843
6.245971
7.052422
7.384419
7.014871
6.141663
8.019805
6.640553
6.810427
6.905794
8.012652
7.663965
7.275939
7.796884
7.841587
7.543564
6.702542
7.139444
7.027984
6.693602
6.497502
7.720590
6.804466
6.631613
5.833507
5.946755
7.536411
6.467700
6.841421
5.886555
8.097887
7.652640
6.833673
7.355809
6.918907
8.048415
6.544590
7.146597
7.906556
8.237958
7.798672
9.890795
9.717941
11.182427
12.240410
13.177991
14.123917
14.325976
14.100671
15.661716
15.669465
14.926791
14.167428
12.588501
12.961626
11.770725
11.304617
10.069609
10.565519
10.746717
9.331703
9.680986
9.128451
10.083914
10.490417
9.400845
10.363460
8.195639
8.904934
##ZVALUE=235
11.894703
15.023947
29.700994
71.921945
123.530626
201.293826
268.491507
346.008539
382.262468
382.997990
336.310863
268.511772
182.553530
127.857924
91.055632
71.530938
71.965456
77.660680
84.703565
83.331466
80.640912
65.634847
48.762560
38.413405
25.855899
16.406775
11.007786
7.429719
7.093549
6.732941
7.603765
7.278919
8.030534
7.884502
7.255673
7.331967
8.548498
7.721782
8.215904
8.091927
8.002520
7.398725
8.250475
7.387996
7.525682
8.070469
7.372499
6.780624
6.910563
7.024407
6.960630
7.118583
7.381439
8.048415
7.665753
8.342862
7.636547
7.422566
8.507967
7.705688
8.519888
8.165836
10.322928
8.798838
8.960962
10.232925
10.353923
11.186600
12.114644
13.053417
12.975931
15.084743
14.658570
16.110539
18.979907
19.451976
18.507838
17.609000
18.684864
17.246604
17.319918
15.394688
15.584826
14.575720
14.317632
15.326738
14.741421
13.101697
14.398694
11.650920
12.561679
12.753606
12.976527
11.720657
13.075471
13.195872
##ZVALUE=240
2.001524
2.523661
7.022619
17.986894
51.534772
87.724924
170.657635
249.213576
373.683572
450.018644
508.276820
511.438847
471.627712
382.413864
292.987823
198.728442
149.490833
108.186603
96.527934
103.936791
113.433003
122.345686
116.999745
101.699829
86.394548
65.269470
46.486855
30.800700
18.209815
13.811588
8.975863
7.762909
7.500648
8.111000
9.249449
7.154942
7.476807
8.000731
7.639527
7.687807
7.655621
7.717609
8.439422
8.725524
8.005500
9.279847
7.402897
7.527471
8.124709
8.743405
7.214546
8.753538
8.413792
8.016825
9.172559
8.821487
8.931756
9.845495
10.048747
9.836555
11.332631
10.231733
10.168552
10.988712
11.677742
11.221766
13.389587
12.735724
14.540553
17.181635
17.214417
19.453764
20.557642
22.814870
23.741722
24.102926
26.457906
22.730827
23.177862
23.609996
21.081567
21.990538
22.779703
21.307468
19.498467
19.033551
18.945932
19.611716
17.951727
18.629432
19.579530
19.470453
17.737746
17.943978
16.426444
16.574860
##ZVALUE=245
1.896620
1.276731
1.796484
1.849532
2.900958
14.857650
40.067434
117.990971
218.255520
413.987637
585.827827
807.262659
922.258496
962.008834
914.575458
731.378794
591.138601
378.613472
246.373415
133.555532
105.172992
99.397898
117.988586
129.849911
137.294531
129.219890
113.836527
97.066760
72.523952
52.838922
34.985542
22.147894
14.888644
9.202957
7.844567
7.720590
8.335710
6.703734
7.621646
7.819533
8.170605
7.978678
8.888841
8.559823
9.613633
7.828474
8.968711
8.966923
7.988811
8.705854
8.491874
8.697510
8.667707
9.251833
9.284616
8.925796
9.590983
9.435415
9.656549
9.415746
9.536743
10.820627
10.848641
10.399818
11.228919
12.588501
13.179779
14.282465
15.398860
16.866922
18.562675
20.611882
20.862818
21.854639
24.662614
26.030540
26.548505
26.488900
28.039813
25.290847
23.890734
25.942922
23.393631
22.975802
20.251870
20.949841
17.641783
17.941594
17.759800
18.200874
17.715693
17.805696
17.732978
17.829537
16.023517
18.124580
##ZVALUE=250
1.230836
1.485944
1.402497
1.661777
1.486540
1.877546
5.121827
26.764870
108.076930
204.192996
385.806561
546.791553
686.232448
825.714469
868.487954
847.203732
776.956677
628.116727
493.660569
323.803425
221.033692
146.176815
96.683502
89.442730
103.874803
122.081637
138.901472
141.108632
134.610534
122.965574
108.315945
79.491735
59.714913
35.647750
25.001764
13.654828
10.359883
7.386804
7.180572
7.325411
7.715821
7.252693
7.837415
7.435679
7.454753
6.938577
7.174611
7.387996
6.982684
7.442832
7.517934
7.106662
7.128716
7.210970
7.285476
7.232428
6.851554
7.668734
7.345676
7.691979
7.764697
7.884502
9.140968
9.259582
9.282827
9.641647
10.097623
10.896921
11.030436
12.996793
14.833808
15.032887
15.996695
18.493533
19.017458
19.804835
20.030737
20.416975
21.691918
19.061565
20.113587
19.246936
18.890500
17.243624
16.621947
16.877651
17.714500
15.930533
16.114712
16.716719
16.472936
16.424656
17.324686
16.258955
16.230941
16.014576
##ZVALUE=255
1.261830
0.932813
1.039505
0.940561
1.134872
1.537800
1.327991
1.347661
2.105832
5.231500
32.444596
86.847544
209.511518
325.464606
506.520867
644.564629
775.676966
803.447962
772.335529
692.442656
534.275770
403.123498
244.246721
164.308548
112.381577
80.784559
83.144903
105.776787
125.106573
142.746568
152.860880
145.322680
131.974816
106.138587
83.483458
54.508448
36.940575
21.022558
13.684630
8.631945
6.498694
6.151795
6.411672
5.761981
6.710887
6.384850
6.002784
5.918741
6.183982
5.663633
5.210638
5.909801
5.918741
5.578995
5.900860
5.513430
5.306602
5.233884
5.780458
6.079674
6.105900
5.976558
6.103516
6.247759
6.697774
7.890463
7.485747
8.556843
9.111762
9.145737
10.571480
10.852814
11.897683
13.403893
13.516545
14.665723
14.892817
16.344786
15.434623
14.802814
14.967918
14.501810
14.313459
13.617873
13.686419
13.321638
14.196634
14.274716
13.933778
14.783740
14.044642
15.509725
14.498830
14.694929
14.211535
15.312433
##ZVALUE=260
0.960827
0.899434
0.825524
1.047850
1.187921
1.050830
1.300573
1.021624
1.272559
1.406670
1.473427
1.839995
5.668998
23.206472
56.162477
135.946870
234.713554
388.857722
521.381497
685.344934
743.888617
739.125013
637.033582
516.195893
341.987610
229.247808
137.488842
95.256567
73.696971
83.884001
102.137923
127.363801
145.253539
156.488419
153.403878
134.886503
113.498569
83.505511
60.953498
38.448572
25.003552
13.452768
9.696484
7.380843
6.333590
5.950928
5.982518
5.384684
5.489588
5.372763
5.834699
5.613565
5.842447
5.797744
5.511642
5.640984
5.562901
5.614758
5.716681
5.616546
5.494952
5.979538
5.851984
5.923510
6.418824
6.173849
6.849766
6.827712
8.365512
8.774996
9.021759
9.219646
9.728670
10.528564
11.289716
11.311769
12.227893
12.100935
12.531877
12.753606
11.934638
11.875629
12.597442
13.456941
12.699962
12.418628
13.138652
13.048649
12.794733
13.039708
13.157725
13.348460
13.465881
13.513565
14.467835
14.990568
##ZVALUE=265
0.685453
0.839829
0.769496
0.754595
0.919700
0.932813
0.969768
0.869632
1.046658
0.999570
0.975728
1.323819
1.202822
1.336932
2.973676
14.893413
37.879944
101.742744
183.783770
374.735594
567.533970
769.373775
978.298783
1015.681028
981.952548
829.046965
595.991611
415.579677
217.790604
125.269890
77.284575
66.294670
81.838965
113.036633
135.183930
155.817866
160.527825
155.178905
139.047503
109.346509
87.574720
57.323575
39.061904
21.925569
13.997555
8.219481
6.354451
6.151795
5.697608
5.816817
5.849600
5.255938
5.638599
5.865693
5.350709
5.088449
4.942417
5.759597
5.476475
5.591512
5.246997
5.562901
5.866885
5.763769
5.947948
6.615520
6.390810
7.209778
7.319450
8.273721
8.593798
9.272695
9.300709
10.462999
10.666847
11.588931
11.051893
12.091994
12.220740
12.106895
12.155771
12.321472
12.181997
12.366772
12.506843
11.864901
12.116432
12.388825
12.036562
13.233423
12.690425
12.059808
13.046861
12.552738
13.187528
13.362765
##ZVALUE=270
0.677705
0.807643
0.675917
0.740886
0.852942
0.726581
0.609756
0.806451
0.782609
0.959635
0.879765
0.955462
1.012683
1.140833
1.355410
1.433492
1.807809
6.505847
21.595955
100.974441
229.524970
404.706597
697.730780
902.660489
1015.622020
1015.622020
973.847508
821.415782
594.458580
427.693725
282.491446
144.221783
87.577701
56.885481
60.804486
86.328983
110.002756
138.445497
153.380632
159.776807
156.010985
137.409568
115.591884
84.314942
61.154962
36.678910
23.992658
14.473796
9.329915
6.223917
5.716681
5.376935
5.524755
5.561709
5.943775
4.953742
5.322695
5.312562
5.593896
5.533695
5.704761
5.477667
5.753636
6.019473
5.744696
6.317496
6.277561
7.061958
6.773472
7.685423
8.067489
8.828640
8.819699
10.343790
10.117888
10.202527
10.536909
10.415912
11.136532
11.091828
10.667443
10.892749
10.823607
10.706782
10.566711
11.334419
10.629892
11.166930
11.441708
11.563897
11.796951
11.536479
11.185408
11.347532
11.697412
11.838675
##ZVALUE=275
0.679493
0.502467
0.725985
0.787973
0.666976
0.747442
0.732541
0.899434
0.827909
0.785589
0.941753
0.955462
0.806451
0.992417
0.944734
1.035929
1.219511
1.349449
1.434684
5.463958
25.881529
77.150464
207.862854
362.339020
606.433749
754.158497
885.378718
934.819579
887.708664
791.953802
692.165494
475.246906
328.815579
175.886750
103.383660
54.759979
45.744777
58.624744
80.146790
110.377669
130.216479
151.913762
157.326460
150.078535
134.867430
110.475421
85.898638
58.530569
40.929914
22.882819
14.856458
8.425713
6.651878
5.182624
5.192757
4.852414
4.963875
5.032420
4.889965
5.284548
4.935861
5.519986
5.548596
5.409718
5.614758
5.744696
6.211996
6.342530
6.374717
6.514788
7.337928
7.181764
7.668734
8.182526
9.105802
9.319782
9.172559
9.039640
9.569526
9.271502
9.813905
10.449886
10.359883
9.915829
10.130405
10.471940
10.224581
10.461807
10.674596
10.598898
10.363460
10.212660
10.479689
10.716915
11.100769
10.894537
##ZVALUE=280
0.585914
0.602603
0.516772
0.607967
0.507832
0.544786
0.554919
0.486970
0.555515
0.587702
0.559688
0.761747
0.574589
0.816584
0.551939
0.633597
0.976920
0.808835
0.951886
1.057982
1.012683
1.423955
9.126663
32.028556
96.556544
166.707635
296.842456
421.493649
584.663749
682.655573
743.531585
740.301013
663.268566
509.163737
378.706455
214.546919
128.532648
62.891841
40.692687
39.583445
53.709745
80.870986
102.669597
130.431652
147.117972
153.320432
148.657560
129.392743
110.246539
79.123974
59.359670
35.923719
24.452806
13.319850
8.886456
6.138682
4.926920
5.003810
4.875660
5.112886
5.215406
5.074739
5.620718
5.803704
5.613565
5.941987
5.840659
6.151795
6.598830
7.225871
6.717443
7.534623
7.601976
7.871985
8.405447
8.879900
8.383989
8.913875
9.091496
9.320974
9.627938
9.353757
9.498000
9.395480
9.073615
9.999871
9.842515
9.665489
9.935498
9.538531
9.696484
10.005832
9.621978
9.743571
10.009408
11.038780
##ZVALUE=285
0.467896
0.581741
0.436902
0.537634
0.543594
0.553727
0.582933
0.519753
0.505447
0.426769
0.475645
0.599623
0.528693
0.581741
0.601411
0.687838
0.713468
0.634789
0.877976
0.765920
0.812411
1.144409
1.123548
1.216531
4.017949
14.699697
48.013926
98.920465
208.415985
318.805575
479.308963
601.119995
703.915954
749.476552
707.531571
576.306581
456.098914
284.745693
177.702904
85.399747
46.710968
29.145479
33.306479
52.992702
73.264837
103.861690
124.800801
143.033862
147.480965
144.358873
133.782625
107.784867
87.167621
59.429407
40.456653
23.071766
14.549494
8.471608
6.596446
5.370975
5.236864
5.309582
5.265474
5.295873
5.524755
6.075501
6.373525
6.636977
6.603599
7.249713
7.272959
7.391572
7.966757
7.938743
8.304715
8.840561
8.656979
8.698702
8.560419
9.268522
9.164810
9.060502
9.379983
9.532571
9.876490
10.069609
9.759665
9.665489
9.851456
9.876490
9.677410
9.906888
9.531975
9.312630
9.510517
9.828806
##ZVALUE=290
0.404716
0.464916
0.409484
0.471473
0.540614
0.363588
0.492930
0.457764
0.510812
0.394583
0.558496
0.574589
0.497699
0.465512
0.629425
0.629425
0.596642
0.527501
0.563860
0.664592
0.681877
0.821948
0.919700
0.885725
1.107454
1.030564
1.439452
5.188584
24.649501
57.066679
115.623474
240.874887
363.695621
546.035767
662.315488
742.899776
732.968450
634.412766
519.455671
349.972844
229.350924
114.574432
63.712597
28.647780
22.844672
33.608675
46.486855
70.823431
91.714859
120.880604
134.631991
143.872499
142.601728
125.490427
109.042525
79.421997
59.448481
37.627816
25.241971
14.215708
9.751916
6.719828
5.936623
5.830526
5.783439
5.841851
6.307960
6.704926
6.985664
7.700920
7.500648
7.561445
8.122921
8.203983
8.791685
8.641481
8.772612
8.924603
9.078979
9.151697
9.616613
9.651780
9.439588
9.562969
9.849668
9.696484
9.638667
9.394884
9.759665
9.836555
10.020733
9.672642
9.260774
9.887815
9.239912
9.887815
##ZVALUE=295
0.372529
0.499487
0.432730
0.460744
0.300407
0.420809
0.246763
0.349879
0.364780
0.478625
0.392795
0.508428
0.499487
0.536442
0.557899
0.666976
0.664592
0.681877
0.537634
0.606775
0.725985
0.480413
0.603795
0.957847
0.798702
0.940561
0.965595
0.999570
1.166463
2.001524
7.590652
40.536523
98.297596
229.878426
356.531739
548.887849
662.999749
756.756663
768.402815
694.985986
593.372583
425.462723
295.867920
156.029463
85.958838
34.316778
20.198822
19.436479
27.814507
45.762658
63.322783
90.046525
108.724833
129.705667
137.021542
134.497881
123.770833
102.332830
82.321763
56.591630
40.457845
23.486614
15.627742
9.827614
7.992983
6.768703
6.798506
6.784797
6.867647
7.630587
7.814765
8.072853
8.640885
8.994937
9.062886
9.171963
8.964539
9.436607
9.371638
9.433627
9.297729
9.566545
10.228753
9.667873
9.676814
10.042787
9.920597
9.370446
9.695888
9.861588
9.958744
9.328723
10.069609
9.797812
9.593964
9.695888
##ZVALUE=300
0.370741
0.402927
0.342727
0.220537
0.396967
0.364780
0.152588
0.485778
0.324845
0.351667
0.416636
0.465512
0.504851
0.472665
0.520945
0.673532
0.492930
0.636578
0.620484
0.573993
0.483990
0.552535
0.636578
0.579953
0.657439
0.881553
0.748634
0.847578
0.962615
1.062751
1.219511
1.505613
5.905628
22.982955
88.794827
174.734592
335.738659
485.234857
656.306744
740.838647
780.846477
747.817755
629.138947
506.904721
336.984992
217.885971
110.412836
59.953928
24.612546
15.061498
17.065406
24.613738
41.381717
57.730675
82.773566
102.074742
121.818781
130.386949
128.049850
119.964480
100.237727
81.908703
56.890845
42.623878
25.198460
17.362833
11.185408
8.440614
7.835627
7.823706
7.900596
8.298755
8.388758
8.432865
8.761883
8.804798
9.102821
9.302497
9.654760
10.114908
9.694695
10.093451
10.504723
10.254979
9.846687
10.005832
10.164976
10.141730
9.828806
9.779930
9.861588
9.603500
9.520650
9.457469
9.463429
9.302497
##ZVALUE=305
0.312924
0.353456
0.316501
0.348687
0.222921
0.326633
0.370741
0.406504
0.398755
0.412464
0.448823
0.431538
0.391603
0.473857
0.429749
0.564456
0.438690
0.425577
0.421405
0.318885
0.438690
0.587702
0.627637
0.624657
0.665784
0.764728
0.848770
0.749826
0.816584
0.829697
1.243949
0.857711
1.031756
1.347661
2.062917
13.556480
39.127469
111.402869
197.438598
353.783965
481.624603
632.969737
709.788799
726.706982
671.085715
529.310703
407.378674
256.046653
161.919594
73.594451
37.518740
15.447736
11.349916
15.502572
22.870898
39.165616
55.355430
79.825521
98.506808
117.945671
123.175979
123.553872
113.912821
96.195936
77.735782
53.863525
39.021969
24.419427
17.134547
11.668801
9.786487
8.550882
9.172559
8.283854
9.025931
9.116530
9.200573
9.307861
9.262562
9.794831
9.999871
10.184646
10.171533
10.508895
10.318756
10.331869
10.382533
10.131598
10.385513
9.838939
9.808540
9.840727
9.918809
9.471774
9.695888
9.348989
##ZVALUE=310
0.240803
0.244975
0.290871
0.328422
0.352859
0.452995
0.364780
0.338554
0.304580
0.336766
0.309944
0.332594
0.412464
0.415444
0.493526
0.330806
0.462532
0.303984
0.398755
0.408888
0.437498
0.449419
0.482798
0.366569
0.481606
0.500679
0.476837
0.672936
0.616908
0.574589
0.666976
0.794530
0.774860
0.848770
0.841618
1.043677
1.385808
4.724860
16.638637
57.538748
114.523768
241.970420
368.359685
541.493893
645.361543
712.610483
702.805519
602.991581
497.536659
331.035852
219.312906
110.521913
59.157610
23.009777
11.814833
10.174513
13.553500
22.099614
32.824874
50.642490
68.512559
91.892481
104.056001
116.234422
116.989613
108.745694
96.050501
75.035691
58.887601
38.565993
27.377605
18.052459
13.474822
10.228753
9.664893
9.282827
9.251833
9.228587
9.430647
9.433627
10.096431
9.735823
10.725856
10.531545
10.606647
10.234714
10.688901
10.389686
10.391474
10.729432
10.038614
10.098815
9.922981
9.972453
10.084510
9.706616
##ZVALUE=315
0.300407
0.406504
0.326633
0.169873
0.259876
0.358820
0.371933
0.306964
0.387430
0.180602
0.232458
0.424981
0.322461
0.419617
0.261664
0.469685
0.363588
0.392795
0.289679
0.391603
0.484586
0.461936
0.374913
0.469685
0.394583
0.413656
0.288486
0.613928
0.527501
0.501871
0.555515
0.594854
0.568628
0.580549
0.583529
0.787973
0.925660
0.853539
1.082420
2.242923
8.313656
36.269426
80.981851
181.940794
295.964479
472.001433
580.591559
676.260591
697.252750
635.114908
542.347431
389.124751
273.129940
147.604942
81.518888
31.888485
14.604926
8.682609
9.039640
13.392568
19.270778
32.339692
46.305656
66.067576
83.273649
102.731586
110.684633
111.241937
106.636882
88.622570
73.999763
54.466724
40.879846
25.974512
18.744469
13.173819
11.246800
10.202527
9.653568
10.314584
9.908676
9.767413
10.326505
10.363460
10.162592
10.442734
10.168552
10.383725
10.827780
10.362864
10.357499
9.906888
10.104775
9.814501
10.179877
9.759665
##ZVALUE=320
0.184774
0.342727
0.363588
0.246763
0.294447
0.147820
0.302792
0.319481
0.320673
0.341535
0.218749
0.393987
0.336766
0.355840
0.389814
0.268817
0.265837
0.385642
0.179410
0.191927
0.200868
0.308752
0.439882
0.155568
0.369549
0.498891
0.490546
0.588894
0.446439
0.579953
0.531673
0.514984
0.560880
0.626445
0.529885
0.561476
0.824928
0.835657
0.727773
0.765920
0.905991
1.204610
4.639626
16.644597
58.661699
118.793845
238.275528
354.853868
520.117879
620.023608
685.485005
674.312711
576.996803
474.226475
318.932533
205.844641
97.369552
51.820874
20.872951
11.100769
8.277893
8.542538
12.229681
17.332435
29.496551
41.629672
60.526729
76.938868
95.399618
103.517771
105.012655
100.353956
86.915493
72.261691
52.318573
39.503574
27.107000
19.352436
13.707876
11.712909
10.610819
10.638833
10.491610
10.121465
10.222793
10.166764
9.918809
10.500550
10.197759
10.211468
10.057688
10.380745
9.750724
10.129809
10.081530
10.206699
##ZVALUE=325
0.178814
0.086427
0.373721
0.277758
0.357628
0.231862
0.344515
0.221729
0.189543
0.289679
0.247955
0.271797
0.297427
0.299811
0.290871
0.214577
0.286698
0.425577
0.285506
0.458956
0.388622
0.402927
0.423789
0.441670
0.431538
0.435710
0.421405
0.557899
0.452995
0.479817
0.541806
0.439882
0.548959
0.677705
0.674725
0.688434
0.587702
0.825524
0.709891
0.735521
0.764728
0.742674
0.960827
1.074672
1.978874
12.528896
33.643842
91.511607
165.411830
304.974914
424.535871
569.102764
646.588802
674.131513
626.330972
497.608781
379.474759
233.410597
141.818523
63.420534
31.212568
12.098551
8.186698
7.612705
8.439422
12.254715
16.917586
27.923584
40.447712
60.096979
74.997544
89.519620
98.432899
100.471973
94.580650
79.642534
66.651702
49.730539
37.954450
24.473667
18.200874
13.188720
12.005568
10.743737
10.461807
10.199547
9.803772
9.974837
10.157824
10.250807
10.055900
9.742975
9.817481
9.875894
10.145903
9.532571
##ZVALUE=330
0.239611
0.467896
0.189543
0.455976
0.439882
0.412464
0.322461
0.253916
0.262856
0.404716
0.268817
0.430942
0.332594
0.477433
0.387430
0.490546
0.449419
0.380874
0.324845
0.516772
0.473857
0.490546
0.483990
0.568628
0.587702
0.485778
0.479817
0.447631
0.596642
0.450611
0.422597
0.419617
0.591874
0.686646
0.618696
0.684857
0.599623
0.614524
0.744462
0.638962
0.643730
0.759959
0.745654
0.948906
0.864863
1.028776
1.298785
5.675554
18.625855
59.876442
115.866661
232.666731
344.594717
507.732630
617.913008
694.663525
677.405000
565.814972
455.741882
292.807817
187.349916
86.119771
43.633580
17.852783
9.337664
7.155538
7.725954
8.910894
10.864735
18.248558
26.572943
40.829778
54.296851
73.286891
85.216761
93.055964
93.906522
87.125897
77.476501
61.376691
47.460794
33.521652
25.104880
18.487573
14.669895
11.699796
11.097789
10.096431
10.223985
9.950995
9.753704
9.527802
9.615421
9.488463
9.596944
9.698868
##ZVALUE=335
0.240803
0.262856
0.207424
0.211596
0.226498
0.310540
0.145435
0.125766
0.255704
0.179410
0.143647
0.248551
0.264645
0.362992
0.252724
0.162721
0.236630
0.373721
0.308752
0.396967
0.343919
0.300407
0.267625
0.263453
0.304580
0.339746
0.346899
0.411868
0.384450
0.321865
0.396967
0.393987
0.378489
0.345707
0.421405
0.332594
0.448823
0.473857
0.411868
0.493526
0.431538
0.582933
0.496507
0.686646
0.548959
0.701547
0.810623
0.827909
0.887513
2.517700
9.154677
37.696958
79.835653
176.291466
280.717611
442.718863
549.746752
639.379621
651.732683
580.805540
482.733846
321.914554
216.539502
112.611651
59.864521
21.977425
11.427999
7.523894
7.416606
7.423759
8.541942
11.329651
15.657544
26.422739
36.949515
53.315759
66.291690
79.220533
86.399913
87.677836
82.604885
69.802999
60.213804
45.946836
36.106706
25.036931
18.815994
13.721585
11.935830
10.280609
9.900928
9.679794
9.071827
9.182692
8.972883
9.187460
##ZVALUE=340
0.266433
0.314713
0.189543
0.115633
0.253916
0.138879
0.044703
0.127554
0.177622
0.134706
0.184774
0.044703
0.195503
0.350475
0.231862
0.387430
0.309944
0.193715
0.234842
0.377893
0.330806
0.402927
0.478625
0.194907
0.336766
0.312924
0.391603
0.246763
0.246763
0.248551
0.003576
0.262856
0.293851
0.374913
0.452995
0.382662
0.522733
0.399947
0.438690
0.348687
0.509620
0.453591
0.603795
0.608563
0.478625
0.624657
0.513792
0.671744
0.712872
0.795722
0.726581
0.955462
4.411936
22.837520
55.154562
133.875012
225.178599
373.106003
483.389497
598.522425
630.870461
582.380891
501.070619
362.275839
254.089832
131.478906
73.598623
31.826496
14.759898
7.869601
7.175803
7.090569
7.646680
8.727908
11.190772
17.005801
23.908615
36.289692
48.161745
64.598918
75.008869
81.643462
82.751513
77.975988
69.778562
56.520700
45.961738
33.046603
25.453568
17.845631
13.877749
10.741949
9.828806
9.220839
8.665919
8.779764
##ZVALUE=345
0.040531
-0.108480
0.021458
-0.101924
-0.070930
0.077486
-0.004768
0.051856
-0.030994
0.021458
-0.024438
-0.017881
0.014901
0.013709
-0.008941
0.027418
0.052452
0.006557
-0.176430
-0.034571
-0.113845
-0.077486
0.065565
0.099540
0.077486
0.063777
0.022650
-0.007749
0.056624
0.050664
0.180602
0.224710
0.043511
0.282526
0.191927
0.194907
0.092983
0.034571
0.045896
0.156760
0.197887
0.071526
0.195503
0.172853
0.140667
0.243783
0.388622
0.154972
0.242591
0.479817
0.363588
0.613928
0.416636
0.735521
1.638532
11.977553
33.444762
88.549852
155.927539
284.835696
388.400555
510.555506
566.269755
567.023754
516.538620
391.757488
288.389921
172.098875
97.271800
39.975643
20.070672
9.162426
7.155538
6.849766
6.951690
7.135868
7.812977
10.367632
14.276505
23.119450
32.434464
46.387911
56.878924
67.528486
73.619485
76.273680
73.581934
65.318942
56.679845
43.478608
33.790469
23.350716
17.737746
12.837648
10.616779
9.067655
##ZVALUE=350
0.207424
0.102520
0.189543
0.277758
0.120997
0.119805
0.157952
0.329614
0.275970
0.241995
0.166893
0.273585
0.445843
0.145435
0.354648
0.176430
0.270605
0.287890
0.249743
0.296831
0.271797
0.233650
0.300407
0.320673
0.168681
0.266433
0.281930
0.237823
0.286698
0.349879
0.216961
0.365973
0.375509
0.287890
0.231862
0.378489
0.384450
0.265837
0.267625
0.392795
0.191927
0.275970
0.377893
0.393987
0.352859
0.354648
0.596642
0.471473
0.365973
0.519753
0.432730
0.564456
0.567436
0.615716
0.769496
0.812411
1.217723
4.700422
22.180676
50.144792
121.791959
203.166008
335.037708
432.778597
527.030826
557.899475
518.713593
442.294478
304.127932
208.252668
112.518668
61.873794
23.675561
11.976957
7.261634
6.604791
6.523728
6.239414
6.870627
7.683635
10.144711
13.895631
20.980835
28.133988
40.118694
50.058961
60.967803
67.201853
69.291592
68.029761
61.065555
52.734613
40.773749
32.205582
23.006797
17.350912
##ZVALUE=355
0.205636
0.224710
0.209808
0.145435
0.121593
0.142455
0.133514
0.222921
0.180602
0.232458
0.149608
0.157952
0.198483
0.177622
0.167489
0.063777
0.163913
0.339746
0.351667
0.126958
0.257492
0.343919
0.187755
0.272989
0.453591
0.199676
0.204444
0.241995
0.368953
0.220537
0.254512
0.249743
0.226498
0.513792
0.309944
0.332594
0.336766
0.350475
0.339746
0.404716
0.303984
0.180602
0.296831
0.393987
0.526905
0.459552
0.399947
0.375509
0.400543
0.388622
0.433922
0.489950
0.424981
0.516772
0.601411
0.629425
0.751615
0.827909
0.991821
1.995564
11.605620
31.237006
82.902908
149.180889
272.661448
373.556018
485.205650
531.154871
520.569682
455.608964
333.433747
243.054628
137.098432
77.302456
31.072497
15.513897
7.497668
6.658435
5.994439
6.072521
6.435513
6.676912
7.409453
8.577704
12.519956
16.890764
25.987625
33.620596
45.177937
52.757859
60.289502
62.906742
61.601996
57.643652
48.137903
40.941834
##ZVALUE=360
0.191927
0.058413
0.129938
0.099540
0.135899
0.226498
0.231862
0.124574
0.111461
0.148416
0.125766
0.320673
0.201464
0.268817
0.274777
0.128746
0.200868
0.239611
0.178814
0.243783
0.223517
0.257492
0.269413
0.271797
0.245571
0.236630
0.220537
0.215769
0.284910
0.314713
0.230670
0.282526
0.309944
0.283718
0.450611
0.316501
0.452995
0.282526
0.260472
0.388622
0.399947
0.405908
0.407696
0.328422
0.310540
0.329614
0.359416
0.371933
0.387430
0.427961
0.493526
0.279546
0.504851
0.561476
0.418425
0.477433
0.638962
0.552535
0.587702
0.748634
0.835657
1.154542
4.657507
15.499592
51.716566
101.100802
200.578570
294.552445
424.133539
487.415791
509.741902
476.949811
380.352736
288.462639
169.651508
102.901459
45.893788
21.145940
8.641481
6.186962
5.628467
5.730987
5.660653
6.047487
6.024837
6.264448
7.642508
9.844899
14.628768
20.242929
28.520823
36.861897
46.440959
52.649975
57.844520
57.299733
##ZVALUE=365
0.120997
0.117421
0.220537
0.129938
0.093579
0.268817
0.097752
0.225902
0.193715
0.200868
0.190735
0.221729
0.163913
0.104904
0.171661
0.168681
0.306964
0.170469
0.259876
0.320673
0.375509
0.236630
0.171661
0.167489
0.231862
0.151992
0.246763
0.166893
0.222921
0.184774
0.347495
0.338554
0.275970
0.167489
0.318885
0.306964
0.364780
0.351667
0.254512
0.277758
0.116825
0.262856
0.258684
0.242591
0.347495
0.421405
0.217557
0.370741
0.261664
0.449419
0.401735
0.427961
0.383854
0.405908
0.475645
0.514984
0.458956
0.413656
0.587702
0.604987
0.568628
0.683665
0.837445
1.052618
1.744628
10.055900
28.185844
74.288845
138.282776
255.139470
345.837474
440.672636
484.040976
473.034978
412.736535
300.823450
213.243961
117.431879
65.376759
25.119781
12.017488
6.070733
5.610585
5.378723
5.245805
5.455613
5.189776
5.600452
5.816817
6.433725
8.233786
12.279749
16.691685
25.225878
31.795502
40.988922
##ZVALUE=370
0.328422
0.368953
0.413656
0.418425
0.381470
0.383854
0.395775
0.265837
0.286698
0.364780
0.245571
0.228882
0.209808
0.176430
0.347495
0.418425
0.391603
0.356436
0.494719
0.379682
0.507832
0.380874
0.413656
0.391603
0.301600
0.480413
0.400543
0.455976
0.540614
0.371933
0.042915
0.513792
0.377893
0.348687
0.395775
0.552535
0.323653
0.461936
0.417829
0.549555
0.524521
0.478625
0.428557
0.398755
0.475645
0.383854
0.516772
0.497699
0.484586
0.456572
0.386834
0.674725
0.581741
0.560880
0.561476
0.709891
0.542998
0.491738
0.654459
0.692606
0.570416
0.662804
0.736713
0.704527
0.724792
1.038909
1.258850
4.975796
16.959906
55.283904
105.062723
198.433995
289.500952
402.389765
459.926724
468.860865
427.512527
333.822966
246.169567
138.895512
79.327822
33.284426
16.983747
7.821918
5.564690
5.180836
5.148649
5.165935
4.763603
4.874468
4.906654
5.413890
6.159544
8.100867
10.512471
15.331507
##ZVALUE=375
0.223517
0.133514
0.112653
0.124574
0.190735
0.266433
0.126958
0.254512
0.218749
0.249743
0.128746
0.068545
0.303984
0.170469
0.183582
0.301600
0.226498
0.198483
0.168681
0.135899
0.204444
0.190735
0.152588
0.129938
0.199676
0.212789
0.232458
0.042915
0.184774
0.211596
0.173450
0.168681
0.312924
0.237823
0.268817
0.108480
0.208616
0.171661
0.114441
0.242591
0.228882
0.292659
0.382662
0.265837
0.201464
0.099540
0.354648
0.329614
0.252724
0.301600
0.184774
0.210404
0.300407
0.231862
0.325441
0.263453
0.265837
0.298619
0.406504
0.426769
0.327826
0.294447
0.574589
0.525713
0.577569
0.637770
0.669956
0.715852
1.020432
2.107620
11.834502
30.585527
79.473853
143.903494
254.622698
338.433981
428.439975
463.435650
441.834927
382.714868
273.424983
192.708969
109.031796
63.136816
26.523471
12.720823
5.827546
4.794598
4.711747
4.661679
4.571676
4.434586
4.285574
4.633665
4.507899
5.028844
##ZVALUE=380
0.233650
0.182986
0.095963
0.088811
0.196695
0.119805
0.150800
0.135899
0.106692
0.250936
0.156760
0.053644
0.048876
0.091791
0.192523
0.192523
0.193715
0.073910
0.253916
0.140667
0.176430
0.231862
0.107884
0.202656
0.223517
0.281930
0.252724
0.302792
0.240803
0.292659
0.341535
0.209808
0.336766
0.195503
0.173450
0.311732
0.216961
0.223517
0.255704
0.245571
0.218749
0.143647
0.197887
0.324845
0.352859
0.227690
0.157952
0.336766
0.157952
0.200868
0.148416
0.270605
0.281930
0.436902
0.320673
0.405908
0.267625
0.321865
0.251532
0.203848
0.362992
0.339746
0.344515
0.266433
0.289679
0.405908
0.641942
0.463724
0.526905
0.739694
0.709891
1.441836
4.816651
22.257566
52.283406
122.331977
197.520852
305.902958
384.450555
448.068976
449.732542
391.132832
321.381688
216.655731
145.281553
74.286461
40.012002
15.657544
7.637739
4.795790
4.320741
4.222989
4.043579
4.207492
4.056692
4.170537
##ZVALUE=385
0.120997
0.199676
0.178814
0.103712
0.156760
0.132918
0.329614
0.223517
0.171661
0.055432
0.114441
0.128746
0.164509
0.125766
0.145435
0.067949
0.143647
0.080466
0.131726
0.160933
0.193715
0.052452
0.166893
0.131726
0.103712
0.112653
0.145435
0.239611
0.238419
0.242591
0.128746
0.217557
0.226498
0.197887
0.232458
0.105500
0.225902
0.124574
0.164509
0.378489
0.303984
0.085831
0.135899
0.233650
0.332594
0.206828
0.341535
0.369549
0.119805
0.220537
0.181794
0.181794
0.292659
0.167489
0.316501
0.142455
0.356436
0.193715
0.308752
0.344515
0.289679
0.368953
0.396967
0.306964
0.427961
0.440478
0.356436
0.348687
0.388622
0.480413
0.549555
0.643730
0.722408
0.643730
2.114773
12.392998
32.321811
84.439516
150.800943
264.273882
349.973440
427.364707
444.678664
419.838428
367.604494
269.987583
192.635655
106.414557
61.606765
26.498437
11.861920
5.105734
4.201531
3.824830
3.846884
3.771782
##ZVALUE=390
0.168681
0.035763
0.123978
0.202656
0.157952
0.199676
0.260472
0.132918
-0.058413
0.182986
0.158548
0.093579
0.037551
0.144839
0.217557
0.119805
0.219941
0.066757
0.299811
0.100732
0.112653
0.065565
0.214577
0.160933
0.076890
0.098944
0.198483
0.169873
0.030994
0.152588
0.194907
0.047684
0.279546
0.226498
0.346899
0.239611
0.202656
0.159740
0.267625
0.270605
0.238419
-0.016689
0.266433
0.279546
0.118613
0.316501
0.282526
0.175834
0.358820
0.266433
0.226498
0.236630
0.229478
0.242591
0.112653
0.206828
0.225902
0.454783
0.288486
0.314713
0.248551
0.375509
0.213981
0.268817
0.364780
0.337958
0.317693
0.446439
0.427961
0.495911
0.426769
0.522733
0.751615
0.614524
0.656843
0.714660
1.113415
6.285906
19.908547
63.185692
117.797852
218.622684
295.769572
380.973816
427.246690
437.639952
401.670933
315.349698
240.705609
146.427751
85.665584
36.509633
17.320514
6.260872
4.018545
3.846884
##ZVALUE=395
0.129938
0.151992
0.230670
0.133514
0.217557
0.202656
0.083447
0.253916
0.103712
0.096560
0.257492
0.133514
0.176430
0.058413
0.120997
0.204444
0.287890
0.018477
0.030994
0.198483
0.197887
0.126958
0.287890
0.185966
0.244975
0.269413
0.257492
0.151992
0.075698
0.117421
0.153780
0.123978
0.154972
0.143647
0.179410
0.229478
0.183582
0.118613
0.190735
0.246763
0.241995
0.223517
0.173450
0.245571
0.229478
0.269413
0.375509
0.283718
0.219941
0.243783
0.185966
0.247955
0.268817
0.302792
0.259876
0.243783
0.236630
0.368953
0.335574
0.220537
0.165701
0.325441
0.207424
0.396967
0.342727
0.318885
0.191927
0.496507
0.420809
0.475645
0.595450
0.540614
0.430942
0.578761
0.470877
0.524521
0.555515
0.446439
0.655651
3.293753
12.651682
44.656992
85.737705
163.540840
241.912007
351.104736
415.822864
455.132723
440.815687
374.397635
295.462608
185.042620
115.851760
51.760674
25.430918
9.619594
##ZVALUE=400
0.203848
0.140667
0.205636
0.173450
0.096560
-0.016689
0.096560
0.096560
0.224710
0.152588
0.268817
0.146627
0.111461
0.113845
0.294447
0.146627
0.108480
0.069737
0.244975
0.074506
0.327826
0.180602
0.187755
0.212789
0.115633
0.226498
0.114441
0.123978
0.185966
0.132918
0.059605
0.063777
0.163913
0.230670
0.176430
0.220537
0.139475
0.222921
0.112653
0.234842
0.058413
0.157952
0.335574
0.222921
0.202656
0.221729
0.287890
0.273585
0.246763
0.309944
0.261664
0.414848
0.362992
0.343919
0.251532
0.266433
0.415444
0.179410
0.122786
0.295639
0.172853
0.363588
0.300407
0.263453
0.356436
0.306964
0.391603
0.418425
0.447631
0.403523
0.356436
0.381470
0.437498
0.557899
0.477433
0.357628
0.504851
0.445843
0.667572
0.515580
0.695586
1.456738
7.456541
21.249652
61.793923
114.658475
212.363005
295.165777
393.424630
438.957810
443.930626
403.667688
312.395692
229.051709
132.726431
80.026984
##END
