##TITLE=QP00652
##FORMAT=SPECTACLE-ASCII V-1.2
##DATA TYPE=ULTRAVIOLET SPECTRUM
##SECOND TYPE=ULTRAVIOLET SPECTRUM
##DATE=01/09/18
##TIME=16:56:18
##SPECTROMETER/DATA SYSTEM=SPECTACLE
##XUNITS=NM EM
##YUNITS=ENERGY
##YFACTOR=1
##FIRSTX=220
##LASTX=410
##NPOINTS=96
##3DDATA=Equidistant
##ZUNITS=NM EX
##FIRSTZ=210
##LASTZ=400
##ZPOINTS=39
##XYDATA=(Y..Y)
##ZVALUE=210
1.718998
2.304912
2.089739
2.348423
1.806617
1.847744
2.455711
2.497435
2.191663
1.600981
1.697540
2.165437
2.412796
1.837611
2.453923
2.368689
2.301931
2.467632
2.359748
2.905726
2.475977
2.761483
3.060699
3.110766
3.489852
3.981590
3.877878
3.597736
2.973676
3.710985
3.992915
4.119873
4.129410
4.539490
4.148483
4.544854
5.247593
4.268885
4.749894
5.544424
5.120635
4.909635
5.547404
5.589724
5.082488
5.196929
5.117655
5.188584
6.562471
6.063581
7.126927
6.235838
6.053448
6.555915
7.081628
6.679893
6.746650
6.987453
6.663799
6.304979
6.823540
6.756783
6.511807
7.162690
7.758737
8.177757
7.476807
9.038448
8.735657
9.562969
12.750626
16.401410
16.508698
20.002723
21.991730
21.645427
22.958517
23.400784
21.991730
22.257566
19.066930
17.139912
15.566945
13.172626
10.977983
9.213686
7.026792
6.938577
6.720424
6.800890
7.687807
6.423593
5.709529
6.171465
7.006526
7.264614
##ZVALUE=215
5.515814
4.882812
4.601479
4.572868
4.492998
3.786683
4.214644
4.460812
4.738569
4.560947
4.493594
3.879666
4.000664
2.805591
2.706647
3.116727
2.322793
2.946854
2.696514
2.708435
3.364682
2.648830
2.868772
3.595948
3.157854
3.673434
3.446937
4.076958
3.906488
4.038811
3.893971
4.061460
5.447865
4.906654
5.110502
5.238652
5.396605
5.090833
5.108714
4.839897
5.620718
5.632639
5.597472
6.183982
6.160736
6.145835
6.927848
5.727410
5.720854
6.099939
6.771684
7.097721
6.940961
6.387830
6.306767
6.993413
6.814599
6.696582
7.431507
7.327795
7.440448
7.412434
6.728768
7.327795
7.250905
7.647872
8.730888
9.475946
10.786653
12.231469
14.470816
15.211701
17.125607
19.120574
21.453500
20.336509
19.123554
20.432472
22.301674
17.606616
17.962456
14.536977
14.846921
11.736751
11.328459
9.002686
8.519888
7.812977
7.585883
7.241964
6.111860
7.245541
6.887913
6.662607
7.494688
7.357597
##ZVALUE=220
15.643835
16.216636
19.280910
19.785762
20.341873
16.602874
13.176799
10.617971
10.367632
10.754466
10.940433
11.709929
11.588931
10.001659
9.147525
7.059574
6.171465
4.532933
4.040599
2.816916
3.227592
3.563762
4.149675
3.429651
4.387498
4.546642
3.675818
4.143715
4.397631
4.579425
4.552603
5.327463
5.715489
5.136728
5.239844
5.735755
5.694628
6.108880
6.526709
6.792545
6.576777
6.177425
7.142425
6.112456
7.106662
7.347465
7.113814
7.112622
7.715821
7.391572
9.216666
8.468628
7.779598
9.160638
7.576942
8.947849
9.661913
8.202791
8.700490
8.969903
8.825660
9.275675
8.735657
9.126663
9.151697
8.725524
9.194613
10.497570
11.425614
13.044477
13.454556
14.958978
18.441677
18.492937
21.660924
23.929477
21.751523
22.221804
20.445585
21.095872
17.760992
16.184449
15.500784
12.574792
10.878444
12.228489
8.835793
8.562803
8.249879
7.740855
7.034540
8.187890
6.694794
7.317662
6.824732
7.528663
##ZVALUE=225
28.009415
31.998754
41.799545
58.706999
59.116483
63.097477
59.165955
47.878623
37.068725
28.349757
23.868680
23.310781
25.230646
24.825931
26.998520
23.435950
21.034479
15.596747
11.768937
9.072423
5.907416
4.300475
3.370643
3.926754
4.029870
4.304647
4.729629
3.833771
4.645586
5.603433
5.445480
6.615520
6.565452
5.457997
7.251501
6.932616
8.115768
6.987453
8.386970
8.579493
8.296967
8.738637
8.505583
8.042455
8.829832
8.783937
8.366704
8.042455
8.639693
8.555651
9.965897
9.984970
10.013580
10.397434
10.906458
11.024475
11.851788
11.451840
11.691451
12.020469
12.646914
12.370944
11.409521
12.006760
12.050867
10.689497
12.413859
11.812449
12.519956
14.776587
14.891624
16.925931
18.397570
17.966628
20.040870
20.185709
21.000504
18.943548
18.883944
17.284751
16.722679
14.841557
14.766455
12.600422
13.593435
11.260509
10.213852
10.509491
9.977818
8.980632
9.545684
8.932948
9.031892
9.593964
8.217692
9.216666
##ZVALUE=230
26.442409
28.753877
43.455958
79.822540
103.369951
136.496425
152.651668
156.099796
144.037604
116.328597
92.210770
61.666965
49.631596
45.921803
46.515465
47.122836
50.019622
47.321916
43.452978
34.993887
28.338432
18.962622
11.744499
7.871985
5.380511
5.154610
5.312562
5.003810
5.959868
5.435944
6.548762
7.230639
7.811785
7.099509
7.020831
9.335876
7.411838
8.319616
9.737611
9.491444
8.670688
9.753704
10.146499
9.730458
10.098815
9.401441
9.530783
9.965897
10.610819
10.525584
10.641813
12.025833
11.891723
12.755990
12.861490
13.550520
13.138652
13.613701
14.029741
15.421510
14.772415
13.957620
13.962984
14.977455
14.292598
14.065504
14.089942
15.108585
16.595721
18.365979
17.828941
18.818974
21.782517
22.606850
24.232864
24.321675
23.977757
23.805499
21.114945
20.122528
18.482804
18.645525
16.112924
17.391443
14.882684
14.400482
13.861656
13.330579
12.789965
13.722777
12.570620
12.595654
13.062954
12.770891
14.031529
12.129545
##ZVALUE=235
9.085536
11.888742
22.429824
55.301785
90.104938
146.380663
208.670497
276.253819
308.654904
315.891504
292.441845
248.431563
171.306729
122.096539
89.287758
73.985457
72.661638
75.787902
81.527829
82.286000
80.908537
66.427588
48.963428
38.274527
24.336576
15.396476
9.805560
6.820560
6.149411
6.773472
6.738901
6.807446
5.953908
8.050799
8.066893
7.526875
9.168983
8.970499
7.687807
8.665919
9.060502
8.199811
10.330677
10.246634
9.278655
9.635687
10.319948
10.449886
10.117888
11.764765
10.478497
11.813641
11.809468
12.569427
13.125539
13.979673
14.557838
13.433695
14.971495
13.245940
15.149713
15.579462
13.435483
15.431643
15.827417
15.658736
16.413927
16.963482
18.438697
19.843578
20.789504
22.131801
23.186803
26.142001
28.573871
26.257634
25.538802
26.075840
25.587678
23.932457
23.859739
21.283627
21.881461
20.010471
20.644665
18.321872
19.141436
18.891692
17.851591
18.793941
17.686486
16.565919
16.858578
17.428994
17.197728
18.720627
##ZVALUE=240
1.228452
2.464652
3.717542
15.058517
32.195449
76.834559
126.855969
233.538747
319.131613
425.346494
477.838516
491.203666
461.624861
372.861624
295.175910
217.927694
141.276717
107.183456
96.950531
105.561614
114.638805
120.445490
113.141537
102.891922
79.683661
66.674948
51.775575
28.674603
20.230412
11.901855
8.257627
8.706450
8.041859
6.883740
7.681847
7.624626
8.223653
8.115768
8.151531
7.990599
7.298589
8.872747
9.102821
9.392500
8.746982
8.960962
10.273457
9.670854
9.764433
10.530949
10.387897
10.028481
11.045933
12.405515
13.073683
12.173653
12.590885
12.806654
15.318990
15.167594
13.830662
14.618635
15.126467
15.260577
14.938712
16.975999
17.638803
17.837882
18.877983
21.362901
21.832585
24.918914
26.283860
27.564764
28.689504
30.429959
29.934645
28.528571
31.182766
26.241541
27.386546
27.157664
26.028752
23.144484
23.602843
22.241473
23.050904
23.046732
22.844672
21.417737
21.640658
23.709536
22.176504
20.660758
21.359921
21.527410
##ZVALUE=245
1.353621
1.756549
1.352429
1.501441
3.163815
9.109974
30.218959
66.366792
149.017572
233.971477
370.478630
474.758744
557.819605
606.942773
579.747558
498.432517
405.103564
286.587477
202.835798
130.820870
105.868578
99.538565
116.202831
123.817921
132.844448
128.469467
113.378763
92.535615
71.150661
51.258802
38.483739
21.177530
12.955666
9.078979
6.462932
7.367730
7.130504
7.391572
6.626844
6.596446
7.640719
7.289648
7.823706
7.077456
6.899834
8.015633
7.868409
7.722974
8.368492
9.422898
9.439588
9.391904
10.592937
10.710955
11.148453
11.142492
12.283921
11.911988
11.961460
12.191534
13.504624
13.385415
14.586449
15.176535
14.514923
15.875697
15.481710
18.123984
18.334985
19.813776
22.029877
24.846792
23.892522
27.713776
29.068589
29.139519
29.654503
28.145909
28.220415
25.019646
24.702549
23.954511
23.710728
22.696853
23.729801
20.962954
22.008419
22.824407
21.538734
23.499727
21.834970
21.136999
21.622777
20.578504
21.109581
21.006465
##ZVALUE=250
1.066923
1.220703
1.208782
1.330972
1.193881
1.380444
2.399683
6.159544
24.842620
55.386424
132.007599
223.877430
327.920914
493.100882
597.251654
685.355663
694.005489
636.477470
538.919568
388.296843
275.660753
182.807446
113.924742
94.328523
106.868744
123.414993
135.086775
142.646432
133.323669
122.852921
106.006861
78.983903
58.222413
34.211874
23.431778
12.094975
8.187890
7.351637
6.338954
6.500483
6.783605
6.488562
7.096529
8.118749
7.891655
7.758737
7.391572
7.994771
7.464886
7.536411
9.313822
8.483529
8.713603
9.149909
9.880662
10.431409
10.389686
10.396838
10.617971
10.807514
11.675954
11.415482
11.834502
12.203455
12.381673
13.128519
12.956858
13.721585
15.092492
15.614629
17.287731
18.864870
20.674467
19.836426
22.587776
22.178888
23.161769
22.484660
22.056699
22.839904
20.822883
21.783710
22.787452
19.549727
20.486712
21.004677
19.818544
20.263791
19.894838
19.853711
20.406842
20.313859
20.082593
20.362735
20.788908
21.471977
##ZVALUE=255
0.914931
0.724792
0.626445
0.977516
1.176000
1.152754
1.078844
1.143813
1.572967
3.121495
17.287731
40.552616
85.753798
190.187693
301.280618
477.216840
604.751706
746.020675
793.623924
770.233870
684.771538
560.001731
362.386703
242.365003
133.693814
100.163817
91.900826
105.146766
127.764940
140.640736
148.701668
147.870779
131.976604
105.744004
83.587766
55.757761
38.801432
22.494793
15.142560
9.464622
7.740855
7.780790
7.253885
8.010864
8.334517
8.836985
8.257627
7.861853
9.133816
9.310842
8.206964
8.772612
9.676814
9.287596
10.711551
9.741783
10.546446
10.406971
10.492802
10.948777
10.957718
11.143684
11.659861
11.648536
12.513995
12.998581
13.586879
13.562441
14.793873
14.646649
15.607476
17.824769
17.392635
18.761754
18.890500
20.152926
19.594431
20.079613
19.694567
19.244552
19.626617
18.295646
17.445683
18.224716
18.480420
17.812848
17.801523
19.380450
18.437505
18.807650
18.344522
18.988848
18.685460
19.190907
18.685460
19.929409
##ZVALUE=260
0.826716
0.969768
1.024604
0.856519
1.025796
0.992417
1.073480
1.184940
1.082420
1.379848
1.433492
2.340674
6.558895
27.523637
63.710809
157.838464
261.174440
439.036489
582.531691
780.133009
881.142020
909.869671
835.707784
703.229904
482.698679
334.313512
192.690492
123.456717
81.746578
83.899498
101.183653
126.448870
146.977901
154.980421
153.389573
134.276748
116.900802
82.537532
62.595606
39.201975
26.138425
16.722679
12.078881
10.732412
8.625984
9.110570
9.970665
9.714961
10.105968
9.748936
9.852648
9.708405
10.044575
10.363460
10.184646
10.829568
10.281801
11.844635
11.611581
11.051893
11.601448
11.937618
11.058450
11.509657
10.876656
11.626482
12.474656
12.676716
12.818575
12.721419
14.280677
14.814734
15.450716
17.250776
16.399622
16.985536
17.906427
17.828941
17.547607
16.927719
16.358495
16.980767
17.125607
17.775893
18.010736
17.065406
17.855763
18.013716
17.453432
17.416477
17.107725
17.650723
17.814636
17.676950
18.603802
18.956661
##ZVALUE=265
0.836849
0.997782
0.919700
0.978708
0.898838
0.871420
0.939965
0.824928
0.962615
1.163483
1.090765
1.523495
1.287460
1.819730
3.933907
14.933944
56.272745
112.084746
197.126865
381.430387
556.654930
786.705613
917.518735
992.311835
953.437686
817.226768
668.473840
440.701842
292.117596
156.932473
97.435713
73.611736
84.031820
113.798976
136.874914
157.764554
162.554979
154.507756
140.637755
113.133788
90.618730
61.857700
43.647885
26.474595
18.068552
12.097955
10.736585
10.640621
10.580420
11.107922
11.038780
10.531545
10.606647
12.226701
11.359453
11.747479
11.733770
11.509657
11.856556
11.780858
10.651946
11.417866
11.359453
11.203885
11.351705
12.131929
12.577772
11.793971
12.585521
13.089776
13.681650
14.035702
14.966726
15.684962
15.514493
16.396642
16.683936
17.051697
16.795993
15.970469
15.566945
15.297532
16.360879
15.368462
15.581846
15.707612
16.217828
15.594959
15.859604
16.594529
17.738938
16.805530
16.047955
17.767549
16.961694
17.366409
##ZVALUE=270
0.671744
0.683665
0.755787
0.648499
0.588894
0.812411
0.974536
0.726581
1.043677
0.869632
0.857711
0.993609
1.102686
1.055598
1.091957
1.633763
2.109408
8.859634
27.143955
88.926554
171.350837
295.635462
531.597733
720.742941
952.267647
1015.674472
1015.674472
995.528698
803.716779
629.290938
397.054553
243.945718
138.545632
70.991516
66.066980
89.873672
111.825466
142.145753
156.313777
163.248777
161.131620
142.275691
119.097829
86.477995
66.296458
41.885972
28.320551
18.414855
13.923645
11.332631
11.253953
11.148453
11.342764
11.428595
11.195540
11.741519
11.564493
11.503696
11.745691
10.944605
11.609793
11.676550
11.421442
11.647940
11.373758
11.432767
11.780858
11.772513
12.095571
12.737513
13.349652
14.113784
13.451576
14.939904
15.194416
15.118718
15.242696
15.283823
14.740825
14.958978
14.721751
14.733672
14.598966
14.742613
15.464425
14.437437
15.396476
14.808774
15.375614
14.745593
15.084743
15.859604
15.834570
16.166568
16.532540
16.960502
##ZVALUE=275
0.588894
0.507832
0.651479
0.770688
0.551939
0.720620
0.612736
0.763535
0.855923
0.918508
0.877976
1.098514
0.870824
0.911951
0.921488
1.179576
1.053810
1.291633
1.574755
3.930926
15.830994
46.704412
137.463808
256.601572
484.863520
660.040975
884.015560
1004.982591
1015.661955
1015.661955
997.875929
778.831840
565.984845
318.490863
190.015435
87.391734
57.341456
63.238740
82.677603
115.378499
132.729411
154.127479
161.915421
152.498484
141.905546
110.258460
90.004802
62.933564
45.215487
28.568506
19.951463
13.958812
12.228489
10.905862
11.079907
11.007786
11.041760
11.236668
10.872483
11.324883
11.385679
11.759996
10.871887
11.006594
11.597872
11.194944
11.075735
11.289716
11.898875
12.176633
12.804866
13.055801
13.751984
13.902783
14.484525
15.552640
14.668703
14.507771
14.452934
13.815761
14.073849
13.651848
14.052987
14.648438
14.228821
14.486909
14.385581
14.173985
14.442801
14.440417
15.031695
15.132427
15.060902
15.081763
14.557838
15.560985
##ZVALUE=280
0.652671
0.731945
0.628829
0.853539
0.847578
0.817776
0.834465
0.859499
0.850558
0.941753
0.794530
0.990629
0.938773
1.025796
1.019835
1.022816
1.219511
1.305938
1.560450
1.389980
1.529455
2.034903
9.985566
33.774972
106.952786
199.129581
379.444957
557.159781
802.366734
968.452692
1015.820503
1015.820503
1004.792452
812.882781
627.450943
376.409888
235.382915
110.408664
62.627792
45.953989
56.954622
84.509850
107.413530
136.037469
148.483515
156.545639
151.932836
133.396983
113.784671
84.123611
64.551830
42.145848
29.400587
18.568635
13.465881
11.297464
10.040998
10.388494
10.699630
10.348558
10.543466
10.481477
11.008978
10.539889
10.886788
10.630488
10.709763
11.136532
11.689663
11.371970
12.013912
13.008714
13.534427
13.527870
13.715625
14.015436
14.170408
14.734864
14.135838
14.045835
13.421774
13.742447
13.803840
13.864636
13.891459
13.413429
13.847947
14.351606
13.866425
13.534427
14.224648
14.394522
14.422536
14.457703
14.503598
14.424920
##ZVALUE=285
0.781417
0.687838
0.677705
0.807643
0.570416
0.785589
0.796914
0.779629
0.834465
0.575781
0.732541
0.817776
0.619888
0.749826
0.870824
1.094937
0.969768
1.037717
1.059771
1.153946
1.191497
1.378655
1.468658
1.857877
5.041957
18.319488
64.792633
132.022500
288.134813
458.408594
643.430948
897.354484
1015.814543
1015.814543
1015.814543
909.032822
732.308030
473.526716
310.155749
155.409575
82.587004
40.280819
37.394762
55.354834
75.809956
107.128620
125.916600
141.497850
151.883960
145.852566
133.877993
111.818910
89.889765
62.335730
44.482946
26.877522
18.857718
12.896657
10.901690
10.058880
9.649992
9.798408
9.926558
10.067821
9.922981
9.944439
11.169910
11.063814
11.179447
11.547804
12.113452
12.117624
12.701750
13.339520
13.004541
13.630986
13.169646
13.659596
13.802648
13.220906
13.641715
13.826489
13.621449
13.523698
13.264418
13.600588
13.761520
13.633966
13.830662
13.822913
14.233589
13.380647
13.639927
13.755560
13.678670
13.638735
##ZVALUE=290
0.384450
0.572801
0.543594
0.296831
0.362992
0.501871
0.470877
0.446439
0.599623
0.547767
0.506639
0.478625
0.652671
0.689626
0.608563
0.518560
0.672936
0.736713
0.758767
0.822544
0.921488
0.838637
1.054406
1.183748
1.026988
1.599789
2.024770
9.918809
30.847788
97.213984
187.150836
388.422012
585.811734
861.257911
1014.156938
1015.674472
1015.674472
996.490717
831.141472
567.777753
385.748744
203.096867
110.750794
45.659542
29.323697
35.290718
49.914718
74.330568
96.730590
121.533871
134.976506
146.376491
144.323707
128.783584
110.604763
83.469748
62.624812
40.444732
29.418468
17.518997
13.716817
10.636449
9.421706
8.910894
9.808540
9.643435
10.347962
10.283589
10.515451
11.543632
11.005998
11.908412
12.539625
12.494922
13.150573
13.403893
13.074875
13.048649
13.721585
13.784766
12.928843
13.498664
13.246536
13.956428
14.039874
13.220906
13.383627
14.079809
13.829470
14.028549
13.313890
13.360977
13.769865
13.636947
12.638569
13.379455
##ZVALUE=295
0.454783
0.402927
0.423789
0.480413
0.489950
0.445843
0.452995
0.708699
0.496507
0.670552
0.583529
0.569820
0.677705
0.685453
0.620484
0.553727
0.567436
0.637770
0.565648
0.739694
0.875592
0.921488
0.733733
1.015663
1.152754
1.165867
1.485944
1.309514
1.495481
2.864599
17.022491
47.393441
137.372613
256.909728
496.869683
707.527995
986.456871
1015.674472
1015.674472
1015.674472
916.977525
708.225965
434.402823
271.805525
125.864744
63.585639
27.330518
20.809770
31.008720
45.553446
70.103407
90.551972
115.547776
130.146742
137.690902
138.110518
122.176409
106.598735
80.986619
63.769817
41.481853
28.560758
18.416643
13.425946
10.730624
10.043979
10.077953
9.900928
10.270476
10.562539
11.525750
11.461973
11.781454
12.490749
12.523532
12.850761
12.781620
12.873411
13.329983
13.314486
13.581514
13.531446
13.396740
13.609529
13.659596
13.800859
13.638735
13.727546
13.454556
13.907552
13.372898
13.767481
14.024973
13.861656
13.096929
13.671517
##ZVALUE=300
0.415444
0.435710
0.407696
0.470877
0.573993
0.220537
0.534654
0.480413
0.400543
0.421405
0.536442
0.482798
0.730753
0.585914
0.637770
0.626445
0.398755
0.761747
0.725985
0.674725
0.669956
0.512600
0.756979
0.916719
0.954866
0.966787
0.906587
1.152754
1.096725
1.341701
1.514554
1.843572
5.142689
29.755831
77.568889
202.390552
354.706645
632.777810
851.096511
1015.674472
1015.674472
1015.674472
1015.674472
825.776458
596.178770
322.631001
191.566944
87.619424
41.402578
18.518567
18.213987
27.793646
39.688945
62.019825
82.441568
107.168555
123.358965
132.466555
131.616592
119.991899
104.203820
79.324841
61.323643
41.491985
29.260516
18.916726
14.052987
11.474490
10.639429
10.784864
11.079907
11.585951
11.721849
12.626648
12.281537
13.279915
12.730956
13.275743
13.003945
13.550520
13.829470
13.321638
13.574958
13.855696
13.834834
13.901591
14.096498
14.096498
14.056563
13.804436
12.809634
13.771653
13.490915
13.860464
13.046861
13.720989
##ZVALUE=305
0.379682
0.398755
0.366569
0.523925
0.475645
0.416636
0.478625
0.505447
0.312924
0.398755
0.498891
0.448823
0.311732
0.376701
0.402927
0.498891
0.602603
0.400543
0.651479
0.533462
0.624657
0.650883
0.804663
0.878572
0.738502
0.923872
0.674725
0.897646
0.947714
1.108646
1.201630
1.354814
1.371503
1.565814
2.864599
16.956925
50.936937
151.419640
278.589725
528.979897
764.324665
1015.674472
1015.674472
1015.674472
1015.674472
980.816483
755.127668
471.416712
284.573436
126.564503
62.992573
23.016930
14.903545
18.101931
25.614500
41.157603
57.997704
81.833601
100.334883
117.625594
126.161575
124.504566
116.343498
98.824501
80.276728
56.806803
41.026473
27.693510
20.301938
14.735460
12.097955
12.045503
11.925697
12.319684
12.347698
12.819767
12.978911
13.020635
12.745857
13.248920
13.514757
13.455749
13.524890
14.003515
14.465451
14.264584
13.991594
14.310479
14.302731
13.946891
13.626814
14.034510
14.052987
13.688803
13.666749
13.766885
##ZVALUE=310
0.345707
0.390410
0.423789
0.388622
0.312924
0.502467
0.467896
0.315905
0.393987
0.422597
0.444651
0.554919
0.366569
0.392795
0.439882
0.605583
0.344515
0.678897
0.685453
0.534654
0.420809
0.553727
0.659823
0.702739
0.830889
0.682473
0.777841
0.889897
0.779629
0.740886
0.910759
0.881553
0.892878
1.119971
1.294613
1.589656
1.901984
7.852912
27.146935
92.572570
187.894702
393.000841
612.683892
925.014615
1015.674472
1015.674472
1015.674472
1015.674472
967.869759
660.301447
447.899699
227.451921
119.685531
39.712787
17.366409
12.395978
15.255809
24.409890
34.797788
53.337812
70.778728
93.099475
107.067823
118.689537
118.615627
110.820532
97.098947
76.814890
59.831738
40.934682
29.930472
20.634532
16.560555
13.901591
12.918711
12.774467
12.786984
13.194680
13.059974
13.260841
13.170838
13.603568
13.741851
14.075637
14.065504
14.263988
14.710426
13.923645
14.415979
14.378428
14.225841
14.018416
13.603568
14.024973
13.969541
14.091730
##ZVALUE=315
0.354648
0.252724
0.380874
0.298619
0.290871
0.409484
0.445843
0.305772
0.300407
0.307560
0.454783
0.441670
0.418425
0.511408
0.471473
0.325441
0.366569
0.380874
0.563860
0.448823
0.393987
0.408888
0.481606
0.477433
0.547767
0.729561
0.604987
0.631809
0.779629
0.878572
0.679493
0.962615
1.059771
0.998974
1.065731
1.031756
1.323819
1.367927
1.606941
3.478527
13.924837
58.744550
132.002831
301.234722
494.448543
801.447034
995.792747
1015.682817
1015.682817
1015.682817
1004.377007
736.244917
524.238944
279.907584
151.040554
54.830909
23.314953
11.477470
11.443496
15.456676
21.167994
34.602880
47.617555
67.615509
85.870624
103.437901
111.550689
112.219453
107.302666
90.681911
76.589584
57.491660
43.351650
28.741956
21.921992
15.976429
14.079809
13.333559
12.975931
13.283491
13.455749
13.569593
13.881922
13.972521
13.624430
14.118552
14.197826
14.124513
14.754534
14.057755
14.314651
14.023781
14.171600
13.757944
14.083982
13.925433
##ZVALUE=320
0.317693
0.351667
0.313520
0.366569
0.390410
0.242591
0.308752
0.379682
0.393987
0.469685
0.349879
0.472665
0.484586
0.392795
0.459552
0.424981
0.364780
0.375509
0.507832
0.503659
0.407696
0.578761
0.392795
0.507832
0.524521
0.526905
0.631809
0.604987
0.477433
0.810623
0.858903
0.792742
0.737906
0.689626
0.746846
0.835657
0.821948
1.057982
1.200438
1.364946
1.461506
1.937747
6.351471
34.157634
85.245967
216.679573
364.014506
620.986819
838.844776
1015.674472
1015.674472
1015.674472
1015.674472
932.739973
703.169703
404.956937
237.728953
97.201467
40.867925
13.567805
9.660721
10.489821
13.480783
20.014644
28.811693
46.117902
60.684681
81.484914
95.533729
106.589794
106.759667
102.409720
90.907812
70.899725
57.070851
39.171576
30.171871
21.913648
16.977787
14.342666
13.756752
13.764501
13.627410
13.896823
13.545752
14.045835
13.912916
13.623834
14.166832
14.255643
14.023781
13.723969
14.029741
14.433861
13.811588
14.016628
##ZVALUE=325
0.203848
0.322461
0.303984
0.316501
0.438690
0.361800
0.288486
0.315905
0.255704
0.260472
0.296831
0.399947
0.271797
0.312924
0.384450
0.423789
0.447631
0.509620
0.382662
0.474453
0.522733
0.396967
0.426769
0.703931
0.501871
0.389814
0.556707
0.566840
0.501871
0.604987
0.497699
0.634789
0.548959
0.715852
0.618696
0.827909
0.742674
0.790954
0.900626
1.003742
1.072884
1.201630
1.358986
1.649857
3.501773
22.519827
60.500503
160.314441
286.251903
526.197553
740.717649
1001.650691
1015.674472
1015.674472
1015.674472
996.947885
779.840946
482.358932
292.952657
126.040578
59.587955
18.229485
10.198951
9.476542
10.409951
14.241934
19.200444
29.986501
42.190552
62.169433
77.323914
93.094707
100.660920
101.210475
95.922947
83.090663
70.144534
51.508546
39.567947
27.138591
21.268725
16.193986
14.773607
13.952851
14.027953
13.932586
13.777614
13.884902
13.464689
13.737679
13.738871
13.680458
13.604760
13.838410
13.957620
14.235973
##ZVALUE=330
0.169873
0.307560
0.436902
0.217557
0.295639
0.317693
0.334978
0.367761
0.194907
0.321865
0.404716
0.391603
0.214577
0.349879
0.331998
0.397563
0.421405
0.474453
0.347495
0.390410
0.440478
0.492930
0.360608
0.274777
0.394583
0.462532
0.443459
0.461936
0.458956
0.512600
0.564456
0.504851
0.570416
0.555515
0.657439
0.711679
0.853539
0.756979
0.721812
0.807643
0.757575
0.998974
1.228452
1.194477
1.292825
1.560450
2.006888
9.409785
32.505989
107.804537
208.256841
415.024757
612.557530
883.454680
1015.674472
1015.674472
1015.674472
1015.674472
861.310959
575.303435
374.175906
170.880556
84.670782
29.898882
13.566613
9.048581
8.766651
9.977818
13.327599
19.904971
27.970672
42.016506
54.964423
74.130893
86.423755
95.614791
95.978975
90.183616
79.918504
63.610673
50.572753
36.139488
27.978420
21.305680
17.503500
15.092492
14.053583
13.602972
13.250709
13.168454
13.416409
13.172626
13.274550
13.413429
13.605952
13.684630
##ZVALUE=335
0.257492
0.467896
0.240803
0.307560
0.259876
0.186563
0.214577
0.312924
0.372529
0.222921
0.188947
0.258684
0.137687
0.263453
0.292659
0.234842
0.289679
0.437498
0.328422
0.293851
0.312924
0.446439
0.333786
0.408888
0.325441
0.410676
0.390410
0.384450
0.495911
0.301600
0.552535
0.522733
0.598431
0.685453
0.459552
0.602603
0.625849
0.572801
0.590682
0.695586
0.819564
0.922680
0.914931
0.974536
1.017451
1.261830
1.153946
1.524687
1.537800
4.228950
16.886592
67.735910
146.389604
339.928865
557.514429
900.210738
1015.674472
1015.674472
1015.674472
1015.674472
985.258818
668.826699
446.867943
229.966640
118.410587
39.421916
16.856790
9.705424
8.947849
9.421706
10.261536
13.588667
18.105507
28.892756
39.782524
55.918694
68.988800
82.200766
89.313984
91.322660
86.426735
73.942542
62.876940
47.967434
37.982464
27.843714
21.819472
17.132759
14.975667
13.899803
13.057590
12.826920
13.132691
12.905598
13.142824
13.028979
##ZVALUE=340
0.243783
0.248551
0.282526
0.333786
0.296831
0.224710
0.177622
0.249743
0.256896
0.237823
0.340939
0.168681
0.297427
0.404716
0.334978
0.239611
0.366569
0.398755
0.527501
0.385642
0.343919
0.267625
0.390410
0.327826
0.341535
0.521541
0.360608
0.428557
0.460744
0.522733
0.592470
0.500679
0.524521
0.533462
0.645518
0.563860
0.509620
0.501871
0.560880
0.709891
0.694990
0.617504
0.868440
0.785589
0.858903
0.889897
0.908971
0.961423
1.211762
1.200438
1.380444
2.322793
8.673668
45.814514
110.969543
267.823935
439.424515
710.373521
926.654935
1015.679836
1015.679836
1015.679836
1009.738445
763.257742
537.786484
280.377865
153.375864
59.773922
24.361610
10.335445
9.062886
9.097457
9.459853
10.677576
13.382435
18.953681
26.719570
39.011836
50.706863
66.849589
76.177716
84.398985
85.202456
79.994798
71.760416
58.792830
48.388839
36.235452
28.324723
21.760464
17.337799
14.565587
13.178587
12.607574
12.848973
12.618899
##ZVALUE=345
0.345707
0.288486
0.268817
0.299811
0.229478
0.222921
0.092983
0.122786
0.267625
0.214577
0.265837
0.210404
0.338554
0.382662
0.261664
0.271797
0.440478
0.325441
0.491738
0.410676
0.511408
0.370741
0.513792
0.247955
0.222921
0.404716
0.235438
0.348687
0.442863
0.477433
0.426769
0.476837
0.518560
0.640750
0.602603
0.528693
0.647902
0.506639
0.449419
0.576973
0.574589
0.612736
0.705719
0.780821
0.748634
0.846982
0.830889
0.859499
0.898838
0.994802
1.214743
1.169443
1.429915
1.753569
4.260540
27.178526
73.679686
190.999508
338.011980
594.907403
802.670717
1015.692949
1015.692949
1015.692949
1015.692949
934.830904
707.160830
427.500606
237.624645
89.125633
38.661957
14.083982
9.410977
9.145737
8.889437
9.065866
10.063648
12.727976
16.850829
25.320649
34.766793
49.221516
59.526563
69.560409
76.735616
78.473687
75.428486
67.516565
58.446527
46.648979
37.347674
26.741624
21.786690
16.524792
14.327765
12.661815
##ZVALUE=350
0.398755
0.174642
0.366569
0.369549
0.325441
0.199676
0.293851
0.467896
0.376701
0.370741
0.436902
0.409484
0.405908
0.274777
0.348687
0.351667
0.416636
0.396967
0.335574
0.237823
0.459552
0.420809
0.460744
0.428557
0.404716
0.510812
0.396967
0.449419
0.501871
0.603795
0.495911
0.580549
0.464916
0.380874
0.438690
0.702739
0.498891
0.453591
0.457764
0.529885
0.615716
0.648499
0.661612
0.756979
0.796914
0.675917
0.842810
0.871420
0.903606
0.847578
1.000762
1.039505
1.162887
1.370907
1.397729
1.618862
2.366900
14.846921
48.551559
146.357417
272.614956
517.136455
727.692842
988.555551
1015.738845
1015.738845
1015.738845
1015.738845
875.827670
527.020693
317.227840
139.742494
60.576797
17.198920
10.080934
8.824468
8.948445
8.794665
9.320974
9.986758
11.851788
17.266870
22.438765
31.900406
40.631890
53.311586
62.105656
69.605708
71.233511
70.417523
65.224767
53.593516
44.804811
33.370852
26.640892
20.197630
##ZVALUE=355
0.238419
0.230670
0.297427
0.304580
0.510812
0.471473
0.255704
0.184774
0.230670
0.233650
0.235438
0.284910
0.204444
0.198483
0.415444
0.497699
0.505447
0.433922
0.333786
0.310540
0.378489
0.317693
0.315905
0.237823
0.211596
0.361800
0.534654
0.342727
0.485778
0.491738
0.455976
0.391603
0.545979
0.433922
0.446439
0.389814
0.401735
0.464916
0.521541
0.568628
0.620484
0.637770
0.577569
0.481606
0.462532
0.633597
0.667572
0.752807
0.695586
0.781417
0.882745
0.880957
0.897646
1.068711
1.069903
1.102686
1.300573
1.505613
1.668930
5.730391
24.302602
95.870495
193.708539
401.542783
619.862676
930.740833
1015.674472
1015.674472
1015.674472
1015.674472
980.219841
673.169494
430.887938
188.515782
86.487532
24.713874
11.575818
8.598566
8.808970
8.088946
8.313656
8.738637
9.258986
11.128783
14.038682
19.928813
26.402473
37.034750
46.459436
56.509972
61.810613
65.984726
65.084696
58.624744
51.776767
41.443706
##ZVALUE=360
0.450611
0.348687
0.393987
0.364780
0.450611
0.562668
0.333786
0.390410
0.333786
0.171661
0.371933
0.352859
0.261664
0.293851
0.418425
0.441670
0.506639
0.287890
0.375509
0.401735
0.458956
0.465512
0.460744
0.488758
0.339746
0.451803
0.419617
0.479817
0.541806
0.451803
0.598431
0.544786
0.506639
0.545979
0.597835
0.529885
0.598431
0.515580
0.503659
0.617504
0.535846
0.633597
0.611544
0.658631
0.553727
0.690818
0.642538
0.817776
0.706911
0.913739
0.944734
0.961423
0.839829
0.904799
1.046658
1.283884
1.319647
1.182556
1.442432
1.626611
1.700521
2.775788
9.623766
46.951771
113.917589
281.653404
464.622974
750.896931
984.107852
1015.735865
1015.735865
1015.735865
1015.735865
810.301900
539.326668
259.801745
130.433440
43.956637
17.443895
9.033680
8.461475
8.031726
7.921457
7.793903
7.906556
8.492470
9.227991
12.371540
16.112924
22.648573
30.218959
40.737987
48.629642
56.451559
59.412718
59.763789
##ZVALUE=365
0.420809
0.388622
0.406504
0.599623
0.394583
0.416636
0.446439
0.451803
0.447631
0.414848
0.412464
0.515580
0.547767
0.371933
0.546575
0.533462
0.542998
0.377893
0.501871
0.504851
0.456572
0.421405
0.548959
0.465512
0.504851
0.570416
0.536442
0.336766
0.473857
0.400543
0.758767
0.558496
0.588894
0.544786
0.481606
0.759959
0.532866
0.548959
0.711679
0.564456
0.636578
0.644922
0.697970
0.691414
0.612736
0.734925
0.779629
0.736713
0.676513
0.793934
0.914931
0.934601
0.865459
0.975728
1.116991
0.858903
1.007915
1.292825
1.228452
1.308918
1.530647
1.663566
1.729727
2.085567
4.378557
25.902987
70.555806
190.395713
351.675749
645.300746
877.780914
1015.802622
1015.802622
1015.802622
1015.802622
875.642896
636.948943
357.337594
195.717812
68.556666
25.575757
9.640455
7.872581
7.549524
7.474422
7.218719
7.108450
7.353425
7.776618
8.795857
10.437965
14.663935
19.421577
27.054548
34.322739
43.218732
##ZVALUE=370
0.320673
0.229478
0.349879
0.405908
0.240803
0.106692
0.368953
0.282526
0.167489
0.266433
0.322461
0.297427
0.218749
0.199676
0.367761
0.293851
0.325441
0.282526
0.325441
0.346899
0.332594
0.300407
0.154972
0.376701
0.231862
0.337958
0.355840
0.300407
0.300407
0.344515
0.363588
0.326633
0.417829
0.472665
0.447631
0.497699
0.441670
0.399947
0.492930
0.392795
0.365973
0.498891
0.512600
0.518560
0.466704
0.589490
0.500679
0.474453
0.565648
0.421405
0.420809
0.711679
0.641942
0.570416
0.729561
0.707507
0.754595
0.770688
0.900626
0.912547
0.837445
1.195669
1.195669
1.385808
1.423955
1.928806
2.703667
15.222430
48.833489
154.965520
284.943581
538.190603
773.958564
1015.674472
1015.674472
1015.674472
1015.674472
967.838764
720.068812
402.608514
232.253671
91.993809
39.321780
12.434721
7.509589
6.698966
6.880760
6.429553
6.645918
6.543994
6.368756
6.952882
7.423759
9.403825
12.050867
16.815662
##ZVALUE=375
0.364780
0.331998
0.273585
0.312924
0.269413
0.282526
0.344515
0.345707
0.306964
0.405908
0.400543
0.169873
0.264645
0.492930
0.315905
0.426769
0.331998
0.365973
0.407696
0.338554
0.436902
0.395775
0.304580
0.181794
0.202656
0.418425
0.360608
0.364780
0.391603
0.326633
0.445843
0.485778
0.463724
0.582933
0.342727
0.357628
0.425577
0.562668
0.469685
0.521541
0.478625
0.461936
0.479817
0.355840
0.530481
0.411868
0.475645
0.507832
0.388622
0.537634
0.567436
0.587702
0.657439
0.698566
0.850558
0.650883
0.659823
0.737906
0.732541
0.811815
0.826716
0.961423
0.988841
0.864863
1.122952
1.228452
1.396537
1.461506
1.928806
6.670952
25.412440
94.476938
201.812387
432.971716
656.520724
965.567827
1015.736461
1015.736461
1015.736461
1015.736461
824.119449
510.471463
328.080654
159.493685
80.245733
24.334788
9.866953
6.488562
6.184578
6.024837
6.056428
5.819798
5.961657
6.208420
6.319880
7.069707
##ZVALUE=380
0.170469
0.253916
0.167489
0.250936
0.206828
0.240803
0.131726
0.136495
0.149608
0.227690
0.155568
0.345707
0.247955
0.140667
0.201464
0.410676
0.321865
0.273585
0.257492
0.291467
0.153780
0.248551
0.278950
0.247955
0.341535
0.182986
0.386834
0.161529
0.165701
0.241995
0.206828
0.326633
0.291467
0.289679
0.389814
0.448823
0.310540
0.348687
0.344515
0.373721
0.251532
0.465512
0.193715
0.381470
0.488758
0.414848
0.453591
0.369549
0.521541
0.565648
0.456572
0.424981
0.535846
0.639558
0.427961
0.480413
0.515580
0.623465
0.610948
0.642538
0.632405
0.606775
0.733733
0.840425
0.857711
1.053810
1.138449
1.185536
1.434684
1.515746
1.899600
3.345609
12.347698
62.137842
145.455003
344.353914
554.546714
869.887471
1015.654802
1015.654802
1015.654802
1015.654802
1015.654802
733.670592
488.451719
238.248706
116.836429
37.001967
14.180541
6.591678
5.784631
5.297661
5.388856
5.619526
5.424619
5.478859
##ZVALUE=385
0.131726
0.126958
0.225902
0.330806
0.289679
0.176430
0.209808
0.080466
0.036955
0.199676
0.222921
0.196695
0.054836
0.084639
0.297427
0.250936
0.241995
0.421405
0.377893
0.271797
0.357628
0.398755
0.281930
0.238419
0.343919
0.185966
0.076890
0.037551
0.114441
0.221729
0.337958
0.079870
0.291467
0.211596
0.237823
0.169873
0.251532
0.231862
0.228882
0.336766
0.266433
0.350475
0.420809
0.299811
0.239611
0.445843
0.237823
0.352859
0.347495
0.227690
0.306964
0.405908
0.418425
0.365973
0.460744
0.547767
0.409484
0.410676
0.628829
0.587702
0.665784
0.603795
0.513792
0.652671
0.712872
0.743866
0.750422
0.961423
1.023412
1.287460
1.377463
1.373887
1.489520
1.756549
5.332828
32.216907
86.952448
223.140717
395.747423
674.837828
894.029737
1015.674472
1015.674472
1015.674472
1015.674472
812.701583
581.838489
317.125916
176.230669
68.657994
26.696920
7.914901
5.505681
5.172491
5.165935
4.861951
##ZVALUE=390
0.209808
0.172853
0.248551
0.196695
0.179410
0.232458
-0.015497
0.359416
0.097752
0.125766
0.310540
0.293851
0.136495
0.108480
0.277758
0.273585
0.107884
0.171661
0.286698
0.108480
0.204444
0.097752
0.090599
0.116825
0.062585
0.297427
0.159740
0.310540
0.347495
0.330806
0.243783
0.191927
0.270605
0.259876
0.308752
0.239611
0.227690
0.125766
0.292659
0.312924
0.319481
0.251532
0.379682
0.341535
0.323653
0.236630
0.410676
0.194907
0.302792
0.520945
0.461936
0.343919
0.290871
0.232458
0.546575
0.513792
0.357628
0.544786
0.530481
0.491738
0.312924
0.538826
0.607967
0.449419
0.609756
0.643730
0.581741
0.707507
0.729561
1.039505
1.201630
1.293421
1.266599
1.434684
1.425743
1.593828
2.408624
15.871525
51.972866
163.811445
310.756564
584.934950
802.029967
1015.667915
1015.667915
1015.667915
1015.667915
992.618799
807.385445
530.647635
324.629545
139.124990
61.765909
14.373660
6.104708
4.980564
##ZVALUE=395
0.264645
0.130534
0.136495
0.114441
0.181794
0.173450
0.120997
0.292659
0.249743
0.144839
0.294447
0.201464
0.195503
0.230670
0.344515
0.246763
0.347495
0.378489
0.196695
-0.007749
0.368953
0.213981
0.219941
0.228882
0.249743
0.149608
0.203848
0.170469
0.294447
0.264645
0.254512
0.237823
0.260472
0.202656
0.357628
0.319481
0.296831
0.257492
0.295639
0.300407
0.318885
0.292659
0.290871
0.213981
0.251532
0.288486
0.204444
0.313520
0.364780
0.337958
0.387430
0.350475
0.352859
0.337958
0.302792
0.494719
0.539422
0.427961
0.244975
0.448823
0.697970
0.545979
0.445843
0.552535
0.415444
0.513792
0.588894
0.855923
0.743866
0.853539
1.057982
0.978708
1.213551
1.118779
1.256466
1.320839
1.394749
1.506805
1.749992
8.716583
33.042431
118.757486
226.810575
441.745520
661.349893
959.720612
1015.674472
1015.674472
1015.674472
1015.674472
858.008862
554.609895
353.885889
161.841512
78.920722
24.752617
##ZVALUE=400
0.191927
0.060797
0.154972
0.184774
0.174642
0.153780
0.048876
0.148416
0.189543
0.132918
0.235438
0.120997
0.125766
0.451803
0.233650
0.190735
0.066757
0.176430
0.336766
0.277758
0.211596
0.210404
0.338554
0.151992
0.181794
0.308752
0.256896
0.266433
0.239611
0.236630
0.377893
0.091791
0.282526
0.160933
0.258684
0.189543
0.248551
0.157952
0.113845
0.150800
0.472665
0.407696
0.236630
0.304580
0.342727
0.386834
0.292659
0.239611
0.303984
0.478625
0.313520
0.345707
0.412464
0.301600
0.353456
0.401735
0.139475
0.325441
0.434518
0.483990
0.476837
0.446439
0.352859
0.437498
0.640750
0.432730
0.712872
0.804663
1.067519
0.805855
1.004934
0.959635
1.054406
0.967979
0.957847
1.073480
1.045465
1.020432
1.250505
1.434684
1.842976
4.698634
19.395947
82.057714
177.292824
387.461782
605.967641
898.723602
1015.674472
1015.674472
1015.674472
1015.674472
867.947936
594.511628
396.093726
202.983618
##END
