##TITLE=QP00301
##FORMAT=SPECTACLE-ASCII V-1.2
##DATA TYPE=ULTRAVIOLET SPECTRUM
##SECOND TYPE=ULTRAVIOLET SPECTRUM
##DATE=01/09/18
##TIME=16:20:10
##SPECTROMETER/DATA SYSTEM=SPECTACLE
##XUNITS=NM EM
##YUNITS=ENERGY
##YFACTOR=1
##FIRSTX=220
##LASTX=410
##NPOINTS=96
##3DDATA=Equidistant
##ZUNITS=NM EX
##FIRSTZ=210
##LASTZ=400
##ZPOINTS=39
##XYDATA=(Y..Y)
##ZVALUE=210
1.894832
2.899766
2.311468
2.063513
2.064705
2.866983
2.796650
2.340674
2.401471
2.449751
2.589822
2.365708
2.626777
2.858639
2.359748
2.853870
2.930760
2.457500
2.835989
3.382564
3.018975
3.462434
4.222989
3.798604
4.717708
3.912449
3.778934
3.993511
4.432797
4.732609
4.707575
5.218983
4.532933
5.242825
5.943775
5.296469
5.685687
5.490780
6.561875
6.214976
6.079674
6.915927
6.002784
6.800890
6.797910
7.594824
6.958842
6.952882
7.367730
7.123947
7.212758
8.151531
7.900000
7.682443
8.495450
7.778406
7.882714
8.241534
7.216930
7.969737
9.168983
9.059906
9.174943
8.383989
8.896589
9.295940
9.082556
10.680556
12.348890
13.942719
16.840696
20.218492
22.473931
25.966763
26.512742
31.899810
32.409430
31.835437
31.204820
31.293631
30.440688
25.628805
24.202466
19.931793
15.339851
12.483597
11.981726
11.803508
11.169910
8.967519
9.655952
8.008480
9.075999
8.841753
9.913445
9.619594
##ZVALUE=215
6.486773
7.186532
6.329417
5.650520
4.377961
4.719496
4.627705
5.413890
5.085468
5.012751
4.952550
5.000830
4.243851
3.262758
2.643466
3.203750
2.938509
2.971888
2.926588
3.324747
3.268719
3.495812
3.637671
4.200935
4.082918
4.009604
5.131960
4.985929
5.318522
4.993677
5.322695
5.508661
6.447434
5.456805
5.983710
5.892515
7.213950
6.057620
6.395578
6.860495
6.628633
5.954504
7.110834
7.515550
6.547570
7.451773
6.815791
7.050633
7.010698
8.444786
8.097887
7.950664
8.151531
8.170605
8.163452
7.722974
8.272529
8.050799
7.192492
8.546710
8.155704
7.930994
8.558631
9.711981
9.179711
10.647774
10.674596
11.794567
13.088584
14.284849
16.080737
19.548535
20.651817
25.184751
28.622746
32.357574
32.417774
32.692552
32.024980
32.255650
31.035542
26.641488
24.070740
23.059845
19.916892
14.751554
12.903810
11.518598
11.787415
10.428429
10.575652
9.379983
10.259748
9.230971
9.731650
10.298491
##ZVALUE=220
25.186539
26.083589
27.972460
30.209422
26.899576
22.767782
18.097758
14.485717
12.632608
12.083650
11.230707
12.641549
12.151599
12.125969
9.371638
9.301901
6.801486
5.208850
5.057454
4.894733
5.001426
5.221963
5.528927
6.504655
5.667806
6.083846
6.949902
6.412864
6.886721
7.558465
8.109808
8.021593
9.580851
8.054972
8.921623
9.610653
8.706450
10.126829
9.413958
10.494590
10.579824
11.306405
10.051727
10.996461
11.226535
10.768771
10.322928
10.568500
12.344718
12.919903
12.766719
12.103915
12.859702
12.379885
12.207627
13.033748
12.001991
12.600422
11.774898
12.655854
13.081431
13.886690
13.505816
13.183951
15.503764
15.434623
16.100407
16.492605
20.172000
23.101568
25.971532
32.971501
36.212802
41.938424
45.519471
51.203966
51.161647
55.013895
57.316422
54.284930
55.906773
50.099492
46.041608
36.014915
29.803514
26.543736
21.486878
19.050837
18.081665
14.790893
14.719963
14.719963
14.537573
14.043450
14.552474
13.604760
##ZVALUE=225
54.913759
58.349967
82.447529
103.871822
112.755895
116.690993
109.757781
86.719990
67.161918
50.923824
36.855936
29.617548
28.296709
28.644800
27.817488
26.653409
25.234818
19.681454
14.349818
11.281967
8.933544
6.932616
6.849766
7.587671
7.612705
7.474422
9.043813
8.611679
9.090900
8.867979
9.597540
9.174943
9.199977
10.314584
11.261702
11.218786
11.547804
11.847615
13.128519
11.830926
12.275577
13.537407
13.266802
11.858940
14.465451
15.680790
13.923645
15.722513
15.055537
14.482737
13.900995
15.763640
15.207529
15.437603
14.444590
15.725493
15.886426
16.072989
16.152859
15.223622
17.387867
15.521646
16.634464
16.278625
18.063784
19.367933
19.187927
20.814538
23.993850
24.211407
30.705929
34.179688
41.006804
40.806532
43.147802
47.762990
45.524836
47.895908
45.394897
43.999553
38.743615
35.533905
34.092665
29.986501
26.103854
24.312735
22.651553
20.145774
18.953681
20.055771
19.487739
17.766953
19.031763
18.348694
18.597841
17.827749
##ZVALUE=230
68.221688
71.381927
115.143657
189.116001
244.616866
311.328769
331.957936
319.832563
285.234451
235.424638
151.767731
103.138685
67.776442
52.684546
51.511526
50.210953
52.269697
53.305626
46.055913
37.768483
31.955838
22.020936
16.104579
11.260509
9.342432
9.093881
9.180903
8.756518
10.118484
9.395480
9.697676
10.930896
10.738969
10.574460
10.815859
11.485815
11.292696
12.929440
12.254715
13.056993
14.537573
12.866855
12.186766
14.030933
14.036894
13.967752
14.728904
13.990998
14.510751
15.394688
14.607906
16.088486
15.972853
15.281439
15.952587
17.424822
17.580986
16.873479
17.097592
18.850565
19.127727
19.515753
18.711686
19.987822
19.546747
22.530556
22.091866
24.274588
27.798414
29.781461
33.463836
40.599704
43.132901
44.572949
49.927831
49.537420
51.434636
50.381422
51.786900
48.345923
46.970844
43.125749
40.890574
34.641623
37.012696
32.014847
29.165745
26.643872
26.419759
24.317503
24.097562
23.819804
24.062991
23.108721
23.137927
21.299720
##ZVALUE=235
18.194914
24.404526
45.898557
117.897987
197.377801
310.084820
416.072607
527.538657
578.494668
575.213432
529.950857
439.872742
315.511823
223.693848
146.503448
105.802417
81.457496
80.797672
82.147717
87.123513
79.750419
67.918897
55.597425
37.223697
28.909445
16.455650
11.932850
9.433627
9.936690
8.921623
9.034872
8.806586
8.752942
10.528564
10.273457
10.036826
10.061860
9.978414
10.533929
10.294914
10.380745
10.447502
11.828542
12.115836
12.602806
12.085438
12.544990
11.822581
12.551546
12.185574
12.891889
13.539791
13.183951
14.444590
14.405847
13.715625
14.397502
15.098453
15.452504
16.580820
17.291903
16.733408
16.874671
17.943978
18.181801
21.043420
21.583438
23.493767
24.886727
26.715994
28.508902
32.983422
38.073659
42.336583
42.620897
45.792460
46.805739
43.128729
46.290755
43.693781
45.404434
41.163564
38.073659
36.366582
34.345984
32.054782
31.020641
30.250549
29.902458
28.971434
30.206442
28.167963
29.121637
28.416514
28.397441
27.976632
##ZVALUE=240
2.269745
2.302527
9.059906
22.857785
64.884424
119.395852
232.575536
349.414945
505.997539
610.114932
713.235736
712.176561
665.875673
541.468859
435.220003
285.765529
201.603770
131.261945
106.558800
106.296539
114.552975
120.320916
115.496516
105.682611
82.925558
67.439675
46.743751
34.394860
21.005869
14.641881
11.152625
9.277463
8.211732
8.275509
8.232594
9.306669
8.755922
8.990765
9.929538
8.453727
10.019541
9.140968
10.108948
10.195971
10.016561
10.249615
10.082722
10.691881
10.806918
11.441708
11.214614
12.247562
11.049509
11.512637
12.586713
14.316440
13.360977
13.897419
14.299750
14.996529
15.767813
16.357899
16.040802
18.057823
18.238425
20.415783
21.550655
23.305416
24.254918
26.161671
29.932857
34.735799
35.871863
39.425492
42.719841
42.983890
44.291615
45.702457
45.304894
42.928457
41.870475
41.057467
40.871501
37.677884
37.458539
35.812855
33.609867
35.617948
34.706593
33.411980
33.826828
33.868551
32.708645
33.685565
33.425689
34.648776
##ZVALUE=245
1.462698
2.034903
1.133680
2.022982
3.801584
15.524626
37.873983
101.412535
189.987421
299.924612
480.085015
613.140464
746.876001
783.465505
744.953752
652.953982
486.176014
357.595682
256.519914
153.386593
114.399791
101.831555
113.172531
131.596923
136.238933
123.971701
114.870667
91.173649
74.749589
52.552819
33.583641
21.473765
14.824867
8.036494
7.337928
6.618500
7.342696
7.136464
7.513762
7.548928
7.811785
7.836819
8.030534
8.016825
7.834435
8.364916
9.205937
8.477569
8.141994
8.763671
9.314418
8.623600
9.635687
9.719729
9.816885
10.631680
10.011792
10.721684
12.440681
11.544824
11.805892
12.974739
14.000535
16.700625
15.198588
16.836524
18.895864
19.734502
20.662546
22.154450
25.317669
28.919578
29.608607
35.121441
34.848452
37.447810
37.275553
36.261678
35.894513
34.710765
35.962462
33.877492
32.638907
33.591986
32.924414
33.450723
32.852888
33.607483
33.239722
33.035874
32.273531
32.384992
33.185482
32.826662
32.077432
31.708479
##ZVALUE=250
1.455545
1.367927
1.338720
1.316667
1.332760
1.574755
2.803802
8.342862
38.712621
83.074570
194.882751
323.636532
477.758646
679.160953
816.291571
922.299623
928.496718
837.645531
716.464520
513.542891
343.197584
228.452682
130.688548
104.078650
106.068850
121.770501
137.611628
144.544840
136.606693
123.846531
108.056664
79.327822
57.909489
35.838485
23.966432
14.061928
10.567904
8.490682
6.896853
8.274913
7.217526
7.480979
7.535815
7.632971
9.058714
8.386970
7.975698
8.025765
8.247495
9.232759
8.140802
8.809566
8.989573
9.107590
8.667707
9.577870
8.867979
9.099841
10.274649
10.732412
10.706782
11.337996
12.072921
13.291836
13.564825
14.177561
16.554594
17.390847
17.507672
19.870996
23.069978
24.925470
27.082562
28.587580
31.173825
32.952428
31.529665
31.983852
30.979514
34.572482
31.901598
29.907823
29.873848
29.663444
30.949712
31.498671
31.823516
30.241609
29.165745
31.504631
30.578971
29.971600
29.795766
29.907823
29.858947
32.605529
##ZVALUE=255
1.360774
1.207590
0.930429
1.173615
1.242757
1.543760
1.508594
1.636744
2.197623
4.531741
23.481846
60.097575
124.824643
271.047950
420.413613
666.459799
828.566551
1001.029015
1015.674472
1015.674472
922.324657
734.038949
472.515821
303.101540
162.318945
110.886693
92.825890
102.685690
128.022432
143.058896
148.569942
144.916773
135.506988
108.280778
83.982944
56.076646
37.843585
22.106767
14.131665
10.093451
7.117987
7.593632
7.073879
7.900596
8.100867
7.822514
7.944703
8.074641
7.675886
7.963777
7.362962
7.952452
8.189678
8.257627
8.119941
7.973909
8.515716
8.319616
8.318424
9.061694
9.832978
10.575652
10.038614
10.624528
11.514425
11.805892
13.951659
14.372468
16.301870
18.271804
19.976497
21.585822
23.630857
26.362538
26.143789
27.996898
26.709437
28.339624
28.152466
28.454661
27.587414
28.406978
26.761889
27.136803
28.433800
27.953982
27.474761
28.507710
28.398633
28.518438
29.198527
28.198957
28.609633
28.466582
28.397441
28.515458
##ZVALUE=260
1.144409
0.857711
1.083612
1.115799
1.322627
1.421571
1.216531
1.439452
1.401901
1.758933
1.656413
3.081560
9.810925
41.966438
93.801618
222.506523
365.568995
613.533854
813.319683
1015.674472
1015.674472
1015.674472
1015.674472
895.384550
612.895489
424.079895
248.512626
154.196620
91.233850
86.774826
108.777881
129.243731
144.942999
157.166719
153.994560
134.291649
116.210580
85.496902
62.495470
38.865805
26.656985
15.536547
11.299849
8.457899
8.169413
7.738471
7.616878
7.630587
8.113980
7.330775
8.113980
8.006692
7.457733
7.708669
7.451773
7.533431
8.513927
8.384585
8.455515
8.855462
9.081960
9.866953
9.273887
11.118650
10.414720
11.741519
12.422800
13.580918
13.905764
16.138554
17.398596
18.818974
20.684600
21.649599
22.544861
23.167729
24.693608
25.136471
24.901628
24.662614
24.145842
25.188923
25.909543
24.946928
25.512576
25.579929
26.342869
25.224686
25.822520
26.259422
25.280714
26.365519
25.192499
26.948452
26.638508
27.013421
##ZVALUE=265
0.899434
0.960827
1.324415
1.185536
1.038909
1.240969
1.094937
1.206994
1.249909
1.340508
1.511574
1.514554
1.668930
1.994967
4.558563
24.325848
64.366460
168.763995
297.695398
567.574501
799.423456
1000.650525
1015.671492
1015.671492
1015.671492
1001.843810
761.572719
524.448752
287.202001
173.509717
94.514489
75.515509
82.981586
115.997791
135.701895
154.623985
160.476565
153.440833
138.670802
109.088421
87.444782
59.697628
40.607452
24.241805
15.586615
10.195971
8.762479
8.029938
7.567406
7.582903
7.764697
8.334517
7.950664
7.894635
7.683635
7.970929
7.763505
8.014441
8.732677
8.329749
8.678436
9.076595
8.929968
9.367466
9.958744
11.139512
11.774898
12.457967
13.187528
14.570951
16.587973
18.661618
19.050837
20.454526
20.242929
22.499561
21.811724
23.467541
23.218989
23.224950
22.652745
23.248792
22.437572
23.436546
23.613572
24.670959
24.653673
24.973750
24.502873
23.992658
25.223494
24.649501
24.737716
25.141835
25.246739
25.974512
##ZVALUE=270
0.912547
1.071692
0.816584
0.813603
0.850558
1.241565
0.948906
1.223683
1.129508
0.996590
1.197457
1.425743
1.673698
1.480579
1.584888
1.920462
3.138781
10.408759
31.720996
112.018585
233.423710
491.529703
733.264685
1015.674472
1015.674472
1015.674472
1015.674472
1015.674472
1003.068686
713.861585
489.473939
246.973634
138.720870
73.639750
66.285729
89.315772
109.894872
139.926672
156.126618
162.574649
156.316757
136.586428
116.448998
84.377527
63.428879
38.981438
27.272701
16.198754
11.911988
8.931756
8.732677
8.438826
8.077621
7.731915
8.785725
9.020567
9.029508
8.955598
8.746982
8.476973
9.518862
9.586811
9.195805
10.255575
10.658503
10.850430
11.823773
12.674928
13.822913
14.915466
15.676618
17.470717
19.378662
19.939542
21.692514
22.015572
22.435784
22.674799
21.936893
21.728873
21.102428
21.640658
21.395683
22.742748
22.694468
22.825599
23.093820
23.190975
22.948980
23.575425
23.722649
23.870468
24.228692
23.551583
23.640990
23.937821
##ZVALUE=275
0.942945
0.795722
0.779629
0.953674
0.874996
0.891685
0.922680
0.698566
1.199841
0.999570
0.969768
0.959635
1.230836
1.183748
1.237988
1.635551
1.504421
1.641512
1.975894
5.252957
20.265579
63.578486
193.981528
372.133851
707.084537
962.878466
1015.675664
1015.675664
1015.675664
1015.675664
1015.675664
975.592732
701.165795
369.879603
210.440755
92.699528
59.592724
64.601898
81.952810
112.977624
134.359002
154.131651
159.060955
153.562427
139.004588
112.837553
89.259744
62.608719
44.969916
26.293993
18.102527
11.510849
10.016561
9.312630
8.995533
8.749962
8.960962
8.975863
9.308457
9.518862
9.785891
9.896755
10.415912
10.031462
10.914803
11.341572
11.942983
12.734532
13.879538
14.625788
16.858578
17.124414
19.026995
19.187927
19.707680
21.093488
21.037459
21.780729
21.521449
21.287799
20.775795
21.416545
21.216869
21.411777
21.747947
22.642612
21.129847
22.153854
21.791458
22.691488
23.078918
22.700429
22.887588
22.196770
23.368597
22.216439
##ZVALUE=280
0.752807
0.860691
0.774860
0.949502
0.726581
0.700951
0.859499
0.841618
0.682473
0.790954
0.947714
0.989437
0.957847
1.185536
1.241565
1.392961
1.300573
1.550913
1.585484
1.836419
1.973510
2.741814
14.565587
47.763586
151.854753
296.936631
562.018752
837.827921
1015.674472
1015.674472
1015.674472
1015.674472
1015.674472
1015.675068
888.328552
517.138839
310.355425
134.950876
69.240928
47.714710
58.996677
85.358620
108.760595
133.847594
149.888992
156.638622
152.504444
133.743882
114.924908
85.198879
61.722994
40.579438
27.581453
17.220974
12.707710
9.588599
9.321570
9.219646
9.189844
9.460449
9.873509
10.575652
9.853840
10.594726
11.438727
11.879802
12.297630
12.860894
13.448596
14.702678
15.776753
16.542673
17.461777
19.269586
19.810796
19.340515
19.797683
20.968914
20.404458
20.627975
20.723939
21.547675
21.012425
20.775795
21.078587
22.075772
21.322966
21.863580
21.398664
21.263957
22.169948
22.003651
21.806955
22.357702
21.945834
21.659732
##ZVALUE=285
0.636578
0.733733
0.745654
0.840425
0.627637
0.781417
0.720620
0.897646
0.819564
0.762939
0.924468
0.887513
0.838637
1.100898
0.915527
1.105666
1.190901
1.310706
1.339912
1.328588
1.519918
1.467466
1.817942
2.155900
7.003546
24.869442
84.503889
179.933906
405.182838
664.621592
957.144499
1015.674472
1015.674472
1015.674472
1015.674472
1015.674472
1002.287865
627.216697
391.795635
179.610848
92.014670
41.226745
38.438439
57.159662
76.777935
107.404590
125.706792
145.057440
152.732730
148.495436
133.613944
109.524727
90.893507
62.579513
44.526458
26.588440
18.647909
12.971759
10.674000
9.656549
9.740591
10.282993
11.012554
11.133552
11.421442
12.515783
12.784600
13.293624
14.431477
14.644861
15.052557
16.952753
17.716885
18.647909
19.113421
19.310713
20.041466
19.759536
20.225644
20.576715
21.141768
21.267533
20.830631
21.244884
21.097660
20.657778
21.927953
22.244453
21.385550
21.446943
22.470951
21.414757
21.165609
21.850467
21.621585
21.362901
##ZVALUE=290
0.544786
0.556707
0.505447
0.841618
0.758767
0.769496
0.686646
0.749826
0.706911
0.682473
0.684857
0.817776
0.741482
0.859499
0.917912
0.797510
0.913739
0.871420
1.106858
1.211762
1.198649
1.532435
1.285672
1.470447
2.068877
1.993775
2.911687
9.267926
47.647953
116.658807
231.845379
505.934954
801.155567
1015.674472
1015.674472
1015.674472
1015.674472
1015.674472
1015.674472
818.701386
525.668859
252.580643
128.351450
49.359798
28.909445
35.773516
49.952865
72.623491
96.266866
121.548772
136.413574
146.859884
142.725706
130.670667
112.105608
82.821846
62.827468
41.764975
29.299855
18.943548
14.548898
11.731982
11.128783
11.240840
11.335611
12.030602
12.348890
13.263822
14.003515
15.182495
15.562773
16.921759
17.814636
18.793941
19.575953
19.572973
20.448565
20.248890
20.807981
20.779967
20.704865
20.887852
21.282434
21.634698
21.210909
22.053719
21.833777
21.563768
21.911860
22.073984
21.348596
21.995902
21.343827
20.953417
20.716786
21.382570
##ZVALUE=295
0.671744
0.610948
0.560880
0.479817
0.723600
0.532866
0.613928
0.725985
0.727773
0.775456
0.876784
0.781417
0.825524
0.733733
0.845790
0.909567
0.964999
0.889897
0.980496
0.926852
1.081824
1.184940
1.326799
1.280904
1.520514
1.878738
1.978874
1.966953
2.629757
4.522800
16.315579
72.456002
172.650814
423.333645
701.014996
1015.666723
1015.666723
1015.666723
1015.666723
1015.666723
1015.666723
1015.666723
767.655969
389.500856
201.046467
66.580772
31.856894
23.441911
29.909611
48.261881
66.704750
93.338490
111.230612
130.638480
139.760971
137.046576
126.587749
104.737878
84.857941
61.101913
44.578910
28.515458
20.663738
15.249848
13.711452
13.027787
12.995601
13.757944
14.596581
15.721917
16.611814
17.563701
18.033981
19.072890
19.545555
19.826889
20.053983
20.606518
20.712614
21.005869
21.064878
20.972490
21.635890
21.537542
21.711588
22.318959
22.170544
21.687746
22.272468
21.998882
21.381974
21.806955
21.673441
21.342635
20.999908
21.713972
##ZVALUE=300
0.654459
0.695586
0.618696
0.588894
0.646710
0.506639
0.689626
0.681877
0.693798
0.712872
0.570416
0.597835
0.657439
0.701547
0.616908
0.714660
0.924468
0.735521
0.833869
0.927448
0.917912
1.139641
1.028776
1.114607
1.299977
1.482964
1.546741
1.515746
1.768470
1.861453
2.054572
2.640486
7.424951
44.774413
117.064714
306.278467
533.835888
939.159989
1015.674472
1015.674472
1015.674472
1015.674472
1015.674472
1015.674472
966.113806
538.742542
311.543941
129.238963
56.946874
22.300482
19.714832
29.406548
41.844845
62.391758
81.973672
107.924938
122.354627
132.468939
133.745670
120.686889
105.022788
82.120895
64.084530
43.969750
32.532811
21.919608
17.690659
15.796423
14.693737
15.624762
16.282797
17.482638
17.962456
18.584728
20.057559
20.348430
19.839406
21.222830
21.213889
21.107793
21.983981
22.351742
21.836758
21.734834
22.789836
22.675991
22.771955
22.883415
22.251606
22.627711
22.418499
22.102594
22.192597
21.905899
22.136569
21.990538
##ZVALUE=305
0.441670
0.434518
0.543594
0.489950
0.540614
0.576973
0.483990
0.499487
0.518560
0.258684
0.392795
0.581741
0.491738
0.472665
0.585914
0.729561
0.697970
0.559688
0.631809
0.910759
0.790954
0.775456
0.825524
0.814795
1.085997
1.073480
0.973940
1.086593
1.322627
1.389980
1.415610
1.827478
2.004504
2.118945
3.960729
26.128888
79.123974
232.183933
430.184007
805.896521
1015.601754
1015.601754
1015.601754
1015.601754
1015.601754
1015.601754
1015.601754
673.514605
413.669944
176.621675
82.390904
26.455522
15.971661
19.112825
26.320815
43.201447
58.146715
81.885457
100.081563
120.210648
127.479434
126.381516
118.859410
100.896955
83.418489
60.866475
45.801997
31.774640
24.864674
18.997788
17.798543
17.604828
18.030405
19.185543
18.851757
19.992590
20.424724
20.839572
21.247864
21.714568
21.865964
22.538900
23.123622
23.182631
22.938848
23.341775
23.023486
23.200512
23.609996
22.801757
22.577643
22.828579
22.181869
21.599531
22.698641
21.958947
##ZVALUE=310
0.397563
0.512600
0.559688
0.444651
0.546575
0.454783
0.533462
0.449419
0.563860
0.471473
0.501871
0.560880
0.633597
0.525713
0.743866
0.768900
0.705719
0.646710
0.658631
0.754595
0.731945
0.585914
0.749826
0.844598
0.907779
1.013875
1.102686
1.150966
1.004934
1.130700
1.374483
1.382828
1.469851
1.623631
1.681447
2.037883
2.314448
11.090636
38.829446
139.927864
284.866691
603.289604
931.052566
1015.674472
1015.674472
1015.674472
1015.674472
1015.674472
1015.674472
882.815719
585.412979
288.794637
152.935982
50.112605
20.333529
13.676882
16.836524
25.160909
35.867691
55.385828
71.350932
95.893741
109.455585
121.005774
121.804476
112.785697
101.347566
82.163811
64.000487
45.754910
35.770535
27.054548
23.114681
20.693541
19.742846
20.619631
21.247864
20.815730
21.336675
22.166967
22.749901
22.710562
22.984743
23.443699
22.398829
23.700595
23.667812
24.241805
24.243593
23.480654
23.524761
23.061633
22.877455
22.896528
22.435784
22.683740
##ZVALUE=315
0.445843
0.556707
0.469685
0.451803
0.458956
0.528693
0.631809
0.459552
0.432730
0.495911
0.370741
0.556707
0.587702
0.636578
0.646710
0.588894
0.644922
0.683665
0.801682
0.622869
0.559688
0.425577
0.743866
0.772476
0.859499
0.769496
0.788569
0.895858
1.129508
0.957847
1.064539
1.115799
1.098514
1.273751
1.248717
1.749992
1.534820
2.000928
2.173781
5.390644
21.149516
92.495680
206.094980
471.060872
771.558881
1015.674472
1015.674472
1015.674472
1015.674472
1015.674472
1015.674472
1008.403897
745.673776
389.034748
208.958983
74.220896
29.231906
13.404489
12.335777
16.731620
22.985935
35.708547
49.326420
71.031451
87.187886
107.897520
115.084648
117.341876
111.150742
95.820427
82.232952
62.821507
50.046444
35.840869
29.131770
24.567842
22.610426
21.799803
21.809936
21.999478
22.503734
23.002625
24.193525
23.566484
23.974776
24.321675
24.466515
24.520755
24.571419
24.079680
24.120808
23.405552
23.661852
23.980737
23.446679
23.086667
##ZVALUE=320
0.414848
0.394583
0.391603
0.576973
0.465512
0.326633
0.420809
0.477433
0.355840
0.381470
0.525713
0.644922
0.527501
0.549555
0.662804
0.609756
0.576973
0.676513
0.556707
0.593662
0.644922
0.654459
0.732541
0.688434
0.746846
0.791550
0.828505
0.862479
0.859499
0.831485
0.920892
1.019835
1.179576
1.071692
1.260638
1.234412
1.389980
1.556873
1.561642
1.943707
2.208948
2.740622
9.592772
57.455897
142.469406
368.216634
617.159009
992.994905
1015.675664
1015.675664
1015.675664
1015.675664
1015.675664
1015.675664
944.422483
529.521704
299.464464
120.540857
53.828955
18.038750
12.295842
12.606978
15.424490
22.145510
31.140447
48.519969
63.854456
83.822608
98.260641
110.896826
114.480853
107.362866
98.693967
79.938769
65.245628
47.910810
38.254857
30.127764
25.848746
23.649931
23.197532
23.030639
23.701787
23.566484
23.753643
24.401546
24.556518
24.400949
24.658442
24.047494
24.322867
23.721457
23.731589
23.787618
23.681521
23.325682
##ZVALUE=325
0.248551
0.489950
0.379682
0.274777
0.531673
0.452995
0.389814
0.599623
0.503659
0.489950
0.549555
0.513792
0.527501
0.275970
0.468493
0.482798
0.554919
0.428557
0.576973
0.594854
0.563860
0.452995
0.661612
0.673532
0.727773
0.676513
0.626445
0.713468
0.850558
0.972748
0.772476
0.883937
0.842810
1.103878
0.966787
1.042485
1.211762
1.283884
1.383424
1.390576
1.648664
1.935959
2.156496
2.462864
4.967451
34.477711
94.888806
257.602930
478.016734
921.097994
1015.674472
1015.674472
1015.674472
1015.674472
1015.674472
1015.674472
1011.542678
648.643970
391.438603
169.537663
81.616640
25.202632
13.440847
12.135506
12.800694
16.561747
22.249818
33.901930
46.766996
67.237616
81.107616
97.320676
104.976892
107.786655
103.743672
89.410543
77.106953
60.198903
48.231483
36.684871
31.356812
26.319623
25.125742
24.568439
24.207830
24.090409
24.202466
24.331808
23.962855
24.573803
23.727417
24.157763
23.695827
23.721457
23.492575
23.424625
##ZVALUE=330
0.281930
0.382662
0.401735
0.439882
0.481606
0.376701
0.506639
0.489950
0.433922
0.521541
0.501871
0.473857
0.281930
0.575781
0.514984
0.446439
0.489950
0.522733
0.602603
0.505447
0.372529
0.558496
0.547767
0.586510
0.561476
0.643730
0.523925
0.684857
0.572801
0.634789
0.720620
0.834465
0.746846
0.946522
0.916719
0.821948
0.803471
1.104474
1.088977
1.078844
1.239777
1.269579
1.669526
1.813769
1.858473
2.199411
2.796650
15.198588
53.921938
182.980895
354.094505
713.987947
1003.446579
1015.676856
1015.676856
1015.676856
1015.676856
1015.676856
1015.676856
770.278573
491.400957
227.578878
114.093423
40.032864
17.675757
11.924505
12.077689
13.183951
16.059875
23.273826
32.235980
47.279000
61.174631
80.722570
91.982484
102.388859
103.566647
97.791553
89.195967
72.724819
60.868859
46.390891
38.286448
30.919909
27.092695
25.184751
24.496913
23.440719
23.837686
23.465753
23.550987
22.954941
23.268461
23.178458
23.161769
23.276806
##ZVALUE=335
0.402927
0.439882
0.497699
0.474453
0.466704
0.415444
0.312924
0.228882
0.289679
0.183582
0.441670
0.452995
0.330806
0.337958
0.434518
0.416636
0.409484
0.575781
0.537634
0.559688
0.564456
0.641942
0.411868
0.475645
0.672936
0.586510
0.695586
0.651479
0.579953
0.676513
0.726581
0.763535
0.708699
0.793934
0.813603
0.889897
0.960827
0.839829
0.920892
0.988841
1.104474
1.161695
1.269579
1.193881
1.360774
1.575947
1.710653
2.008677
2.186894
7.135868
29.752851
120.886564
260.432959
575.132966
900.473595
1015.675664
1015.675664
1015.675664
1015.675664
1015.675664
1015.675664
942.777991
635.472536
332.992673
175.263882
58.822632
24.115443
12.762547
12.478828
13.128519
14.371872
18.134713
23.227930
33.697486
44.834614
61.583519
74.926615
88.580847
95.855594
98.964572
93.838573
82.057714
71.876645
58.486462
48.985481
38.059950
31.370521
27.251840
24.770498
23.317933
22.887588
22.706985
22.280812
22.205710
22.190809
22.062659
##ZVALUE=340
0.368953
0.509620
0.288486
0.382662
0.475645
0.455976
0.460744
0.342727
0.484586
0.424981
0.349879
0.464916
0.434518
0.406504
0.386834
0.435710
0.365973
0.520945
0.523925
0.462532
0.441670
0.513792
0.449419
0.462532
0.637770
0.765920
0.651479
0.702739
0.676513
0.662804
0.917912
0.823736
0.645518
0.767708
0.759959
0.765920
0.863671
0.837445
0.836849
0.935793
0.920892
1.070499
1.056790
1.154542
1.086593
1.361966
1.435876
1.619458
1.821518
1.864433
2.152920
3.487468
12.988448
69.558024
177.017450
436.806679
734.700561
1015.710831
1015.710831
1015.710831
1015.710831
1015.710831
1015.710831
1015.710831
793.594718
423.124433
237.861872
95.105767
38.899779
14.539957
13.060570
13.239980
13.776422
15.573502
18.416643
24.752617
31.442642
45.256615
56.831837
73.828697
84.204674
92.378855
93.418956
89.145899
81.945658
68.958998
57.625771
46.069622
38.125515
30.837655
27.071834
23.078918
22.748709
21.746755
21.594763
20.860434
##ZVALUE=345
0.454783
0.474453
0.482798
0.649691
0.291467
0.443459
0.548959
0.478625
0.365973
0.450611
0.536442
0.472665
0.571609
0.349879
0.546575
0.427961
0.590682
0.598431
0.663996
0.656843
0.585914
0.590682
0.600815
0.722408
0.484586
0.706911
0.692606
0.631809
0.696778
0.734925
0.694990
0.650883
0.558496
0.845790
0.871420
0.811815
0.636578
0.850558
1.034737
0.906587
0.948906
1.010895
1.171827
1.000762
1.151562
1.130700
1.333952
1.331568
1.421571
1.776814
1.889467
1.947880
2.197623
2.521873
5.293489
36.129951
106.518865
301.085711
550.647974
982.676744
1015.775800
1015.775800
1015.775800
1015.775800
1015.775800
1015.775800
1015.775800
649.979711
372.403860
150.671601
66.158772
21.811724
14.104843
13.518929
13.895631
14.299750
15.244484
18.064976
22.413731
31.952858
41.409731
56.687593
66.318512
77.830553
84.133744
86.836815
84.759593
76.406002
67.486763
55.159926
46.114922
35.113692
29.879808
24.343729
22.157431
21.299720
##ZVALUE=350
0.314713
0.401735
0.216961
0.238419
0.373721
0.381470
0.315905
0.300407
0.481606
0.334978
0.352859
0.301600
0.398755
0.334978
0.593662
0.447631
0.396967
0.501871
0.389814
0.419617
0.479817
0.405908
0.616908
0.568628
0.496507
0.513792
0.654459
0.452995
0.664592
0.416636
0.571609
0.521541
0.546575
0.666976
0.550747
0.612736
0.672936
0.507832
0.670552
0.737906
0.790954
0.755787
0.857711
0.982881
0.919700
0.895858
0.940561
1.086593
1.207590
1.236796
1.209974
1.302958
1.612902
1.692772
1.908541
2.414584
3.172755
17.532706
59.377551
210.113525
416.285992
854.383707
1015.674472
1015.674472
1015.674472
1015.674472
1015.674472
1015.674472
1015.674472
689.930916
414.266586
186.623931
84.017515
24.576783
13.995767
12.644529
12.405515
12.940764
13.406873
15.197992
17.498732
22.302866
28.243661
37.482977
47.221780
59.828758
68.711638
76.330900
79.231858
77.608824
72.171688
61.475635
53.176880
41.517615
34.645796
27.588606
##ZVALUE=355
0.436902
0.296831
0.279546
0.376701
0.489950
0.344515
0.301600
0.472665
0.447631
0.407696
0.395775
0.472665
0.543594
0.237823
0.356436
0.477433
0.475645
0.474453
0.528693
0.581741
0.527501
0.516772
0.404716
0.449419
0.534654
0.495911
0.532866
0.513792
0.671744
0.563860
0.626445
0.652671
0.671744
0.697970
0.631809
0.640750
0.593662
0.715852
0.618696
0.689626
0.730753
0.746846
0.744462
0.864863
0.934601
0.985861
0.997782
0.976920
0.993609
1.201630
1.022816
1.233816
1.335740
1.490712
1.728535
1.791716
1.939535
2.264977
2.853870
8.854866
32.876730
135.082006
282.723904
609.830618
964.594483
1015.675664
1015.675664
1015.675664
1015.675664
1015.675664
1015.675664
920.214653
570.812821
246.692896
116.690993
34.622550
15.599728
12.253523
11.858940
12.442470
12.277961
13.089776
14.095902
16.240478
19.483566
25.821924
32.643676
43.432713
51.695704
61.484575
68.259835
72.103739
70.808530
64.948797
57.998896
48.282743
##ZVALUE=360
0.331998
0.529885
0.485778
0.295639
0.372529
0.432730
0.607967
0.265837
0.540614
0.493526
0.444651
0.482798
0.354648
0.354648
0.451803
0.610948
0.505447
0.539422
0.422597
0.421405
0.594854
0.463724
0.324845
0.441670
0.545979
0.638962
0.500679
0.505447
0.761747
0.627637
0.622869
0.590682
0.720620
0.695586
0.717640
0.699759
0.735521
0.653863
0.725985
0.798702
0.888705
0.757575
0.953674
0.985861
0.889897
1.041889
1.116991
0.990629
1.035929
1.048446
1.277924
1.180768
1.354814
1.308918
1.502633
1.539588
1.538992
1.851916
1.941919
2.501607
2.807975
4.489422
14.484525
68.277717
171.746612
443.453789
777.742863
1015.674472
1015.674472
1015.674472
1015.674472
1015.674472
1015.674472
1015.674472
735.304952
335.348845
168.197751
58.847666
23.819804
12.028813
11.334419
11.568666
11.376739
11.840463
12.278557
13.085604
14.167428
17.418861
21.097660
27.502775
34.896731
45.976639
52.556992
61.243773
64.805746
65.008998
##ZVALUE=365
0.066757
0.124574
0.204444
0.150800
0.095963
0.165701
0.165701
0.116825
0.221729
0.149608
0.262856
0.244975
-0.005960
0.112653
0.086427
0.134706
0.216961
0.109673
0.186563
0.290871
0.418425
0.057817
0.205636
0.324845
0.274777
0.348687
0.303984
0.469685
0.504851
0.191927
0.354648
0.454783
0.640750
0.514984
0.407696
0.305772
0.499487
0.337958
0.293851
0.638962
0.587702
0.587702
0.485778
0.590682
0.573993
0.723600
0.575781
0.545979
0.615716
0.668764
0.774860
0.770688
0.874996
0.985861
0.989437
1.176000
1.166463
1.272559
1.328588
1.513958
1.728535
2.145767
2.368689
2.736449
5.832911
37.034750
102.859735
279.434919
524.358749
977.267623
1015.426517
1015.426517
1015.426517
1015.426517
1015.426517
1015.426517
875.359774
454.668999
236.867666
82.325935
32.043457
11.877418
10.057688
10.165572
9.987950
10.057688
10.022521
10.734797
11.252761
12.184978
14.079809
18.469691
23.021698
31.711459
38.586855
46.861768
##ZVALUE=370
0.253916
0.361800
0.267625
0.347495
0.336766
0.429749
0.324845
0.400543
0.151992
0.375509
0.207424
0.220537
0.240803
0.210404
0.361800
0.247955
0.235438
0.258684
0.357628
0.330806
0.413656
0.347495
0.238419
0.514984
0.402927
0.462532
0.350475
0.326633
0.372529
0.406504
0.285506
0.298619
0.466704
0.456572
0.457764
0.495911
0.585914
0.446439
0.578761
0.450611
0.384450
0.615716
0.687838
0.564456
0.593662
0.675917
0.671744
0.603795
0.712872
0.833869
0.889897
0.644922
0.615716
0.874996
0.830889
1.031756
0.862479
1.085997
1.026988
0.974536
1.373887
1.458526
1.700521
1.718998
1.972914
2.469420
3.393888
18.720627
64.875484
213.095546
404.404998
773.875713
1015.591621
1015.591621
1015.591621
1015.591621
1015.591621
1015.591621
972.601771
526.777506
283.593535
108.609796
48.038960
17.627478
10.492802
9.227991
9.364486
9.241700
9.404421
9.505749
9.714961
10.180473
11.085868
13.304949
15.471578
21.006465
##ZVALUE=375
0.317693
0.303984
0.326633
0.154972
0.165701
0.243783
0.292659
0.347495
0.342727
0.300407
0.268817
0.280738
0.396967
0.256896
0.222921
0.247955
0.459552
0.263453
0.345707
0.265837
0.323653
0.327826
0.436902
0.393987
0.347495
0.333786
0.453591
0.443459
0.382662
0.458956
0.452995
0.556707
0.382662
0.548959
0.430942
0.443459
0.526905
0.514984
0.596642
0.261664
0.432730
0.423789
0.527501
0.612736
0.618696
0.537634
0.550747
0.563860
0.628829
0.644922
0.641942
0.558496
0.562668
0.764728
0.777841
0.736713
0.868440
0.791550
0.876784
0.996590
1.066923
0.998974
1.119971
1.266599
1.435876
1.702905
1.812577
2.094507
2.381802
8.766651
33.983588
122.986436
265.972018
599.112511
927.473903
1015.674472
1015.674472
1015.674472
1015.674472
1015.674472
1015.674472
656.397939
398.108959
188.385844
91.370940
28.981566
12.819767
8.784533
8.402467
8.295774
8.587837
8.787513
8.761883
8.667707
9.129643
10.230541
##ZVALUE=380
0.262856
0.424981
0.196695
0.331998
0.329614
0.375509
0.186563
0.177622
0.195503
0.347495
0.382662
0.251532
0.241995
0.317693
0.434518
0.112653
0.326633
0.310540
0.311732
0.290871
0.356436
0.301600
0.320673
0.361800
0.240803
0.274777
0.392795
0.330806
0.292659
0.368953
0.436902
0.337958
0.324845
0.257492
0.445843
0.538826
0.559688
0.375509
0.504851
0.473857
0.446439
0.405908
0.386834
0.515580
0.477433
0.537634
0.460744
0.540614
0.578761
0.583529
0.785589
0.716448
0.674725
0.684857
0.659823
0.759959
0.693798
0.671744
0.739694
0.744462
0.713468
0.869632
0.718832
1.021624
1.154542
1.244545
1.183748
1.443624
1.679659
2.120733
2.571940
4.369617
18.642545
92.557669
213.996768
496.795774
797.352791
1015.674472
1015.674472
1015.674472
1015.674472
1015.674472
1015.675068
867.624879
566.828847
266.395807
129.702687
42.840838
17.632842
8.739829
7.894635
8.047819
7.820725
8.066893
7.844567
8.165836
##ZVALUE=385
0.325441
0.310540
0.260472
0.379682
0.249743
0.267625
0.192523
0.309944
0.282526
0.249743
0.111461
0.137687
0.279546
0.380874
0.320673
0.257492
0.209808
0.278950
0.351667
0.037551
0.404716
0.305772
0.272989
0.257492
0.265837
0.391603
0.313520
0.281930
0.297427
0.281930
0.310540
0.339746
0.362992
0.309944
0.294447
0.400543
0.430942
0.401735
0.384450
0.444651
0.304580
0.377893
0.342727
0.413656
0.318885
0.470877
0.447631
0.450611
0.526905
0.425577
0.497699
0.496507
0.536442
0.744462
0.507832
0.610948
0.779629
0.617504
0.901818
0.881553
0.752807
0.790954
0.814795
0.838637
0.806451
1.052618
1.212955
1.376867
1.491904
1.547933
1.923442
1.857877
2.350807
2.697706
11.056662
43.269396
158.130527
329.666734
681.395531
987.629890
1015.674472
1015.674472
1015.674472
1015.674472
1015.674472
1015.674472
702.863932
431.467891
184.227824
85.678697
27.113557
10.887980
7.183552
7.206798
7.073879
7.067919
##ZVALUE=390
0.326633
0.187755
0.267625
0.187755
0.263453
0.430942
0.162721
0.357628
0.168681
0.298619
0.237823
0.179410
0.337958
0.300407
0.100732
0.310540
0.154972
0.140667
0.253916
0.283718
0.278950
0.249743
0.178814
0.306964
0.364780
0.326633
0.259876
0.347495
0.256896
0.377893
0.226498
0.228882
0.198483
0.302792
0.303984
0.329614
0.467896
0.377893
0.511408
0.337958
0.371933
0.399947
0.345707
0.358820
0.425577
0.598431
0.541806
0.353456
0.467896
0.514984
0.599623
0.545979
0.573993
0.494719
0.573993
0.615716
0.521541
0.742674
0.638962
0.564456
0.481606
0.752807
0.825524
0.770688
1.035929
0.761747
0.974536
1.189709
1.239777
1.365542
1.549721
1.752973
1.836419
1.964569
2.116561
2.579689
4.309416
28.567910
91.196895
277.367830
513.896942
947.242975
1015.674472
1015.674472
1015.674472
1015.674472
1015.674472
1015.674472
968.157649
573.870540
321.775675
123.444796
54.469705
16.602874
8.233786
6.933808
##ZVALUE=395
0.139475
0.206828
0.153780
0.123978
0.117421
0.191927
0.226498
0.376701
0.398755
0.223517
0.247955
0.089407
0.373721
0.292659
0.239611
0.151992
0.072718
0.339746
0.220537
0.511408
0.295639
0.193715
0.363588
0.269413
0.161529
0.350475
0.333786
0.287890
0.312924
0.385642
0.348687
0.347495
0.190735
0.468493
0.368953
0.328422
0.297427
0.267625
0.337958
0.382662
0.421405
0.452995
0.542998
0.594854
0.436902
0.592470
0.568628
0.561476
0.581741
0.520945
0.565648
0.379682
0.439882
0.513792
0.595450
0.562668
0.480413
0.463724
0.722408
0.636578
0.630617
0.708699
0.720620
0.712872
0.794530
0.967979
0.963807
1.209974
1.220703
1.231432
1.477599
1.726747
1.541972
1.614690
1.562834
1.800656
1.847744
1.994967
2.828836
16.564727
61.940551
212.911367
401.827693
753.758550
1015.674472
1015.674472
1015.674472
1015.674472
1015.674472
1015.674472
1015.674472
727.072954
451.776981
193.724632
89.639425
26.661754
##ZVALUE=400
0.317693
0.370741
0.152588
0.261664
0.167489
0.380874
0.282526
0.133514
0.282526
0.299811
0.331998
0.215769
0.166893
0.282526
0.298619
0.239611
0.225902
0.264645
0.227690
0.407696
0.225902
0.288486
0.249743
0.216961
0.321865
0.372529
0.307560
0.356436
0.370741
0.148416
0.343919
0.348687
0.415444
0.281930
0.356436
0.272989
0.349879
0.374913
0.391603
0.440478
0.507832
0.351667
0.539422
0.545979
0.451803
0.397563
0.283718
0.355840
0.429749
0.529885
0.596642
0.511408
0.477433
0.534654
0.537634
0.486970
0.652671
0.503659
0.751615
0.597835
0.751615
0.643730
0.694990
0.727773
0.735521
0.783801
0.943542
1.029968
1.239777
1.374483
1.463890
1.533628
1.569986
1.438856
1.355410
1.283884
1.424551
1.732707
1.975894
2.044439
2.450943
5.915761
34.570694
101.563931
284.162760
521.238446
960.724950
1015.674472
1015.674472
1015.674472
1015.674472
1015.674472
1015.674472
921.612978
520.314574
308.818817
##END
