##TITLE=FQP00602
##FORMAT=SPECTACLE-ASCII V-1.2
##DATA TYPE=ULTRAVIOLET SPECTRUM
##SECOND TYPE=ULTRAVIOLET SPECTRUM
##DATE=01/24/18
##TIME=17:51:30
##SPECTROMETER/DATA SYSTEM=SPECTACLE
##XUNITS=NM EM
##YUNITS=ENERGY
##YFACTOR=1
##FIRSTX=220
##LASTX=410
##NPOINTS=96
##3DDATA=Equidistant
##ZUNITS=NM EX
##FIRSTZ=210
##LASTZ=400
##ZPOINTS=39
##XYDATA=(Y..Y)
##ZVALUE=210
2.043843
1.639724
2.293587
1.545548
1.712441
1.811981
2.127886
1.708865
1.767874
2.040863
1.825690
2.026558
1.837611
2.015829
1.837611
1.621842
2.196431
2.062917
2.350807
2.441406
2.399683
3.033876
2.847910
3.075600
3.493428
2.997518
3.069639
3.987551
3.748536
4.177690
4.739761
4.872680
5.082488
4.948974
5.505681
4.701614
5.072951
5.473495
4.858971
5.441904
4.754663
5.045533
5.557537
5.132556
4.848838
5.701780
5.229712
5.524755
4.526973
4.946589
5.642772
4.628897
5.509853
4.391670
5.115867
4.535913
4.762411
4.339814
4.794598
4.133582
4.440546
4.747510
4.052520
4.597902
5.031824
4.745722
5.593896
4.962683
5.884767
6.130934
6.937981
8.455515
9.772778
9.922981
10.627508
12.495518
11.650920
11.369586
11.326671
11.996627
10.424852
9.442568
7.752776
8.260608
6.565452
5.903840
5.871654
4.942417
4.206896
4.768968
4.702806
4.577637
4.474521
4.638433
4.725456
5.093813
##ZVALUE=215
4.612803
5.056858
4.115701
3.484488
3.543496
3.602505
3.853440
3.948808
4.036427
3.906488
3.836751
3.439784
3.747940
1.982450
2.502799
2.182722
2.133846
2.594590
2.730489
2.539754
3.243685
3.246665
3.487468
3.231764
4.299879
4.040599
4.467964
4.744530
5.526543
6.168485
6.924868
7.318854
7.577538
7.409453
7.567406
8.265972
7.809997
8.019805
8.470416
7.602572
8.108616
7.651448
7.021427
7.108450
6.786585
6.836653
5.815625
6.942749
6.397963
5.768538
6.223917
6.409883
6.233454
5.064607
5.422831
5.403757
5.176663
5.606413
5.029440
4.695654
4.904866
4.462600
5.430579
5.255938
5.310774
5.258918
5.425811
6.429553
6.483793
7.216930
7.694960
8.194447
11.040568
10.766983
11.357665
11.417866
12.650490
12.566447
11.902452
11.122823
10.874867
9.130836
8.804798
6.442666
6.522536
5.731583
5.317926
5.750656
4.953742
4.434586
4.908442
4.058480
4.349947
4.349947
4.111528
4.748702
##ZVALUE=220
15.984774
16.367435
15.562773
18.732548
16.872883
13.302565
12.479424
9.780526
9.476542
8.316636
10.420680
9.960532
9.901524
9.172559
7.884502
6.132722
5.129576
3.291965
3.596544
3.264546
2.771616
2.722740
3.588796
3.594756
4.071593
4.222989
6.055832
6.419420
7.304549
8.673668
9.961724
10.443926
12.240410
12.307763
12.374520
12.593865
12.811422
13.730526
13.352633
12.451410
9.795427
12.381673
11.026859
10.480881
9.843707
9.459853
9.113550
8.767843
9.698868
8.768439
8.919835
7.140636
7.805824
6.982684
7.685423
6.872416
7.112622
7.538795
7.728934
6.462932
6.899834
6.041527
6.498694
6.758571
6.255507
6.577969
7.648468
6.707907
6.866455
7.514954
8.306503
9.857416
10.680556
11.284947
12.133718
12.959838
12.397766
12.255907
12.572408
11.786819
10.763407
10.189414
9.529591
8.512735
8.055568
7.217526
6.822944
6.550550
5.953908
6.513000
5.889535
6.543994
5.544424
5.488992
6.134510
6.207824
##ZVALUE=225
31.317472
31.741858
37.796497
49.567819
56.169629
53.390861
49.194694
41.711926
35.727620
25.003552
22.105575
20.342469
21.995902
23.346543
24.233460
22.583604
20.361543
15.191436
10.230541
7.512569
5.269647
4.343987
3.887415
3.708601
3.972650
4.713535
6.009936
7.655621
9.018779
10.590553
12.021661
11.190772
14.578700
14.858842
15.867949
16.256571
16.469955
16.635656
16.199946
15.866756
15.443563
14.606714
14.248490
13.169646
14.172792
12.054443
12.505651
11.743903
12.171865
11.437535
11.266470
10.917783
9.816885
8.949637
8.697510
10.923743
9.283423
9.256601
8.910894
8.019805
8.250475
8.864999
8.572936
8.856654
8.301735
9.444952
8.471608
9.428859
8.723736
10.593534
10.844469
10.801554
12.288690
14.024973
13.991594
14.382601
15.101433
15.050769
14.376640
13.925433
14.172792
11.694431
11.976957
10.475516
10.045767
11.209846
10.479689
9.824634
10.286570
9.118915
9.570718
10.532737
9.845495
9.408593
8.855462
10.033846
##ZVALUE=230
29.224753
30.415654
48.640966
79.237819
102.739930
131.621957
140.260458
140.220523
130.262971
111.986995
80.408454
59.180856
44.850707
38.307905
43.581724
44.019818
50.007701
48.361421
42.719841
31.971931
24.784803
17.338991
10.695457
7.479787
5.721450
5.432963
6.333590
8.889437
8.768439
8.954406
11.089444
12.238622
13.316870
15.341640
14.143586
15.850663
16.289949
15.093684
15.927553
15.764832
15.235543
15.746951
13.695955
15.088916
12.803674
12.839437
12.583733
12.632608
12.302995
11.150837
10.916591
11.527538
11.295676
11.272430
10.955930
10.754466
10.565519
10.744929
9.803772
11.654496
11.936426
10.859966
10.915995
11.246800
11.381507
12.008548
13.112426
11.904836
12.617707
13.818741
15.616417
16.755462
15.809536
17.556548
18.560886
19.890666
18.515587
19.185543
19.684434
19.226670
19.364953
17.825961
18.313527
18.104911
17.445683
17.107725
16.275644
17.027855
16.332865
16.334653
16.901493
16.159415
15.540719
14.964938
14.817715
15.026927
##ZVALUE=235
11.356473
12.898445
26.259422
59.422851
96.137524
155.401826
206.686854
268.274546
295.766592
301.205516
262.190700
221.361518
154.723525
117.743611
80.160499
68.610907
70.289969
72.212815
76.710582
79.180598
74.951649
61.129928
52.180886
34.650564
24.304986
14.921427
11.535883
8.764863
8.882880
9.610653
10.846853
11.891723
10.981560
12.629628
12.524724
12.505651
11.793971
12.530684
13.228655
13.230443
14.303923
12.701750
13.386607
12.397766
12.687445
12.405515
11.481643
10.611415
11.432767
11.505485
11.779666
11.134744
11.163950
11.542439
12.740493
11.957884
10.589957
11.473894
12.387633
12.613535
15.167594
13.606548
13.301969
13.598800
14.809966
14.893413
16.187429
16.994476
18.144846
18.718839
18.534660
21.938682
23.080707
23.305416
24.723411
25.427938
26.809573
25.106668
26.117563
24.657845
25.622845
25.582910
24.051666
25.743842
24.071932
24.470687
23.533702
24.315715
26.720762
23.748875
26.400685
23.818612
25.070906
23.974776
23.785830
24.073720
##ZVALUE=240
1.742840
1.830459
4.766583
14.718771
40.221810
70.766807
152.889490
223.478675
334.498882
404.419899
459.600687
477.649570
434.628725
351.238847
277.607441
181.161761
132.029653
95.579624
91.830492
99.770427
107.875466
115.407705
113.282800
100.266933
82.920790
64.853430
45.180917
34.769773
23.507476
17.701983
13.481975
13.230443
13.508797
13.250709
14.264584
12.873411
12.696981
14.210939
12.801886
12.916923
12.681484
13.201833
13.184547
12.411475
12.064576
13.039708
10.839701
11.543632
11.040568
12.165904
11.759996
11.765957
10.736585
10.526776
12.175441
12.104511
11.734962
11.438727
12.624860
13.343692
13.371706
13.132691
14.069676
16.038418
16.413927
16.642809
17.305613
18.336773
19.016862
20.562410
22.602677
23.921728
25.774837
28.041601
27.247667
28.427839
29.439926
32.028556
32.592416
32.245517
29.780865
33.020973
31.496882
34.075975
31.538606
34.748912
31.524897
32.789707
32.618642
31.943917
32.054782
31.888485
31.868815
31.710863
30.648708
33.219457
##ZVALUE=245
1.374483
1.609921
1.317859
1.773834
4.143715
10.052919
34.434795
70.139766
155.660510
243.728757
375.128984
475.057960
542.441607
570.716858
551.038980
453.383923
375.581980
253.680944
184.060931
118.840933
101.171732
93.494654
112.678409
126.193762
133.300424
131.688714
117.030740
100.207925
78.005791
60.945749
44.190884
31.907558
22.539496
17.088652
16.316772
15.641451
15.061498
15.280843
15.665889
14.698505
14.107823
13.818741
14.253855
13.731718
12.891889
13.094544
12.540817
13.787746
11.734962
11.644959
11.148453
11.156797
11.995435
12.119412
12.438893
11.732578
11.794567
11.926889
13.007522
12.409687
13.571978
13.751984
13.086796
15.418530
15.449524
16.570687
17.023683
17.174482
18.247962
21.586418
20.770431
22.790432
22.782683
25.400519
25.657415
27.996898
28.768778
28.788447
29.798746
30.933619
30.945539
29.077530
30.527711
31.788945
32.048821
32.842755
31.470656
33.270717
32.122731
32.785535
33.951998
32.515526
32.854676
32.240748
31.270981
33.263564
##ZVALUE=250
1.327991
1.333952
0.990629
1.094937
1.476407
1.650453
2.183914
6.630421
28.716922
61.517954
144.603848
232.672691
341.952443
488.292575
583.743453
652.702451
647.856593
588.856936
495.677590
347.923636
235.767961
160.056949
106.977820
96.504688
110.609531
127.430558
135.439634
145.465732
140.425563
129.533410
118.823647
90.604424
70.038438
46.488643
36.471486
25.814772
20.819902
18.474460
19.129515
17.313957
17.305613
17.392635
16.849637
16.537905
15.717745
15.008450
14.416575
14.299750
13.788939
12.987852
12.962818
13.220906
13.372898
13.158917
11.926889
12.357831
12.856722
11.858940
12.765527
13.181567
13.908744
12.421608
13.792515
15.043616
13.225675
15.060902
14.618635
15.652776
17.080903
18.166900
18.321872
20.638704
21.916628
21.745563
23.642778
25.379658
25.045872
25.588870
26.783943
29.504895
27.808547
29.237866
29.474497
28.945804
29.882789
29.790998
30.173659
30.282736
30.294657
28.743744
31.069517
31.007528
31.218529
29.500723
31.089783
30.581951
##ZVALUE=255
1.088977
0.960827
0.879765
1.217723
0.957847
1.298785
1.402497
1.208782
1.505613
2.846718
16.229749
43.189526
108.239651
187.893510
322.823524
447.305441
612.657666
699.920654
735.529661
708.768964
615.614653
459.385514
325.513482
192.117691
125.917792
90.340972
95.090866
114.631653
133.083463
149.601698
155.846477
151.835680
143.378973
116.525888
97.410679
69.945455
52.310824
37.115812
30.205846
22.624731
21.742582
20.790696
20.553470
20.564795
18.656850
18.611550
18.398762
17.236471
17.107725
16.838908
15.769601
15.864968
15.937686
14.532804
14.131665
13.734698
13.705492
13.945699
13.805628
12.438893
13.113618
13.329983
13.506413
13.413429
13.206601
14.712811
14.906526
15.368462
15.144944
17.439723
18.130541
18.090606
20.896792
20.798445
20.734668
22.635460
23.838878
23.639798
23.629665
23.871660
25.241971
26.334524
25.492907
26.445985
26.940703
27.235746
27.107596
27.315617
27.945638
28.596520
28.314590
28.430820
29.057860
29.505491
30.553937
30.159950
##ZVALUE=260
1.196861
1.015663
1.063943
1.000762
0.860691
0.867844
1.071692
1.385808
1.291633
1.544952
1.581907
2.073646
6.922483
29.148459
64.934492
154.608488
253.642797
422.188640
558.898449
725.184679
810.320973
815.169811
722.588897
598.886609
408.067703
278.193951
168.852806
111.115575
87.376833
93.193650
111.755729
143.405795
159.363747
169.605613
167.058706
153.048635
131.553411
101.554990
80.552697
58.503747
43.356419
32.056570
28.386712
24.760962
23.346543
21.667480
21.637678
20.518899
19.744635
19.064546
19.102693
18.440485
17.799735
16.541481
16.739964
16.011000
16.393661
14.965534
13.671517
14.809966
14.338493
13.372898
13.659596
13.153553
13.776422
14.238954
14.278889
14.465451
15.148520
16.784668
17.477870
17.709732
18.264651
19.511580
20.859838
19.341707
21.011829
23.009777
23.676753
21.526814
22.153854
23.723841
23.946762
24.714470
24.676919
25.759935
25.647879
25.291443
26.268959
25.743842
25.761724
26.121736
27.820468
26.292801
28.407574
27.320981
##ZVALUE=265
0.799894
0.766516
0.907779
1.024604
0.813603
0.893474
1.118779
1.056790
0.916719
1.334548
1.276731
1.304746
1.171827
1.766682
3.446937
19.107461
46.650767
114.654899
206.979513
383.276939
547.232628
701.525807
856.001973
898.690820
823.808908
714.117885
529.735684
379.473567
220.288634
141.692758
98.436475
86.335540
99.744797
129.846931
152.511597
171.399713
179.091692
169.495940
158.328414
129.573941
107.644796
79.084635
59.248805
43.621659
35.667419
27.669668
26.233792
23.196936
22.926927
20.497441
20.194650
19.048452
18.557906
17.473698
17.645955
16.269684
16.373992
15.103817
15.315413
13.909936
15.042424
14.044642
14.062524
14.367700
13.554692
14.360547
14.393926
14.615655
15.611649
15.662909
16.833544
17.860532
18.160939
18.701553
19.558668
20.067692
20.315647
20.612478
20.775795
21.817684
21.923780
22.102594
22.054911
22.599697
23.596883
23.562908
22.873878
23.702979
23.310781
25.156736
23.997426
24.570823
24.688840
24.687648
25.279522
25.323629
##ZVALUE=270
0.625849
0.744462
0.822544
0.773668
0.737906
0.742674
0.660419
0.961423
0.918508
1.067519
1.119971
1.270771
1.121759
1.087785
1.253486
1.679659
1.879930
9.033680
25.646687
81.287622
164.351463
287.577510
508.362651
682.881474
870.813727
949.995518
933.678746
853.413939
671.030879
503.641963
350.681543
193.462968
122.782588
81.373453
83.845854
107.284784
131.548643
161.654949
175.184608
181.269646
174.113512
153.126717
132.498741
102.863908
81.005692
56.858659
42.349696
32.140613
27.608871
22.961497
20.869970
20.916462
19.653440
17.594695
17.615557
17.229915
16.712546
15.398860
15.201569
15.378594
15.021563
13.851523
14.677644
14.519691
14.371872
14.058948
14.308691
14.082789
15.255809
15.268922
15.875697
16.667843
16.856790
18.169880
19.053817
18.617511
18.760562
19.971728
20.769835
21.163821
21.350980
20.784736
21.594763
21.919608
22.535920
22.183657
22.420883
22.424459
23.295879
22.684932
23.425817
22.861958
23.102760
24.282932
24.880767
24.680495
##ZVALUE=275
0.661612
0.690818
0.654459
0.574589
0.653863
0.717640
0.695586
0.749826
0.962615
0.922680
0.771880
0.793934
1.032948
1.187921
0.976920
1.129508
1.146793
1.429915
1.563430
3.914833
15.106797
45.025945
127.470493
242.597461
450.889468
613.917708
810.102820
931.942463
989.606977
942.227840
838.070512
624.622703
448.259711
247.119665
152.876973
83.370805
67.007542
79.231858
99.476576
129.563808
149.243474
166.970491
170.876980
166.693926
150.395632
120.560527
99.535584
73.632598
55.555701
36.890507
28.787851
22.233725
18.819571
17.565489
16.806722
16.049743
14.935732
14.686584
14.295578
13.979673
13.451576
14.406443
14.044642
13.695955
13.977885
14.044642
13.837814
14.922619
14.920831
15.482903
15.926957
16.416907
16.764998
17.676950
17.717481
19.096732
19.473433
19.137859
18.769503
19.890666
19.935966
20.320415
21.026731
20.967722
21.487474
21.040440
21.787882
21.981001
22.085905
22.627711
22.292733
22.034645
22.292733
22.312999
22.335649
23.340583
##ZVALUE=280
0.621676
0.636578
0.655651
0.616908
0.633597
0.726581
0.487566
0.547767
0.669956
0.762939
0.810623
0.636578
0.616908
0.860691
0.990629
1.039505
0.875592
0.977516
1.044869
1.320839
1.415610
1.878738
9.304881
32.434464
99.756718
185.731649
350.834727
512.581468
741.305947
887.853503
987.929702
993.836522
906.075835
697.081685
520.409942
301.523805
183.358788
90.711713
58.411956
52.514672
66.039562
94.424486
115.157962
143.411756
153.847933
160.648823
155.059695
136.727691
118.910670
86.876750
68.745613
45.578480
32.612681
21.592975
17.513633
14.440417
14.067888
13.348460
13.486743
12.918711
12.614727
13.710856
13.108850
13.537407
13.659000
13.680458
14.060736
14.193654
14.811754
15.681982
15.572906
16.781688
17.752647
17.435551
18.222928
18.746853
18.322468
18.614531
19.959807
20.317435
19.945502
20.914674
21.311641
21.087527
21.764636
21.691918
21.005869
21.795630
21.486878
21.990538
21.955967
22.153854
21.765828
21.778941
22.150874
22.530556
##ZVALUE=285
0.500679
0.554919
0.438690
0.503659
0.455976
0.705719
0.728965
0.654459
0.551939
0.580549
0.595450
0.557899
0.620484
0.693798
0.830889
0.816584
0.855923
0.830889
1.028776
0.913739
1.048446
1.086593
1.328588
1.526475
4.386902
16.406775
56.608915
117.440820
256.401896
404.058695
623.145700
791.629553
929.994583
1005.424857
956.985950
782.335997
622.465611
392.798781
248.899460
119.115710
65.160990
37.960410
39.506555
58.636665
78.950524
107.444525
128.481984
145.465732
152.038932
144.635439
132.960677
110.682845
89.307427
63.021779
46.027899
28.504729
20.461679
14.825463
12.825727
12.111664
11.544824
12.084842
12.024641
12.785792
12.359619
13.674498
13.555884
13.903975
14.786720
15.241504
15.823841
16.669631
16.775727
17.878413
18.428564
18.288493
18.903613
19.011497
19.755960
19.812584
19.569993
20.376444
21.565557
20.567775
21.369457
20.984411
21.688938
22.123456
21.197796
21.392703
21.251440
20.703673
21.731853
20.865798
20.657778
21.581650
##ZVALUE=290
0.480413
0.528693
0.564456
0.551939
0.412464
0.522733
0.571609
0.624657
0.522733
0.680685
0.703931
0.711679
0.659823
0.681877
0.660419
0.773668
0.936985
0.652671
0.684857
0.744462
0.849962
1.026988
1.058578
1.226664
1.200438
1.496673
2.013445
6.490946
32.020807
73.245764
174.011588
298.131704
520.260930
706.870556
907.586813
992.334485
989.332795
889.316797
681.496859
511.785746
300.972462
180.331469
79.605579
42.367578
27.474761
33.588409
51.986575
69.009662
95.846653
117.023587
136.086941
141.977668
139.156580
130.600929
106.146932
86.274743
58.517456
43.210983
28.510690
20.158887
15.207529
12.834668
12.216568
12.267828
12.749434
12.878776
13.823509
14.176965
14.320612
15.350580
16.340613
16.084909
17.237663
18.129945
18.034577
18.364787
18.395782
19.011497
19.352436
19.656420
20.710826
21.464825
21.174550
21.253824
21.419525
21.244884
21.341443
20.976663
21.666884
21.744967
21.563768
20.933747
21.004677
21.226406
21.102428
20.924807
##ZVALUE=295
0.509620
0.454783
0.437498
0.507832
0.439882
0.512600
0.441670
0.670552
0.522733
0.555515
0.537634
0.486970
0.610948
0.551939
0.507832
0.625849
0.484586
0.604987
0.689626
0.703931
0.675917
0.857711
0.916719
0.911951
1.070499
1.162887
1.213551
1.418591
1.561642
3.307462
12.062788
50.157905
108.475685
248.675942
396.806002
627.825856
802.543759
964.396596
1005.693674
932.551026
801.496506
575.542450
404.084921
214.819908
117.127895
45.725703
25.415421
21.858811
29.771924
48.033595
65.996647
91.742873
109.022856
127.292871
136.144757
133.084655
121.669769
101.896524
83.303452
58.523417
44.265985
27.303696
20.735860
15.201569
13.947487
12.867451
13.175607
13.569593
14.373660
15.056729
15.520453
16.667843
17.062426
17.419457
18.428564
18.977523
19.303560
20.046830
19.347668
20.134449
20.579696
21.198988
20.988584
20.508766
21.144748
21.873713
22.104979
21.609664
21.306872
21.621585
21.904707
21.671653
21.408796
21.075606
21.368861
21.018982
##ZVALUE=300
0.419617
0.509620
0.412464
0.452995
0.361800
0.640750
0.590682
0.480413
0.560880
0.442863
0.477433
0.358820
0.551939
0.488758
0.479817
0.487566
0.440478
0.608563
0.487566
0.532866
0.659823
0.672936
0.895858
0.778437
0.978708
0.871420
1.072884
0.989437
1.350641
1.120567
1.420975
1.768470
4.817843
26.891828
68.125725
173.794627
299.760699
521.793962
698.561668
895.828009
988.730788
977.901816
878.605843
666.027665
494.885445
281.286836
167.560577
73.123574
36.811829
17.556548
17.658472
28.726459
39.357543
61.401725
81.167817
105.604529
119.279623
128.916502
128.403902
116.949677
101.767778
78.794956
60.980916
42.185783
31.440854
20.325780
16.896725
14.851689
14.467835
14.799833
14.635921
16.182661
16.740561
17.283559
18.158555
18.907785
19.289851
19.822717
20.649433
20.913482
21.385550
20.983815
21.433830
21.669865
21.882653
21.836758
22.130609
21.961927
21.981001
21.924973
21.909475
21.786690
21.564960
20.821691
21.566749
21.362901
##ZVALUE=305
0.490546
0.617504
0.529885
0.498891
0.502467
0.642538
0.718832
0.482798
0.697970
0.539422
0.678897
0.664592
0.762939
0.802875
0.803471
0.840425
0.562668
0.636578
0.797510
0.686646
0.644922
0.730753
0.921488
0.959635
0.811815
0.888705
1.048446
1.157522
0.946522
1.165867
1.238585
1.210570
1.636744
1.729727
2.923608
15.716553
44.780970
127.392411
231.282711
429.796576
606.478453
825.748444
947.690010
990.885496
932.723880
739.485025
577.308536
368.420482
230.277777
105.159879
52.044988
19.671917
13.901591
17.269850
25.551915
41.012764
57.674646
80.688000
98.049641
117.200613
123.372674
123.937726
114.273429
97.125769
80.138445
57.723522
43.299794
30.560493
22.958517
18.218756
16.858578
17.053485
17.037988
17.845631
18.524528
18.979907
19.728541
20.369887
20.727515
21.208525
21.309853
21.806955
22.295713
22.299886
23.217797
23.023486
23.320913
22.901893
22.790432
22.229552
22.311807
22.338629
22.703409
22.350550
21.892786
22.120476
##ZVALUE=310
0.460744
0.564456
0.564456
0.422597
0.609756
0.629425
0.547767
0.651479
0.645518
0.551939
0.502467
0.510812
0.635982
0.583529
0.540614
0.728965
0.705719
0.793934
0.683665
0.565648
0.619888
0.691414
0.640750
0.740886
0.769496
0.591874
1.024604
0.835657
0.943542
0.983477
0.998974
1.139641
1.212955
1.256466
1.391768
1.642704
1.755953
6.725788
22.799969
77.140927
153.391957
316.285491
480.375886
714.190602
868.512988
988.558531
972.175002
853.775740
705.488920
470.953584
316.312909
158.952475
85.497499
31.617880
15.454888
11.843443
15.621781
24.105906
34.498572
53.615570
70.265532
91.889501
105.504990
116.707683
118.095875
109.180808
98.584890
78.977942
62.584877
43.430924
33.553839
24.875998
21.059513
19.202828
18.984675
18.773675
19.897819
20.473599
20.485520
21.146536
22.069812
22.045970
23.265481
23.368597
23.300648
23.408532
23.715496
23.192763
24.013519
23.548603
22.958517
23.298860
23.017526
22.395849
22.836924
22.719502
##ZVALUE=315
0.522733
0.388622
0.349879
0.391603
0.450611
0.507832
0.422597
0.247955
0.488758
0.310540
0.174642
0.276566
0.354648
0.430942
0.348687
0.475645
0.449419
0.581741
0.574589
0.444651
0.494719
0.613928
0.496507
0.533462
0.667572
0.469685
0.607967
0.623465
0.721812
0.650883
0.535846
0.690818
0.895858
1.006722
0.957847
1.070499
1.044869
1.251698
1.642704
3.156662
11.589527
48.688650
106.618404
242.991447
394.868851
634.167790
791.629553
937.367678
981.211662
909.738541
784.336925
565.626621
395.833850
213.081837
117.208958
44.102669
20.121932
10.680556
11.076927
15.082955
21.641850
34.784675
47.661662
69.105625
85.307956
103.626847
111.380816
114.359856
107.041597
91.279745
77.505708
59.315562
45.948625
32.545924
27.299523
22.391677
21.048784
20.193458
20.517707
21.136999
21.857619
22.245646
22.564530
23.131967
23.219585
23.213625
23.867488
23.933649
23.558736
23.165941
23.473501
23.261905
23.501515
23.386478
22.815466
22.911429
##ZVALUE=320
0.324845
0.255704
0.487566
0.398755
0.231862
0.332594
0.333786
0.314713
0.228882
0.359416
0.482798
0.306964
0.431538
0.375509
0.379682
0.280738
0.442863
0.352859
0.288486
0.480413
0.395775
0.402927
0.391603
0.373721
0.331998
0.465512
0.496507
0.533462
0.528693
0.610948
0.659823
0.541806
0.673532
0.640750
0.641942
0.841618
0.899434
0.961423
1.027584
1.122952
1.215935
1.695752
5.154610
27.282834
69.727898
180.203915
303.274989
505.632758
673.601627
868.793726
951.420665
944.489837
853.571892
654.972792
483.829975
271.807909
157.030821
67.869425
32.236576
12.279749
10.153651
11.149645
13.799667
21.215677
30.566454
47.432780
62.735677
82.569718
94.950795
107.229948
110.468864
102.714896
93.477964
74.449778
60.707927
44.509768
36.028624
28.175712
25.043488
22.612810
21.929741
22.152662
22.404790
23.527741
23.354888
23.595691
23.710728
24.013519
23.799539
23.486614
24.116635
22.941828
23.355484
23.471713
23.307800
22.867918
##ZVALUE=325
0.339746
0.265837
0.213981
0.278950
0.266433
0.226498
0.359416
0.320673
0.229478
0.243783
0.273585
0.418425
0.356436
0.222921
0.452995
0.362992
0.347495
0.498891
0.548959
0.255704
0.464916
0.458956
0.461936
0.560880
0.588894
0.465512
0.440478
0.465512
0.537634
0.611544
0.610948
0.623465
0.546575
0.554919
0.750422
0.760555
0.894666
0.797510
0.920892
0.923872
1.072884
1.020432
1.149774
1.334548
3.278852
13.174415
50.935745
108.422637
240.902901
390.522480
621.238947
772.898793
917.661786
950.112939
868.975520
737.774968
507.978797
351.556540
188.614726
104.977489
40.362477
18.961430
10.328889
10.141730
11.757612
14.596581
21.538734
30.665994
47.739744
62.704682
82.314610
93.238950
103.666782
105.027556
98.378658
88.427663
72.277784
59.185624
43.773651
35.187602
28.324723
25.456548
23.771524
23.553967
23.186803
23.650527
23.388863
23.914576
23.645759
23.904443
23.493767
23.237467
23.407936
22.974610
22.944808
23.080707
##ZVALUE=330
0.375509
0.298619
0.163913
0.358820
0.289679
0.346899
0.340939
0.446439
0.326633
0.398755
0.206828
0.404716
0.277758
0.390410
0.362992
0.332594
0.214577
0.323653
0.346899
0.378489
0.364780
0.336766
0.542998
0.376701
0.387430
0.386834
0.396967
0.364780
0.361800
0.366569
0.716448
0.665784
0.556707
0.589490
0.636578
0.655651
0.571609
0.605583
0.602603
0.639558
0.800490
0.856519
1.031756
1.170635
1.112819
1.491904
1.737475
7.259846
24.454594
81.944466
157.815814
320.060849
475.456715
695.011020
832.207799
926.343799
900.995731
768.823028
618.606806
402.760506
263.353586
124.380589
64.987540
25.518537
12.964606
9.914637
10.381937
12.289882
14.744997
22.443533
31.026602
44.876933
58.611631
78.007579
89.602470
99.343657
99.684000
94.309449
83.959699
68.771839
56.806803
42.644739
36.085844
29.720664
26.657581
23.939610
23.615956
23.230910
23.054481
23.029447
23.098588
22.840500
23.131967
23.077726
22.614598
22.271872
##ZVALUE=335
0.188947
0.139475
0.202656
0.175834
0.205636
0.424981
0.347495
0.430942
0.306964
0.238419
0.313520
0.202656
0.115633
0.206828
0.169873
0.206828
0.385642
0.289679
0.260472
0.222921
0.341535
0.287890
0.263453
0.229478
0.300407
0.372529
0.349879
0.340939
0.344515
0.334978
0.253916
0.415444
0.497699
0.506639
0.500679
0.530481
0.605583
0.479817
0.518560
0.718832
0.581741
0.590682
0.721812
0.768900
0.791550
0.840425
0.982881
1.153946
1.210570
3.292561
12.601614
50.532818
107.047558
239.507556
385.006666
608.607531
756.053925
879.963636
902.138948
813.343525
684.404969
471.283793
323.453546
171.087980
91.735721
33.507943
16.219616
10.546446
10.476708
11.113882
13.015866
16.403794
21.272898
32.230616
43.344498
60.474873
72.642565
85.847974
93.525648
95.122457
91.170669
78.194737
68.909526
55.784583
46.088696
36.255717
30.895472
26.226640
24.011731
22.940636
22.048950
22.156835
21.784902
22.028685
21.334887
22.178888
##ZVALUE=340
0.168681
0.081658
0.266433
0.185966
0.113845
0.140667
0.116825
0.221729
0.206828
0.175834
0.299811
0.213981
0.230670
0.176430
0.276566
0.344515
0.365973
0.148416
0.210404
0.382662
0.184774
0.383854
0.271797
0.234842
0.196695
0.398755
0.206828
0.304580
0.532866
0.392795
0.489950
0.241995
0.481606
0.444651
0.480413
0.390410
0.525713
0.465512
0.321865
0.279546
0.601411
0.595450
0.621676
0.498891
0.644922
0.692606
0.714660
0.809431
0.815988
1.081824
1.092553
1.590848
5.643964
29.360652
72.912574
182.743669
308.728814
508.045554
663.201809
823.374987
877.525806
835.502744
732.232928
543.521643
384.894013
204.314590
114.166737
49.302578
22.291541
11.609793
10.477901
11.285543
11.702776
13.492703
16.174912
22.792816
30.144453
42.926669
55.275559
72.651505
82.135797
89.333653
90.099573
85.830688
78.394413
66.271424
56.353807
43.549538
36.485791
29.434562
25.288463
22.841692
22.047758
21.135807
20.851493
21.185875
##ZVALUE=345
0.200868
0.292659
0.193715
0.294447
0.200868
0.197887
0.420809
0.302792
0.328422
0.148416
0.357628
0.218749
0.296831
0.242591
0.364780
0.376701
0.337958
0.277758
0.216961
0.360608
0.278950
0.386834
0.282526
0.376701
0.487566
0.277758
0.320673
0.437498
0.313520
0.530481
0.341535
0.416636
0.351667
0.420809
0.498891
0.427961
0.495911
0.531673
0.450611
0.534654
0.517964
0.749826
0.732541
0.644922
0.563860
0.640750
0.630617
0.731945
0.773668
0.923872
0.988841
0.941753
0.999570
1.348853
2.703667
16.678572
46.489835
123.829842
221.485496
404.291749
557.346940
743.754506
829.802752
850.029588
778.888464
603.936911
452.488661
269.697905
154.561996
63.508749
31.663775
14.035702
11.119843
10.934472
11.417866
12.168884
13.601780
16.533732
21.003485
30.204654
39.981604
55.326819
64.128637
74.965954
81.804991
84.383488
81.834793
73.058605
65.435767
53.635836
44.224858
33.843517
28.635859
23.743510
22.155643
20.373464
##ZVALUE=350
0.251532
0.312924
0.185966
0.351667
0.229478
0.246763
0.135899
0.279546
0.136495
0.211596
0.339746
0.141859
0.378489
0.369549
0.316501
0.261664
0.266433
0.158548
0.439882
0.207424
0.112653
0.103712
0.486970
0.324845
0.272989
0.415444
0.336766
0.443459
0.317693
0.275970
0.255704
0.333786
0.277758
0.317693
0.301600
0.413656
0.294447
0.407696
0.477433
0.496507
0.526905
0.402927
0.482798
0.415444
0.435710
0.467896
0.579953
0.591874
0.537634
0.841618
0.699759
0.810623
0.806451
0.931621
0.995994
1.109838
1.570582
8.255839
26.248693
84.281564
161.142945
320.742726
463.332534
650.945902
765.080452
830.644965
795.588493
660.814643
512.526631
309.934616
192.046762
91.035962
43.991804
16.360879
10.887980
10.452867
10.761619
11.504889
11.653900
13.507605
15.805960
21.505952
27.084947
36.829710
45.622587
58.712959
67.719817
75.886846
77.256560
75.763464
69.970489
59.118867
51.458478
39.984584
33.555627
26.804805
##ZVALUE=355
0.163913
0.265837
0.341535
0.256896
0.233650
0.305772
0.185966
0.227690
0.280738
0.244975
0.160933
0.372529
0.057817
0.291467
0.318885
0.208616
0.220537
0.247955
0.384450
0.199676
0.355840
0.237823
0.228882
0.226498
0.287890
0.359416
0.240803
0.371933
0.403523
0.327826
0.289679
0.346899
0.405908
0.376701
0.362992
0.380874
0.421405
0.403523
0.562668
0.514984
0.482798
0.445843
0.503659
0.582933
0.402927
0.510812
0.576973
0.518560
0.743866
0.683665
0.670552
0.816584
0.696778
0.767708
0.901818
0.716448
0.937581
0.992417
1.334548
4.013777
13.860464
54.749846
110.650659
234.205723
366.122723
561.297536
696.112514
797.765851
796.383619
689.621568
558.431745
367.650986
237.669945
108.177662
54.290891
19.691586
11.471510
9.879470
9.894967
10.605454
10.487437
11.752844
13.008714
15.570521
18.401742
24.853945
32.533407
42.265654
51.292777
60.926676
67.462921
70.736408
69.089532
64.254999
57.995915
48.051476
##ZVALUE=360
0.302792
0.205636
0.122786
0.312924
0.159740
0.210404
0.215769
0.416636
0.328422
0.157952
0.313520
0.393987
0.173450
0.292659
0.106692
0.292659
0.371933
0.315905
0.361800
0.266433
0.248551
0.391603
0.184774
0.458956
0.408888
0.392795
0.409484
0.417829
0.296831
0.448823
0.350475
0.308752
0.310540
0.430942
0.366569
0.321865
0.361800
0.573993
0.429749
0.385642
0.464916
0.448823
0.503659
0.398755
0.327826
0.436902
0.496507
0.486970
0.457764
0.595450
0.660419
0.586510
0.621676
0.644922
0.756979
0.853539
0.696778
0.888705
1.042485
1.085997
1.162887
2.015829
6.044507
28.197765
68.817735
172.096491
285.151601
468.757749
614.902973
753.123760
789.473653
732.137561
623.427629
429.508686
288.078785
144.035816
76.245666
30.306578
14.928579
9.439588
9.540915
9.879470
10.112524
10.427833
11.172891
11.848807
13.055801
16.418695
19.976497
26.850700
34.125447
44.702888
51.953793
60.126781
63.174963
63.596964
##ZVALUE=365
0.247955
0.281930
0.045896
0.088811
0.229478
0.308752
0.120997
0.130534
0.245571
0.368953
0.207424
0.191927
0.198483
0.321865
0.233650
0.185966
0.241995
0.261664
0.256896
0.264645
0.216961
0.297427
0.089407
0.466704
0.177622
0.280738
0.391603
0.392795
0.461936
0.325441
0.287890
0.266433
0.303984
0.271797
0.349879
0.266433
0.346899
0.124574
0.382662
0.352859
0.517964
0.514984
0.447631
0.388622
0.419617
0.590682
0.479817
0.503659
0.525713
0.425577
0.443459
0.452995
0.519753
0.431538
0.610948
0.684857
0.655651
0.646710
0.872612
1.047850
0.960827
0.869632
1.269579
1.357794
2.763867
14.472604
41.263700
115.356445
209.584832
375.801921
520.109534
677.415729
746.557713
738.133788
652.412772
480.293632
344.103575
192.392468
106.903911
42.562485
19.866824
9.893775
8.616447
8.879900
8.906722
9.341836
9.408593
9.838939
10.362864
11.394620
13.598800
18.024445
22.164583
29.984713
37.489533
46.333671
##ZVALUE=370
0.258684
0.285506
0.268817
0.323653
0.465512
0.302792
0.345707
0.252724
0.184774
0.244975
0.254512
0.346899
0.229478
0.263453
0.205636
0.009537
0.211596
0.241995
0.243783
0.352859
0.390410
0.396967
0.264645
0.233650
0.247955
0.300407
0.193715
0.333786
0.255704
0.280738
0.395775
0.272989
0.239611
0.292659
0.323653
0.341535
0.273585
0.055432
0.153780
0.262856
0.321865
0.342727
0.471473
0.347495
0.532866
0.346899
0.289679
0.363588
0.458956
0.482798
0.409484
0.655651
0.543594
0.508428
0.425577
0.557899
0.698566
0.550747
0.562668
0.682473
0.723600
0.796914
1.048446
1.017451
0.972748
1.066923
1.615882
7.945895
25.514960
83.416700
159.214735
310.512781
453.186631
629.242659
716.333985
740.885735
687.685013
535.828471
400.407910
227.966905
131.080747
54.191947
27.039647
11.795759
8.396506
7.798672
7.991791
8.444786
8.380413
8.567572
9.003878
9.567738
10.271668
12.531877
15.569925
20.318627
##ZVALUE=375
0.311732
0.195503
0.292659
0.157952
0.117421
0.239611
0.228882
0.180602
0.183582
0.247955
0.283718
0.258684
0.229478
0.225902
0.000596
0.220537
0.412464
0.051856
0.176430
0.413656
0.228882
0.159740
0.266433
0.258684
0.262856
0.374913
0.222921
0.326633
0.307560
0.222921
0.331998
0.314713
0.257492
0.361800
0.347495
0.278950
0.296831
0.249743
0.229478
0.300407
0.501871
0.262856
0.200868
0.250936
0.333786
0.416636
0.319481
0.481606
0.367761
0.391603
0.363588
0.455976
0.375509
0.441670
0.467896
0.375509
0.457764
0.443459
0.493526
0.462532
0.511408
0.619888
0.659823
0.663996
0.677705
0.771880
0.866652
1.142621
1.255870
3.820658
13.591647
48.840642
105.141997
234.386921
365.635753
550.999045
663.330555
734.511614
716.030598
595.826507
463.047624
285.080671
182.134509
91.842413
47.666430
17.333627
9.280443
7.309914
7.276535
7.446408
7.632971
7.744431
8.038878
8.320808
8.756518
9.503961
##ZVALUE=380
0.148416
0.153780
0.066757
0.226498
0.347495
0.186563
0.332594
0.331998
0.296831
0.246763
0.231862
0.312924
0.064969
0.213981
0.055432
0.249743
0.260472
0.282526
0.288486
0.207424
0.444651
0.393987
0.208616
0.103712
0.189543
0.334978
0.126958
0.392795
0.184774
0.337958
0.176430
0.337958
0.254512
0.278950
0.117421
0.336766
0.182986
0.288486
0.283718
0.360608
0.272989
0.234842
0.401735
0.320673
0.307560
0.212789
0.350475
0.389814
0.294447
0.346899
0.288486
0.562668
0.359416
0.389814
0.441670
0.515580
0.370741
0.485778
0.548959
0.622869
0.436902
0.499487
0.362992
0.680685
0.605583
0.679493
0.660419
0.889897
0.813603
1.016855
1.179576
2.235770
7.207990
35.036802
80.901980
190.984607
309.006572
488.161445
615.263581
725.790858
733.560920
637.354851
527.600646
369.578600
250.625610
125.504732
65.801740
25.124550
12.074709
7.016659
6.513596
6.594658
7.041693
7.204413
7.300973
7.404685
##ZVALUE=385
0.170469
0.235438
0.119805
0.278950
0.159740
0.221729
0.184774
0.254512
0.171661
0.156760
0.193715
0.147820
0.254512
0.216961
0.085831
0.191927
0.212789
0.146627
0.241995
0.161529
0.263453
0.251532
0.149608
0.150800
0.196695
0.361800
0.174642
0.178814
0.250936
0.210404
0.192523
0.190735
0.164509
0.213981
0.194907
0.277758
0.320673
0.152588
0.170469
0.190735
0.357628
0.268817
0.198483
0.184774
0.295639
0.245571
0.421405
0.353456
0.407696
0.376701
0.348687
0.276566
0.309944
0.219941
0.373721
0.353456
0.369549
0.426769
0.306964
0.372529
0.347495
0.320673
0.461936
0.541806
0.399947
0.612736
0.418425
0.568628
0.638962
0.889897
0.897646
0.907779
1.035929
1.317859
3.319979
19.774437
51.294565
133.406520
237.941742
427.941680
576.500893
718.624592
759.432912
726.515651
637.278557
465.965867
330.214500
180.814862
104.173422
44.092536
18.894672
7.838607
6.210804
6.117821
6.082654
6.718636
##ZVALUE=390
0.063777
0.168681
0.049472
0.172853
0.097752
0.130534
0.408888
0.231862
0.288486
0.111461
-0.012517
0.222921
0.190735
0.035763
0.056624
0.147820
0.207424
0.080466
0.142455
0.255704
0.260472
0.254512
0.176430
0.255704
0.280738
0.180602
0.174642
0.118613
0.239611
0.336766
0.252724
0.289679
0.249743
0.180602
0.270605
0.396967
0.223517
0.209808
0.405908
0.299811
0.335574
0.227690
0.296831
0.274777
0.308752
0.332594
0.459552
0.228882
0.286698
0.291467
0.271797
0.344515
0.255704
0.390410
0.261664
0.338554
0.372529
0.402927
0.375509
0.354648
0.362992
0.364780
0.520945
0.467896
0.485778
0.657439
0.452995
0.757575
0.848770
0.859499
0.938773
0.679493
0.934601
0.834465
0.929832
1.202822
1.905560
10.090470
31.177998
93.957782
177.483559
335.446596
469.052792
622.484684
699.837804
717.953444
659.952760
521.275997
399.369001
244.292021
143.326521
59.509873
29.130578
10.549426
6.542802
5.714893
##ZVALUE=395
0.072718
0.174642
0.110865
0.262856
0.211596
0.198483
0.059605
0.204444
0.073910
0.166893
0.148416
0.077486
0.185966
0.172853
0.132918
0.226498
0.314713
0.261664
0.249743
0.218749
0.226498
0.082850
0.293851
0.293851
0.244975
0.238419
0.090599
0.237823
0.273585
0.266433
0.181794
0.361800
0.481606
0.211596
0.197887
0.399947
0.396967
0.458956
0.245571
0.428557
0.142455
0.241995
0.324845
0.206828
0.221729
0.221729
0.193715
0.393987
0.319481
0.324845
0.205636
0.374913
0.239611
0.340939
0.346899
0.410676
0.350475
0.487566
0.441670
0.337958
0.245571
0.432730
0.438690
0.375509
0.508428
0.369549
0.540614
0.537634
0.356436
0.845790
0.703931
0.759959
0.738502
0.675917
0.970960
0.768900
0.828505
0.924468
1.364946
5.490780
20.004511
70.217848
133.183002
252.899528
379.130840
554.515719
663.421750
733.537674
714.657903
612.970591
483.933687
301.727653
189.135671
84.099770
40.778518
14.493465
##ZVALUE=400
0.130534
0.220537
0.148416
0.182986
0.288486
0.030994
0.055432
0.073910
0.162721
0.266433
0.053644
0.093579
0.113845
0.112653
0.111461
0.069737
0.055432
0.151992
0.210404
0.260472
0.148416
0.375509
0.476837
0.217557
0.215769
0.355840
0.181794
0.321865
0.214577
0.386834
0.349879
0.267625
0.249743
0.315905
0.251532
0.298619
0.367761
0.341535
0.243783
0.269413
0.193715
0.347495
0.357628
0.362992
0.309944
0.364780
0.348687
0.233650
0.243783
0.234842
0.294447
0.361800
0.356436
0.282526
0.344515
0.308752
0.298619
0.370741
0.365973
0.241995
0.425577
0.452995
0.360608
0.296831
0.419617
0.513792
0.462532
0.480413
0.672936
0.577569
0.767708
0.698566
0.592470
0.689626
0.629425
0.729561
0.787973
0.530481
0.924468
1.029968
1.191497
2.983809
10.508895
39.080977
84.681511
190.889835
306.023955
478.807688
593.416691
697.140694
713.402033
636.029840
523.687601
346.801877
230.295658
116.583705
##END
