##TITLE=QP00601
##FORMAT=SPECTACLE-ASCII V-1.2
##DATA TYPE=ULTRAVIOLET SPECTRUM
##SECOND TYPE=ULTRAVIOLET SPECTRUM
##DATE=01/24/18
##TIME=17:41:39
##SPECTROMETER/DATA SYSTEM=SPECTACLE
##XUNITS=NM EM
##YUNITS=ENERGY
##YFACTOR=1
##FIRSTX=220
##LASTX=410
##NPOINTS=96
##3DDATA=Equidistant
##ZUNITS=NM EX
##FIRSTZ=210
##LASTZ=400
##ZPOINTS=39
##XYDATA=(Y..Y)
##ZVALUE=210
1.471639
1.742840
1.701713
1.773834
1.905560
1.892447
2.107620
1.872778
1.999736
1.790524
1.640916
1.814961
2.465844
1.876950
1.993775
2.236962
2.075434
2.566576
2.358556
2.833605
2.901554
2.250671
2.892613
2.628565
2.828836
3.295541
2.857447
3.245473
3.568530
3.694892
3.503561
3.719926
3.501773
4.463792
4.341602
3.974438
3.203750
3.883839
3.806949
4.204512
4.343987
4.494786
4.323721
5.166531
4.882812
5.221963
3.976822
4.664660
4.801750
4.344583
4.396439
4.670620
4.815459
4.649758
4.197955
4.511476
4.653931
5.674958
4.604459
4.513860
5.315542
4.329681
5.095601
4.803538
4.864931
4.620552
5.719662
6.307960
6.981492
7.334948
8.212924
11.506677
11.080503
12.853742
12.770891
14.155507
13.968945
15.359521
13.107657
12.760758
12.059808
11.308789
9.198785
7.758737
7.488728
6.109476
5.451441
5.109906
5.525947
4.708767
4.605651
5.139709
5.496740
5.177855
5.322695
5.797744
##ZVALUE=215
4.260540
5.233884
4.307628
3.932714
3.748536
3.429651
4.113913
3.827810
3.488660
4.537702
4.252791
3.673434
2.652407
2.605915
2.793670
2.616644
2.306700
2.366900
1.961589
2.237558
2.490878
2.357960
3.155470
2.618432
3.250837
3.157854
3.250837
3.209710
4.131794
3.218651
3.706813
3.633499
3.765821
4.296899
3.579855
4.076958
4.415512
4.545450
4.034638
4.019737
4.388690
4.308820
4.354715
4.319549
3.989935
4.340410
4.408956
4.159808
4.438758
4.205704
4.951954
4.142523
4.740953
4.010797
4.497766
4.953742
5.161762
5.349517
4.727840
4.147887
4.333854
4.936457
4.681945
4.893541
4.979968
5.209446
5.921721
6.513000
7.116795
8.175969
9.158850
9.905696
11.794567
11.954904
12.602806
13.237596
14.345646
13.526678
13.145804
10.895729
11.453629
10.252595
9.589791
8.687973
8.687973
6.329417
6.627440
5.864501
5.286932
5.827546
4.789829
5.103946
5.403757
5.773902
4.934669
5.073547
##ZVALUE=220
15.967488
14.926791
17.738938
17.021894
16.168952
13.868809
11.569858
9.875894
8.364916
8.946657
9.795427
11.498928
11.202693
9.069443
8.475780
6.357431
4.661679
4.048944
3.340840
3.051758
2.277493
2.993941
3.590584
3.711581
3.326535
3.586411
3.245473
4.123449
4.226565
4.251599
4.249811
3.892779
5.010962
4.256964
4.380941
4.249811
4.742742
4.657507
4.751682
5.136728
4.510880
5.411506
5.497932
5.339980
4.250407
4.187822
4.717708
5.564690
4.698634
5.874634
5.594492
5.238652
5.599856
5.602837
5.018711
5.342960
5.544424
5.319715
5.453825
6.256700
6.210804
5.603433
5.939603
5.607605
6.104708
6.415844
7.286668
6.974936
7.117987
9.043813
9.768605
11.678934
12.594461
13.525486
15.028715
14.205575
14.674664
13.995767
14.694929
13.063550
13.142824
11.288524
9.746552
9.436607
9.182692
8.311868
8.304715
7.213950
7.464886
6.958842
6.963611
6.059408
7.139444
6.505847
6.177425
6.312728
##ZVALUE=225
28.552413
32.752752
38.417578
50.379634
54.388642
59.334636
54.227710
47.034621
34.711957
28.881431
21.378994
21.211505
24.286509
24.286509
23.751855
23.068786
17.568469
15.377998
11.652708
8.098483
6.044507
4.528761
3.766418
3.700852
3.979802
4.098415
4.362464
4.032850
3.622770
4.373789
4.028678
4.125834
5.449653
5.948544
4.612803
5.071759
5.655885
5.253553
6.148815
5.830526
5.562901
5.743504
6.367564
6.778836
5.349517
5.402565
5.766749
6.447434
5.848408
6.594658
5.736947
6.903410
6.219745
7.287860
6.143451
5.978942
6.543994
7.339716
6.780624
7.218719
7.137656
7.037520
7.929802
7.418990
7.558465
6.521940
8.206964
8.490682
9.277463
10.923743
12.701750
11.421442
13.115406
16.402602
16.239882
16.418695
16.362667
15.494823
15.595555
15.350580
15.095472
13.219714
13.685822
11.461973
12.296438
10.328889
11.398792
10.351539
10.973811
10.034442
9.157658
10.134578
9.906888
9.831786
10.253787
9.383559
##ZVALUE=230
26.441813
30.438900
44.339895
80.351830
103.248954
131.198764
146.154761
153.024793
143.447518
123.381615
85.220933
63.333511
47.910810
41.811466
41.464567
47.766566
48.860908
47.782660
44.205785
34.974813
25.668740
17.130971
11.763573
7.401705
5.791783
5.058646
4.846454
4.424453
5.030632
5.721450
5.567670
6.543994
5.888939
5.889535
6.057620
6.101727
7.222891
6.755590
6.388426
6.916523
6.408691
6.134510
6.107688
5.780458
6.778836
6.291866
7.119775
6.818771
7.031560
6.767511
6.239414
6.636977
7.275939
7.439852
8.015633
7.677674
7.392764
7.248521
8.682609
8.282661
9.001493
9.421706
8.742809
10.185838
9.446740
9.935498
11.208653
10.933876
13.338923
14.539957
15.049577
15.088916
17.771721
18.258691
20.017624
20.036697
20.476580
21.169782
20.769835
18.123984
18.128753
19.135475
17.293692
17.075539
18.133521
16.584992
16.129613
16.859770
16.462803
15.548468
16.386509
16.155839
16.427636
15.824437
15.147924
15.313625
##ZVALUE=235
10.806918
11.605620
30.082464
51.962733
98.134875
141.375661
217.853785
270.784497
308.211446
306.770802
283.460617
231.417418
179.795623
114.429593
84.520578
68.086982
67.914724
75.084567
83.438754
81.098676
74.240565
65.614581
46.927929
34.635663
22.365451
15.124679
10.675788
8.483529
7.107854
6.894469
6.984472
6.397963
7.081628
6.810427
6.643534
7.125735
7.373691
7.807612
7.144809
7.060766
7.064939
6.615520
6.138682
7.500648
6.935596
7.429719
7.214546
7.321835
6.821752
7.685423
7.800460
7.681847
7.620454
8.661747
7.653832
8.957982
9.425879
9.382963
10.176897
9.820461
10.477901
11.167526
9.694695
12.537837
12.460947
13.452768
14.864802
15.541911
15.122890
16.972423
18.377900
19.792914
21.593571
25.253892
25.075674
23.970604
25.370717
25.226474
25.997758
26.325583
24.735928
24.790764
25.484562
24.184585
24.131536
24.585724
23.590922
23.066998
24.061799
25.394559
23.242831
23.549795
22.194982
23.606420
21.973848
23.587942
##ZVALUE=240
1.616478
1.734495
5.248785
13.863444
41.860938
69.479942
147.475600
225.736499
347.005725
421.768427
481.675863
496.276617
455.795527
374.022722
296.484828
191.316605
139.004588
100.981593
91.732740
98.668933
108.622909
116.959810
116.399527
101.665854
81.123710
66.293478
47.639608
34.031868
24.073720
15.423894
12.062788
10.680556
10.737777
10.664463
9.219646
8.858442
8.457899
8.537769
7.394552
8.263588
9.010434
7.645488
7.744431
7.659793
6.855726
7.417798
6.975532
7.826686
7.246733
7.227659
6.921887
7.265806
7.577538
7.559657
7.625818
8.503795
8.851886
10.501742
9.446740
9.787679
10.865927
11.551976
13.181567
13.348460
14.975667
14.211535
14.366508
16.482472
17.713904
20.650625
21.363497
23.378730
25.985837
26.992559
30.008554
29.660463
27.379990
30.591488
31.736493
31.104684
31.007528
32.093525
32.131672
30.715466
29.967427
30.694604
28.271675
27.893782
29.965639
29.496551
30.020475
29.459000
32.333732
30.190945
29.049516
29.444695
##ZVALUE=245
1.551509
1.791716
1.304746
1.512766
4.123449
11.560917
35.553575
70.187449
156.059861
244.269967
390.572548
493.607521
574.940443
612.187982
590.636730
502.683520
400.131941
275.286436
191.871524
125.431418
101.872683
103.234649
112.494826
124.493837
133.629441
126.285553
114.275813
100.708604
72.818995
56.096911
41.300654
27.752519
18.582940
13.800859
11.849999
9.551644
10.480881
8.963943
8.947849
7.773638
8.189678
7.506609
7.561445
6.718636
7.711649
6.474853
6.603599
6.194711
6.020665
5.790591
6.649494
7.209778
6.985664
6.954670
7.121563
7.759929
6.664991
8.767843
8.611679
8.093715
9.891987
10.388494
10.738969
11.852980
11.751652
13.208985
13.408661
15.655756
16.453862
18.475652
19.194484
21.092892
23.923516
24.427772
26.722550
25.700927
26.349425
29.711723
28.846860
30.919909
30.185580
31.100512
29.312968
29.396415
28.994679
30.742884
28.685927
29.505491
30.676723
29.570460
29.793978
31.061769
30.465722
29.540658
31.402707
30.040741
##ZVALUE=250
1.210570
1.452565
0.989437
1.187921
1.305938
1.643896
1.878738
7.884502
27.059913
58.842897
144.049525
244.045854
350.996852
510.712862
618.411899
695.757866
695.014596
621.501803
524.252653
370.130539
253.392458
173.200965
107.221603
94.355941
106.011629
119.844675
137.584805
147.739649
136.328936
126.396418
106.938481
81.167817
62.373877
38.368702
27.608871
17.089844
12.559891
9.798408
8.842945
7.151961
8.529425
6.795526
7.242560
6.997585
6.960630
6.713867
6.156564
6.235838
5.934834
5.942583
5.414486
5.741715
6.241798
6.417632
6.340742
5.711913
6.584525
6.793737
6.674528
7.757545
7.740855
8.911490
8.800626
9.535551
10.706782
11.516809
12.272000
13.020635
13.504624
15.072823
17.308593
18.597841
19.541979
22.053719
24.023652
24.234653
24.211407
24.700761
26.054978
26.015639
25.824904
26.015639
26.510954
25.955439
26.756525
27.210712
27.122498
26.779771
28.460622
27.452707
27.707815
27.635694
27.556419
27.832985
27.279854
28.224587
##ZVALUE=255
1.427531
1.198649
1.213551
1.514554
1.305938
1.342893
1.324415
1.408458
1.789927
3.625751
18.016696
46.378970
95.960498
206.160545
320.407748
496.653914
621.910691
754.664540
794.708729
752.877593
666.801929
531.420708
333.285928
217.206478
123.835802
94.277859
91.625452
102.432966
128.392577
140.299797
151.885748
140.680671
132.327676
104.927421
84.753633
55.016875
38.153529
22.965670
15.011430
9.509921
7.879734
6.026626
6.615520
6.204844
6.218553
6.012917
5.193949
6.162524
6.525517
5.919933
5.466938
5.599856
5.665421
6.139874
6.049871
5.859733
5.896688
6.866455
6.788969
6.656647
7.746816
7.945895
7.935762
8.442998
8.715987
10.223985
10.812879
11.338592
12.546778
14.122725
15.562773
15.807748
17.508864
18.555522
18.294454
21.263957
20.624995
21.045804
21.661520
22.085905
21.648407
23.015738
23.381710
23.841858
24.488568
24.935603
24.975538
24.360418
25.112629
26.101470
25.820732
25.764704
25.558472
26.922822
26.574731
27.062893
##ZVALUE=260
0.930429
0.896454
0.935793
1.268983
1.012683
1.106858
0.900626
0.968575
1.001954
1.489520
1.573563
2.001524
6.777644
30.265450
66.588521
159.017444
268.004537
445.218682
593.500733
788.567662
868.850946
888.034701
792.291760
653.134584
436.290503
300.167799
173.162818
111.736655
81.653595
83.490610
100.414753
126.599669
142.265558
152.634978
146.659613
128.544569
111.064911
80.463886
58.967471
35.003424
22.716522
12.849569
9.064674
6.291866
6.238818
5.583763
5.271435
5.842447
5.540848
5.216599
5.447865
5.237460
5.426407
5.164742
5.321503
6.059408
5.470514
6.004572
5.799532
6.581545
6.799698
7.559657
7.086992
7.579923
7.495880
9.539723
9.262562
10.876656
10.985732
11.390448
12.543797
14.184713
15.134811
16.211867
16.130805
18.549562
17.243624
18.737912
19.871593
20.703673
20.372868
21.065474
21.218657
21.596551
21.510720
22.649765
22.603869
23.054481
23.780465
24.152994
23.142695
22.634864
22.885799
23.878813
22.840500
25.442839
##ZVALUE=265
0.748634
0.619888
0.739694
0.953674
0.932813
0.981688
1.015663
1.130700
0.884533
0.995994
1.099706
1.454949
1.353621
1.616478
3.829002
20.196438
50.798655
127.017498
222.176909
420.839787
594.365597
767.114758
937.107801
978.800654
897.973776
777.110457
577.442646
416.686535
232.132673
142.814517
89.313984
70.770979
80.242753
108.854771
129.675865
148.026943
153.920650
144.456625
128.995776
102.831721
80.198646
54.596663
36.627650
20.691752
13.205409
7.977486
6.732941
6.271601
5.639791
5.377531
5.683899
5.556941
5.397797
5.593896
5.849600
5.691648
6.236434
6.617904
6.302595
6.407499
6.206632
6.734729
7.008910
7.841587
8.210540
8.431673
9.076595
9.988546
10.166764
11.197925
12.303591
13.644695
13.465881
15.761852
15.827417
16.594529
17.603636
18.480420
18.317699
18.341541
18.574595
19.458532
19.221902
20.688772
19.692779
20.592809
21.139979
21.341443
20.733476
21.772981
21.230578
21.663904
21.820664
22.864938
23.332834
22.946000
##ZVALUE=270
0.930429
0.924468
1.003742
0.836849
0.716448
0.819564
0.640750
0.783801
1.024604
0.835657
0.908971
1.114607
1.163483
1.203418
1.198649
1.232624
2.343655
9.001493
27.495623
89.055896
176.651478
309.937000
548.720956
749.298930
945.793986
1015.538573
1011.576653
926.157832
726.232529
551.056862
384.316444
203.137994
119.231939
63.831806
60.780644
83.768964
105.165839
131.095648
146.281719
153.212547
146.588683
129.633546
109.833479
77.609420
58.009624
34.516454
22.898912
13.135672
8.914471
6.440878
6.086826
5.956888
6.174445
5.573630
5.328655
6.087422
6.149411
6.286502
6.418824
6.633997
6.844997
7.086992
7.078648
7.893443
7.865429
8.417964
8.497834
9.761453
10.253787
10.718703
11.771917
12.541413
14.076829
14.263988
15.098453
16.083717
16.150475
17.069578
17.273426
17.623901
17.274618
17.897487
18.307567
19.037724
18.838644
19.414425
19.131899
19.456744
19.735694
19.563437
20.746589
20.878911
19.637942
20.911694
21.674633
21.429658
##ZVALUE=275
0.690818
0.673532
0.782609
0.807643
0.879765
0.698566
0.581741
0.729561
0.652671
0.847578
0.997782
0.985861
1.080632
1.013875
1.182556
1.158714
1.259446
1.609921
1.487732
4.462004
16.023517
46.929717
141.193867
264.053941
496.924520
686.195493
911.938548
1015.584469
1015.584469
1015.584469
946.010947
700.153708
496.933460
261.415839
149.842501
69.565773
48.730969
59.023499
77.556968
104.995966
125.712752
145.866871
152.739882
144.155622
129.946470
104.048848
81.855655
55.203438
38.763881
22.888780
14.861822
8.754730
7.277727
6.342530
6.628633
6.345510
6.742477
6.637573
7.147789
6.936789
7.375479
7.523894
8.064508
8.224845
8.187890
9.130836
9.475946
10.136962
10.720491
10.820627
11.768937
13.047457
13.725758
14.816523
14.930964
16.154647
15.809536
16.327500
16.328692
16.452670
17.345548
17.541647
17.877817
17.214417
18.033981
18.277764
19.085407
19.391775
18.874407
19.399524
18.855929
19.271970
19.454956
19.117594
20.828843
20.058751
##ZVALUE=280
0.714660
0.567436
0.590682
0.551939
0.590682
0.628829
0.641942
0.650883
0.562668
0.678897
0.682473
0.900626
0.856519
0.864863
0.888705
0.745654
0.986457
1.083612
1.032948
1.303554
1.350641
2.181530
10.075569
34.796596
112.350583
205.906630
392.108560
581.792593
838.333964
996.778011
1015.584469
1015.584469
1004.811525
779.242516
584.469438
327.278972
198.126435
89.246631
49.733520
41.602850
53.022504
79.898834
100.961924
127.808452
142.558813
147.127509
142.466426
126.630664
106.312633
79.338551
58.848858
36.698580
24.738908
13.939738
9.642839
7.324815
6.817579
6.575584
6.861687
7.370710
7.515550
8.253455
8.046627
8.997917
8.903742
9.607673
9.870529
10.230541
11.025667
12.148619
12.048483
12.829900
13.909936
14.335513
14.882684
15.800595
15.629530
16.787648
16.645789
16.558766
16.979575
17.305613
17.270446
18.010736
18.068552
18.236637
18.868446
18.041730
18.343925
19.239783
18.673539
18.677711
18.941760
18.940568
19.237995
18.476844
##ZVALUE=285
0.458956
0.608563
0.565648
0.472665
0.533462
0.544786
0.618696
0.509620
0.727773
0.676513
0.606775
0.705719
0.819564
0.929832
0.860691
0.871420
0.942945
0.868440
1.036525
1.110435
1.381636
1.483560
1.439452
1.484752
4.987717
18.131733
61.574578
133.451819
292.352438
459.257960
716.108680
904.253721
1015.584469
1015.584469
1015.584469
948.112011
694.390535
486.903787
258.714557
150.526762
63.737631
37.247539
36.446452
48.482418
74.355602
95.434785
122.199655
134.267807
143.717527
140.135884
124.878883
108.305812
80.727935
61.169863
38.842559
26.173592
14.281869
10.743737
8.489490
8.027554
7.880926
8.533597
8.448958
8.651614
9.242892
9.316802
10.108948
11.082888
10.995865
11.717677
13.008714
13.239980
14.205575
14.944673
15.700459
16.030669
16.039610
16.103983
16.280413
16.895533
17.011762
18.020868
17.301440
17.997622
18.036962
17.988682
18.431544
18.041730
17.962456
18.492937
17.449856
18.136501
18.302798
18.458962
18.785000
18.686652
##ZVALUE=290
0.468493
0.422597
0.627637
0.435710
0.457764
0.593662
0.715852
0.541806
0.601411
0.588894
0.691414
0.744462
0.658631
0.674725
0.677705
0.852942
0.699759
0.785589
0.707507
0.913739
0.937581
0.726581
1.131892
1.340508
1.407862
1.624823
2.321601
7.106662
35.099983
83.691478
170.934796
362.695456
558.706522
852.375031
1013.137698
1015.584469
1015.584469
1001.699567
841.194987
564.852953
374.314785
187.316537
98.816752
39.559603
25.842786
33.610463
47.328472
69.996715
90.127587
117.129683
130.150914
139.683485
137.868524
123.789907
104.769468
78.019500
58.870912
37.749410
27.159452
16.066432
12.236834
9.672642
8.916855
8.795857
9.848475
10.162592
10.475516
11.066794
11.906624
12.222528
13.160706
13.332963
14.044642
15.079975
15.462637
15.410781
16.180873
16.492605
16.783476
17.030835
17.419457
17.175674
17.517805
18.180609
17.936826
18.400550
18.437505
18.442869
18.315911
18.953681
18.379688
18.341541
18.133521
18.563867
18.025637
17.893910
##ZVALUE=295
0.348687
0.398755
0.485778
0.508428
0.612736
0.548959
0.477433
0.540614
0.596642
0.446439
0.441670
0.643730
0.697970
0.532866
0.650883
0.604987
0.581741
0.811815
0.774860
0.820756
0.746846
0.890493
1.003742
1.105666
1.292825
1.070499
1.278520
1.471639
1.627803
3.419518
12.130737
51.245689
118.851662
286.352634
459.996462
744.780898
937.878489
1015.584469
1015.584469
1015.584469
953.328013
688.197017
484.520793
257.167816
141.130686
52.193999
26.116967
20.917654
28.468966
45.416951
64.018965
88.673830
106.923580
125.218630
133.489966
130.825639
120.557547
99.627972
80.300570
56.268573
41.273832
26.014447
18.820763
12.950897
11.185408
10.801554
11.054873
11.547804
11.860728
12.601614
13.129711
13.786554
15.169978
15.323758
16.036630
16.355515
16.284585
17.064810
17.573833
16.864538
17.202497
17.631650
18.399954
18.270612
18.565655
18.741488
18.486977
18.198490
19.162893
19.028783
18.421412
18.274784
18.339753
18.500686
18.778443
18.597841
##ZVALUE=300
0.475645
0.353456
0.308752
0.421405
0.437498
0.518560
0.435710
0.486970
0.754595
0.402927
0.581741
0.658631
0.575781
0.587702
0.535846
0.625849
0.691414
0.699759
0.708699
0.688434
0.537634
0.729561
0.771880
0.844598
0.964999
1.098514
1.034737
1.122952
1.184940
1.478791
1.701713
1.715422
7.382631
27.216673
95.837712
189.843774
387.303829
595.558882
874.892473
1015.584469
1015.584469
1015.584469
1004.031897
845.168829
565.121770
369.130969
187.512636
97.638965
35.923719
18.643737
18.075705
25.302768
41.508675
57.115555
80.926418
100.891590
119.497776
125.955939
126.923919
118.911862
97.884536
80.467463
57.893991
43.079853
28.153658
20.708442
14.745593
13.237000
12.693405
12.856722
13.787746
14.134645
14.825463
15.252829
16.205907
16.479492
16.398430
17.572641
17.809868
17.973781
18.037558
18.339753
18.491745
19.415617
19.251704
19.366741
19.064546
19.768476
19.604564
19.156933
19.249916
18.798709
18.897653
18.626451
18.418431
18.810630
##ZVALUE=305
0.453591
0.410676
0.412464
0.465512
0.518560
0.605583
0.471473
0.538826
0.392795
0.465512
0.341535
0.586510
0.667572
0.351667
0.486970
0.641942
0.468493
0.646710
0.651479
0.587702
0.623465
0.611544
0.519753
0.740886
0.736713
0.810623
0.966787
0.889897
1.235604
0.970960
1.249909
1.378655
1.493692
1.909733
2.839565
19.192696
55.905581
160.889626
291.314721
532.743931
751.661658
998.647809
1015.579700
1015.579700
1015.579700
897.221565
704.885721
454.732776
282.243490
127.684474
61.718822
21.591783
14.038682
17.284751
24.729967
40.113926
56.509972
79.016685
96.314549
112.924576
122.031569
121.178627
111.898780
95.248818
78.876615
57.062507
42.520761
28.536916
21.395683
16.755462
15.103817
15.256405
15.175939
16.020536
16.139746
17.061830
16.843677
17.762780
17.919540
18.603802
19.300580
19.406676
19.425750
18.827915
19.568801
19.690990
20.479560
19.678473
19.738674
20.362735
19.595623
19.429922
19.742846
19.139647
19.457936
19.068718
##ZVALUE=310
0.378489
0.247955
0.122786
0.289679
0.273585
0.365973
0.266433
0.272989
0.346899
0.146627
0.305772
0.321865
0.210404
0.438690
0.351667
0.395775
0.557899
0.305772
0.471473
0.518560
0.486970
0.635982
0.660419
0.580549
0.473857
0.551939
0.730753
0.678897
0.760555
0.902414
0.963807
0.945926
0.901818
1.097918
1.285672
1.326799
1.868606
7.884502
26.767850
89.990497
181.064606
383.094549
589.891672
875.384808
1015.477777
1015.477777
1015.477777
1015.477777
867.774487
588.759780
390.248895
193.978548
101.704001
36.285520
16.210675
11.781454
14.893413
23.321509
33.308864
52.836537
68.212748
90.171695
104.485750
114.351511
116.939545
108.121634
96.726418
76.681972
60.192943
42.339563
32.537580
23.517609
19.438863
17.524958
16.564727
16.650558
16.825795
17.974973
17.795563
19.352436
19.051433
19.758940
20.419955
20.566583
20.508766
20.279884
20.267963
20.285845
20.697713
20.170808
20.365715
20.306706
20.121932
19.189715
19.918680
19.523501
##ZVALUE=315
0.233650
0.237823
0.337958
0.259876
0.324845
0.389814
0.133514
0.344515
0.317693
0.242591
0.178814
0.390410
0.367761
0.230670
0.307560
0.372529
0.262856
0.354648
0.405908
0.425577
0.474453
0.468493
0.303984
0.308752
0.539422
0.481606
0.537634
0.493526
0.806451
0.743866
0.535846
0.658631
0.743866
0.821948
0.871420
1.007915
1.134872
1.331568
1.621842
3.428459
13.261437
58.487654
130.261779
296.459794
486.373901
780.967474
966.039896
1015.456915
1015.456915
1015.456915
975.794792
704.099536
496.123433
263.567567
140.840411
51.739812
21.801591
11.144876
10.666847
14.676452
20.942688
34.455657
46.866536
67.163706
83.596706
103.866458
110.928416
112.071633
106.654763
91.079473
76.305866
58.750510
46.511889
31.794906
25.764704
20.427704
19.118786
18.650889
18.187761
18.626451
18.632412
19.759536
19.772649
20.263791
20.650625
21.005869
20.663738
20.560622
20.914674
20.418763
20.433664
20.098686
20.461679
20.141602
20.109415
20.225644
##ZVALUE=320
0.370741
0.399947
0.335574
0.437498
0.474453
0.338554
0.486970
0.406504
0.440478
0.369549
0.482798
0.261664
0.305772
0.479817
0.525713
0.465512
0.491738
0.507832
0.292659
0.548959
0.599623
0.448823
0.702739
0.636578
0.688434
0.690818
0.551939
0.774860
0.758767
0.701547
0.818968
0.790954
0.795722
0.824928
0.960827
0.946522
1.152754
1.202822
1.328588
1.386404
1.560450
2.072453
6.254911
33.233762
84.685683
223.100781
370.513797
617.936850
831.902027
1015.644670
1015.644670
1015.644670
1015.644670
848.198533
627.537966
351.383686
202.443600
84.933639
38.045645
13.413429
10.040998
11.230707
13.878942
20.934939
29.671788
46.726465
61.833858
80.163479
94.677806
106.201768
107.709765
102.934837
92.011690
73.221922
58.911443
43.053627
34.085512
26.227832
22.874475
20.204782
20.075440
20.100474
20.097494
20.379424
20.081997
20.575523
20.722747
21.266937
20.958781
20.843744
20.854473
20.626783
20.207763
20.698905
20.427704
20.327568
##ZVALUE=325
0.321865
0.486970
0.317693
0.303984
0.203848
0.269413
0.337958
0.376701
0.377893
0.449419
0.414848
0.355840
0.485778
0.357628
0.371933
0.472665
0.342727
0.461936
0.538826
0.558496
0.551939
0.553727
0.486970
0.565648
0.568628
0.479817
0.513792
0.572801
0.479817
0.709891
0.693798
0.636578
0.729561
0.618696
0.676513
0.772476
0.973940
0.871420
1.016855
1.102686
1.142621
1.228452
1.493692
1.791716
3.104806
21.455884
57.206750
154.676437
279.463530
533.250570
749.439001
997.356772
1015.584469
1015.584469
1015.584469
913.086534
698.191524
427.770615
258.323550
110.456944
52.874684
18.256903
10.582805
10.058880
10.999441
15.023947
20.786524
31.708479
43.724775
63.614845
78.461766
92.586875
101.300478
103.549957
97.769499
84.145665
71.424842
55.463910
43.950677
32.556653
26.870966
22.537708
21.461844
20.326972
20.410419
20.623803
20.628572
21.190643
20.533800
20.912886
20.585656
20.157695
20.562410
20.522475
20.321608
20.174980
##ZVALUE=330
0.307560
0.333786
0.245571
0.150800
0.312924
0.417829
0.426769
0.179410
0.263453
0.358820
0.329614
0.470877
0.311732
0.453591
0.241995
0.350475
0.242591
0.389814
0.513792
0.454783
0.509620
0.557899
0.303984
0.501871
0.278950
0.378489
0.466704
0.586510
0.595450
0.401735
0.554919
0.524521
0.605583
0.755787
0.640750
0.792742
0.771880
0.765920
0.759959
0.699759
1.148582
0.928640
1.147985
1.127720
1.330972
1.533628
2.066493
9.049773
29.745698
102.296472
200.866461
412.611961
618.905425
904.870033
1015.574932
1015.574932
1015.574932
993.676782
801.908970
516.022444
329.854488
154.185891
76.616406
28.846860
13.242960
10.353923
10.229945
12.129545
14.677644
21.755695
29.636621
44.376850
57.588816
76.528788
87.566972
96.667409
98.699927
91.085434
82.460642
66.525936
54.203868
40.367842
33.583641
27.138591
24.449825
21.248460
21.032691
20.454526
20.373464
19.926429
20.198822
19.952655
20.141602
19.914508
19.367933
19.946694
##ZVALUE=335
0.314713
0.289679
0.424981
0.459552
0.569820
0.551939
0.544786
0.562668
0.466704
0.435710
0.545979
0.556707
0.588894
0.428557
0.476837
0.582933
0.456572
0.489950
0.571609
0.586510
0.706911
0.476837
0.485778
0.725985
0.684857
0.649691
0.515580
0.505447
0.540614
0.633597
0.706911
0.588894
0.512600
0.514984
0.684857
0.778437
0.891685
0.866652
0.971556
0.936985
0.962615
0.920892
0.976920
1.102686
1.166463
1.298785
1.362562
1.501441
1.680851
4.316568
15.506744
63.458681
133.775473
303.428769
490.862727
779.904723
971.477032
1015.738845
1015.738845
1015.738845
890.071988
613.679886
425.568819
215.960741
111.569762
39.487481
18.214583
10.912418
10.272861
11.108518
12.585521
15.732646
20.696521
31.621456
42.321682
58.519840
71.540475
85.036755
90.912580
93.726516
88.764429
76.750517
67.148805
53.397417
44.516921
34.096837
28.347969
23.816824
21.723509
20.752549
19.859672
19.816756
19.790530
19.197464
19.248724
19.262433
##ZVALUE=340
0.208616
0.331998
0.293851
0.163913
0.409484
0.353456
0.312924
0.273585
0.292659
0.313520
0.274777
0.313520
0.327826
0.239611
0.288486
0.367761
0.319481
0.292659
0.416636
0.316501
0.407696
0.218749
0.313520
0.376701
0.251532
0.475645
0.640750
0.576973
0.442863
0.373721
0.491738
0.607967
0.497699
0.518560
0.456572
0.532866
0.605583
0.634789
0.588894
0.681877
0.775456
0.826716
0.816584
0.776649
0.944734
0.923872
1.126528
1.202822
1.238585
1.428723
1.349449
2.425909
7.226467
38.026571
94.941854
236.656666
399.183631
658.195615
860.608816
1015.627980
1015.627980
1015.627980
975.376964
718.393922
506.160855
266.911983
146.151781
59.529543
25.376678
11.719465
10.482669
10.858774
11.639595
13.540983
16.075969
22.390485
29.423833
41.645765
54.294467
70.072412
81.200004
88.163614
88.333488
82.878470
76.371431
63.840747
53.795576
41.773915
34.005642
27.202964
22.932887
20.482540
19.560456
18.675923
18.443465
18.649697
##ZVALUE=345
0.436902
0.430942
0.410676
0.384450
0.522733
0.479817
0.308752
0.400543
0.525713
0.364780
0.387430
0.357628
0.536442
0.413656
0.405908
0.421405
0.520945
0.608563
0.464916
0.420809
0.458956
0.396967
0.613928
0.458956
0.514984
0.796914
0.572801
0.610948
0.640750
0.496507
0.474453
0.690818
0.650883
0.710487
0.476837
0.579953
0.725985
0.623465
0.667572
0.755787
0.595450
0.947714
0.689626
0.770688
0.790954
0.965595
0.814795
0.970960
0.981688
1.049638
1.266599
1.392961
1.512766
1.805425
3.711581
21.826625
60.410500
161.280632
288.126469
528.475642
730.471015
984.349847
1015.740037
1015.740037
1015.740037
809.286833
604.962707
356.730819
198.449492
77.310801
36.636591
15.197992
11.284947
10.885596
11.118650
11.744499
12.780428
15.861988
19.945502
28.806925
38.262606
53.050518
63.174963
73.716640
79.967976
82.939863
79.713464
72.036982
63.000917
51.185489
42.203665
31.501651
26.855469
22.231936
19.493699
18.602610
##ZVALUE=350
0.291467
0.437498
0.465512
0.241995
0.468493
0.438690
0.347495
0.191927
0.474453
0.292659
0.378489
0.225902
0.323653
0.480413
0.384450
0.470877
0.314713
0.486970
0.472665
0.484586
0.312924
0.419617
0.316501
0.475645
0.395775
0.450611
0.551939
0.583529
0.520945
0.569820
0.600815
0.505447
0.535846
0.571609
0.578761
0.627637
0.556707
0.562668
0.618696
0.650883
0.662804
0.710487
0.776649
0.730753
0.717640
0.718832
0.763535
0.847578
0.946522
1.022816
0.921488
1.183748
1.253486
1.280904
1.435876
1.487732
2.138615
10.839701
34.554601
112.222433
212.683678
497.418642
673.493743
863.049030
1015.704870
1015.704870
1015.704870
929.474831
654.596686
322.226882
238.788724
114.108920
52.617788
17.350912
11.328459
10.451674
10.546446
11.039972
11.585951
12.826920
15.082955
20.521879
25.641918
35.897493
44.134855
56.700706
65.481663
72.672963
75.375438
73.129535
68.265796
57.697892
48.945546
38.010478
31.131506
24.605989
##ZVALUE=355
0.248551
0.379682
0.354648
0.307560
0.372529
0.181794
0.318885
0.151992
0.208616
0.264645
0.202656
0.395775
0.370741
0.277758
0.114441
0.330806
0.282526
0.292659
0.213981
0.236630
0.233650
0.372529
0.370741
0.376701
0.374913
0.422597
0.319481
0.157952
0.325441
0.331998
0.429749
0.408888
0.521541
0.364780
0.492930
0.521541
0.378489
0.614524
0.504851
0.481606
0.443459
0.602603
0.461936
0.753999
0.508428
0.744462
0.587702
0.746846
0.702739
0.787973
0.856519
0.828505
0.947714
0.980496
0.941753
1.196861
1.159906
1.440644
1.586676
4.481673
17.837882
72.416663
152.839422
326.336622
520.969629
812.304616
994.426608
1015.584469
1015.584469
951.910019
763.604045
503.463745
317.912698
141.273737
68.324804
23.572445
12.268424
9.861588
9.817481
9.890795
10.648966
11.262894
12.041926
14.158487
17.248988
23.681521
30.448437
40.686727
48.940778
58.927536
65.140724
68.789721
67.381859
61.881542
54.979920
45.777559
##ZVALUE=360
0.198483
0.142455
0.230670
0.241995
0.080466
0.227690
0.207424
0.238419
0.214577
0.232458
0.307560
0.379682
0.194907
0.389814
0.346899
0.365973
0.250936
0.359416
0.277758
0.265837
0.348687
0.279546
0.355840
0.387430
0.301600
0.341535
0.351667
0.442863
0.463724
0.500679
0.466704
0.528693
0.543594
0.321865
0.322461
0.467896
0.523925
0.495911
0.458956
0.378489
0.601411
0.596642
0.643730
0.500679
0.443459
0.685453
0.645518
0.705719
0.707507
0.751615
0.807643
0.828505
0.790954
0.840425
0.893474
0.950694
0.945926
0.982881
1.087785
1.316667
1.499653
2.437830
7.996559
36.899447
93.663931
238.608718
400.664806
661.666989
882.275701
1015.579700
1015.579700
1013.617516
876.169801
595.157743
396.691561
193.733573
101.799965
38.840771
17.078519
9.422898
9.004474
9.307861
9.619594
9.827614
10.115504
11.211634
12.247562
15.259981
18.745661
25.605559
32.810569
43.988824
51.051974
57.936907
61.330795
61.598420
##ZVALUE=365
0.246763
0.274777
0.217557
0.197887
0.268817
0.248551
0.268817
0.314713
0.332594
0.314713
0.345707
0.379682
0.544786
0.441670
0.289679
0.296831
0.414848
0.532866
0.471473
0.335574
0.334978
0.278950
0.323653
0.276566
0.385642
0.288486
0.386834
0.222921
0.291467
0.264645
0.504851
0.526905
0.355840
0.560880
0.613928
0.472665
0.415444
0.651479
0.572801
0.551939
0.600815
0.585914
0.555515
0.426769
0.494719
0.550747
0.648499
0.641942
0.796914
0.666976
0.607967
0.661612
0.643730
0.698566
0.810623
0.790954
0.697970
0.842810
1.025796
1.102686
1.292825
1.323819
1.464486
1.753569
3.524423
21.559596
59.614778
157.888532
290.128589
542.613864
732.601881
951.618552
1015.598774
1015.598774
919.070840
669.013858
473.110676
262.267590
142.182708
52.867532
22.383928
10.009408
8.390546
8.839965
8.773804
8.915663
9.070635
9.402633
9.780526
10.759830
12.599826
16.926527
21.379590
29.576421
36.758780
45.716763
##ZVALUE=370
0.313520
0.228882
0.245571
0.322461
0.302792
0.281930
0.242591
0.136495
0.187755
0.225902
0.173450
0.267625
0.398755
0.308752
0.229478
0.261664
0.402927
0.336766
0.496507
0.272989
0.334978
0.278950
0.465512
0.263453
0.429749
0.228882
0.358820
0.228882
0.372529
0.416636
0.505447
0.438690
0.280738
0.341535
0.437498
0.390410
0.374913
0.414848
0.471473
0.363588
0.362992
0.426769
0.402927
0.451803
0.410676
0.418425
0.381470
0.490546
0.443459
0.430942
0.550747
0.748634
0.624657
0.586510
0.625849
0.729561
0.658631
0.774860
0.731945
0.909567
0.838637
0.925660
1.164675
1.035929
1.318455
1.478791
2.520680
8.673668
46.766996
114.497542
268.855691
426.795483
670.906901
852.029920
1009.172797
1015.576720
916.183591
751.196742
497.111678
328.402519
162.347555
84.496737
30.846000
14.276505
8.173585
7.982850
7.996559
8.050799
8.108616
8.349419
8.703470
8.879900
10.151863
11.244416
14.891624
18.224716
##ZVALUE=375
0.202656
0.159740
0.256896
0.064969
0.278950
0.237823
0.216961
0.308752
0.332594
0.261664
0.166893
0.186563
0.090599
0.129938
0.231862
0.252724
0.344515
0.349879
0.314713
0.284910
0.220537
0.237823
0.266433
0.163913
0.271797
0.219941
0.198483
0.258684
0.243783
0.349879
0.321865
0.329614
0.271797
0.401735
0.383854
0.347495
0.255704
0.361800
0.412464
0.441670
0.391603
0.471473
0.353456
0.533462
0.452995
0.480413
0.381470
0.524521
0.509620
0.414848
0.292659
0.502467
0.561476
0.543594
0.567436
0.637770
0.581741
0.583529
0.546575
0.621676
0.733733
0.621676
0.655651
0.791550
1.034737
1.071692
1.107454
1.290441
1.456738
5.287528
19.522905
71.681738
154.580474
337.155461
520.109534
780.770779
938.932896
1015.560627
1015.560627
860.827565
673.732758
414.949656
262.748003
128.119588
63.763857
21.552444
10.134578
7.268786
7.129908
7.121563
7.256866
7.688999
7.520914
7.734895
7.973909
9.015799
##ZVALUE=380
0.149608
0.136495
0.229478
0.146627
0.304580
0.225902
0.291467
0.273585
0.136495
0.243783
0.172853
0.231862
0.236630
0.163913
0.362992
0.359416
0.424981
0.220537
0.317693
0.274777
0.266433
0.312924
0.051856
0.246763
0.288486
0.203848
0.151992
0.264645
0.294447
0.375509
0.277758
0.383854
0.394583
0.302792
0.414848
0.282526
0.407696
0.406504
0.286698
0.481606
0.427961
0.269413
0.513792
0.327826
0.247955
0.378489
0.447631
0.454783
0.339746
0.332594
0.426769
0.501871
0.447631
0.265837
0.563860
0.421405
0.535846
0.474453
0.625849
0.540614
0.469685
0.665784
0.663996
0.844598
0.737906
0.917912
0.869632
1.089573
1.081824
1.431704
1.595616
2.673864
10.209680
48.877001
112.850666
265.167952
429.908633
673.975945
858.070850
1015.580893
1015.580893
909.812450
752.976537
527.094603
351.779461
171.672702
87.305903
31.559467
13.841987
7.447600
6.585717
6.730556
6.594658
6.866455
6.871819
7.365942
##ZVALUE=385
0.303984
0.164509
0.129938
0.195503
0.267625
0.288486
0.314713
0.362992
0.236630
0.229478
0.230670
0.185966
0.185966
0.254512
0.292659
0.186563
0.372529
0.420809
0.243783
0.266433
0.294447
0.130534
0.298619
0.463724
0.437498
0.332594
0.369549
0.329614
0.275970
0.427961
0.255704
0.348687
0.399947
0.420809
0.251532
0.353456
0.416636
0.425577
0.464916
0.407696
0.493526
0.440478
0.414848
0.290871
0.456572
0.403523
0.548959
0.456572
0.337958
0.496507
0.436902
0.485778
0.374913
0.565648
0.431538
0.448823
0.482798
0.533462
0.466704
0.508428
0.559688
0.626445
0.716448
0.671744
0.648499
0.726581
0.772476
0.796914
0.986457
1.148582
1.258850
1.215935
1.387596
1.841784
5.191565
28.831959
74.163675
186.654925
329.563022
581.346750
777.979493
975.967646
1015.656590
990.865827
868.178010
637.385845
452.242494
246.062875
140.102506
57.397485
23.917556
8.032918
6.204844
6.005764
5.933642
6.347895
##ZVALUE=390
0.301600
0.103712
0.183582
0.073910
0.189543
0.211596
0.187755
0.185966
0.326633
0.200868
0.150800
0.157952
0.083447
0.092983
0.095963
0.262856
0.239611
0.260472
0.055432
0.205636
0.254512
0.272989
0.212789
0.379682
0.334978
0.237823
0.380874
0.228882
0.285506
0.373721
0.179410
0.273585
0.258684
0.359416
0.228882
0.360608
0.342727
0.196695
0.171661
0.215769
0.130534
0.357628
0.278950
0.204444
0.205636
0.257492
0.252724
0.373721
0.261664
0.364780
0.250936
0.334978
0.267625
0.577569
0.487566
0.439882
0.370741
0.516772
0.421405
0.334978
0.410676
0.465512
0.413656
0.485778
0.503659
0.596642
0.669956
0.701547
0.935793
0.736713
1.016855
1.221895
1.157522
1.257658
1.414418
1.393557
2.879500
16.626716
51.564574
149.289966
282.231569
521.672964
707.808733
910.194516
1010.815501
1015.584469
968.846679
760.543942
570.247769
342.595577
196.952820
78.977942
35.936832
10.970831
6.351471
5.486608
##ZVALUE=395
0.124574
0.080466
0.143647
0.135899
0.125766
0.088811
0.262856
0.312924
0.298619
0.253916
0.037551
0.307560
0.190735
0.308752
0.235438
0.262856
0.094771
0.116825
0.239611
0.248551
0.272989
0.167489
0.244975
0.150800
0.290871
0.364780
0.322461
0.196695
0.111461
0.242591
0.241995
0.228882
0.160933
0.195503
0.269413
0.379682
0.420809
0.162721
0.221729
0.248551
0.268817
0.157952
0.307560
0.272989
0.240803
0.338554
0.339746
0.352859
0.379682
0.304580
0.337958
0.377893
0.243783
0.413656
0.349879
0.494719
0.325441
0.396967
0.510812
0.439882
0.479817
0.633597
0.464916
0.590682
0.557899
0.645518
0.626445
0.746846
0.820756
1.033545
0.975728
1.001954
0.889897
1.083612
0.929832
1.136661
1.099706
1.252890
1.780987
8.303523
30.762553
106.388927
205.843449
409.866571
595.816970
851.255655
997.476578
1015.577912
1015.577912
882.752538
681.059957
414.261818
260.588527
120.607615
57.580471
18.689632
##ZVALUE=400
0.141859
0.135899
0.076890
0.086427
0.097752
0.184774
0.172853
0.137687
0.075698
0.293851
0.232458
0.161529
0.176430
0.291467
0.251532
0.132918
0.191927
0.133514
0.161529
0.093579
0.085831
0.310540
0.343919
0.253916
0.199676
0.190735
0.323653
0.286698
0.367761
0.311732
0.168681
0.304580
0.150800
0.286698
0.223517
0.239611
0.172853
0.254512
0.414848
0.340939
0.176430
0.463724
0.322461
0.323653
0.263453
0.259876
0.294447
0.239611
0.264645
0.175834
0.296831
0.326633
0.388622
0.322461
0.290871
0.376701
0.403523
0.293851
0.434518
0.461936
0.380874
0.466704
0.335574
0.447631
0.528693
0.573993
0.650883
0.560880
0.762939
0.878572
0.775456
0.718832
0.739694
0.981688
0.865459
0.840425
0.933409
0.830889
1.367927
1.186728
1.333952
4.624724
16.555786
58.969855
126.644969
282.803774
454.928875
697.726011
868.093967
1004.977822
1015.584469
897.815824
731.547475
482.690930
318.314433
158.826709
##END
