##TITLE=QP00301
##FORMAT=SPECTACLE-ASCII V-1.2
##DATA TYPE=ULTRAVIOLET SPECTRUM
##SECOND TYPE=ULTRAVIOLET SPECTRUM
##DATE=01/24/18
##TIME=17:04:22
##SPECTROMETER/DATA SYSTEM=SPECTACLE
##XUNITS=NM EM
##YUNITS=ENERGY
##YFACTOR=1
##FIRSTX=220
##LASTX=410
##NPOINTS=96
##3DDATA=Equidistant
##ZUNITS=NM EX
##FIRSTZ=210
##LASTZ=400
##ZPOINTS=39
##XYDATA=(Y..Y)
##ZVALUE=210
1.910925
1.851916
1.784563
1.766682
1.602769
1.533628
1.698732
1.504421
2.187490
1.971722
2.021790
1.993775
2.206564
2.560616
2.133846
2.418756
2.781749
2.844930
3.173947
2.754927
3.365874
3.440976
3.775954
3.180504
3.694892
4.805923
5.414486
4.814863
5.624890
4.902482
4.949570
6.038547
5.777478
5.880594
6.332994
6.620884
6.051660
6.273985
6.746650
7.147789
8.151531
7.262826
7.840991
7.928610
8.006692
7.113814
7.815957
8.965731
9.827614
8.275509
9.092689
9.032488
9.395480
9.345412
9.325743
10.159612
10.299683
10.168552
9.487867
9.771585
9.414554
9.802580
11.156797
10.724664
11.561513
12.496710
12.339950
12.604594
15.715957
19.201636
24.251938
24.928451
29.631853
30.622482
34.525990
36.935806
39.350986
39.256811
38.073659
33.867955
32.587647
29.089451
26.308894
23.721457
21.333694
17.046928
13.615489
11.483431
10.873675
10.777712
9.780526
10.807514
11.428595
10.209680
10.960698
10.939837
##ZVALUE=215
5.538464
5.783439
4.891753
4.491806
4.535913
3.305674
3.204942
4.030466
4.467964
4.261732
4.378557
4.033446
3.661513
3.543496
3.535748
3.153682
4.340410
2.860427
4.655719
4.302859
4.750490
4.786849
5.792975
5.173683
5.986691
5.406737
6.101727
6.035566
7.133484
7.074475
8.381605
7.993579
7.430911
8.187890
9.068847
8.921623
9.465814
8.731484
9.719729
9.352565
9.373426
9.705424
10.072589
9.605885
10.011792
9.722710
10.397434
11.098981
11.481643
10.491610
11.470914
10.624528
10.849833
10.401607
10.898709
11.272430
11.848807
11.193752
11.325479
12.048483
12.336969
12.394786
11.769533
12.281537
13.644695
12.966990
14.613867
15.400648
18.486977
19.998550
25.416613
26.742816
32.185912
34.377575
40.790439
41.153431
41.346550
39.702654
39.119720
38.083792
32.971501
32.045841
27.940869
23.838878
19.884706
18.461943
16.625524
14.599562
13.275743
13.063550
13.307929
12.209415
11.267662
11.687875
11.526942
11.401772
##ZVALUE=220
22.642612
21.842718
25.361776
25.610924
25.699735
21.364689
16.712546
12.218952
9.637475
9.367466
9.549856
10.019541
9.862781
8.877516
7.557869
7.593632
6.236434
5.333424
4.705787
4.204512
4.228950
4.983544
6.296635
5.741715
6.376505
7.323623
7.354617
7.344484
8.531809
7.281899
7.455945
7.717609
8.379817
8.520484
9.991527
9.308457
8.965731
9.220839
8.737445
9.224415
10.041595
9.661913
10.578632
10.380745
10.581613
10.363460
11.099577
10.702610
10.927916
11.726618
10.933876
11.824965
11.877418
12.166500
13.555884
12.843609
12.338758
12.169480
12.713671
13.207793
12.939572
12.646914
13.560653
13.356805
14.040470
14.882684
14.428496
16.260743
18.779635
21.041632
26.033521
29.622912
33.772588
37.812591
41.845441
42.118430
43.689609
43.451786
43.173432
40.521622
38.443804
37.433505
33.922791
26.286840
23.013949
18.609762
17.156601
16.604662
16.415715
14.712811
14.323592
13.647676
12.498498
13.411641
13.057590
14.122725
##ZVALUE=225
44.039488
45.347810
62.924623
81.429482
92.079639
93.351603
88.427663
66.603422
53.377748
34.165978
26.856661
20.899773
21.463633
23.331642
23.075938
21.803975
20.559430
17.314553
13.274550
9.887815
8.043647
7.026792
5.333424
6.941557
7.105470
7.609725
7.339716
8.583665
8.263588
9.288788
9.720922
8.872747
10.046959
9.084940
10.081530
10.832548
9.878874
10.250807
9.913445
10.918975
11.179447
11.551976
12.141466
12.627840
13.127923
12.472868
12.652874
12.138486
12.189746
12.978911
12.477636
13.417602
14.563799
13.391972
14.115572
13.727546
14.485717
14.344454
14.540553
15.844703
15.388727
15.604496
14.310479
15.229583
15.899539
17.992854
16.954541
20.507574
20.167828
25.245547
29.007792
30.371547
35.818815
38.607717
38.837790
41.785836
41.467547
42.285919
40.485859
37.649870
36.864877
32.915473
29.778481
28.012991
24.450421
21.126866
22.026896
18.689632
19.904971
17.551780
17.817616
17.431974
16.876459
16.662478
17.663836
17.935634
##ZVALUE=230
43.856502
49.334764
81.094503
134.805441
173.187852
217.719674
241.560936
241.101980
222.784877
186.723471
124.760866
89.002848
54.461956
44.672489
40.258765
42.775869
47.680736
45.629740
39.160848
35.283566
27.510524
15.918612
13.834834
10.009408
7.715821
7.140636
6.902814
7.096529
7.670522
7.618666
8.416772
8.625984
8.310676
8.510947
9.470582
9.844899
9.025931
10.447502
11.210442
10.559559
10.502934
11.589527
11.533499
12.235641
11.528730
11.594892
10.694861
11.668801
13.404489
11.947751
12.085438
13.070703
13.328791
13.153553
13.497472
13.639927
14.348626
12.601614
14.504790
13.635755
15.764832
14.691949
17.253757
17.170906
16.813874
19.596815
20.143986
19.746423
22.381544
24.852753
27.192831
32.253861
36.173463
38.151741
40.944815
42.029619
42.024851
41.025877
39.849877
36.615729
35.458803
31.884909
29.610991
27.705431
25.939941
24.567842
22.608638
24.597645
23.373961
22.594929
22.839904
21.840930
22.554994
23.291707
22.419691
21.310449
##ZVALUE=235
14.681816
17.105937
36.482811
87.081790
143.676996
231.177807
317.233801
410.929918
463.137627
460.310578
413.276553
341.287851
236.105919
170.904994
107.244849
81.717968
69.152713
70.266724
76.023936
76.394677
73.231459
62.976480
49.971938
38.008690
26.912689
16.943812
13.334751
10.578632
10.469556
10.507703
10.678768
10.725856
11.270642
12.185574
10.968447
11.000633
11.469722
11.790991
12.226701
11.543632
11.615753
11.741519
12.289882
11.572838
11.507869
12.409687
11.569858
13.405681
14.706850
13.222694
12.455583
14.215708
14.117956
14.535785
14.250875
16.316772
15.009642
15.676618
16.771555
18.315911
17.430782
18.713474
18.793941
20.085573
20.132661
21.606684
22.684932
23.273826
25.494695
28.434992
33.011436
36.691427
39.488673
41.663647
47.960877
49.629807
49.095750
47.175884
47.989488
43.318868
44.255853
41.816831
38.420558
35.617948
34.829974
32.337904
31.812787
31.711459
30.405521
31.208992
30.864477
29.863715
30.007958
29.136539
29.747486
28.095841
##ZVALUE=240
2.203584
1.866817
10.045767
24.842620
68.840981
131.746531
261.352658
402.244925
595.862865
733.793974
840.029716
846.249461
778.408647
618.588924
480.328798
298.258662
202.433467
130.361915
106.069446
101.445913
110.545754
115.509629
115.322471
105.609894
84.918737
69.052577
49.709678
39.706826
25.340915
20.603538
15.856624
14.578700
15.854836
13.803840
15.819669
13.262630
14.462471
14.867783
14.403462
12.827516
12.587905
14.148951
13.509989
12.370944
13.578534
13.870597
14.779568
14.625788
14.646649
14.620423
15.542507
14.955997
14.925599
16.664863
15.871525
17.133951
17.091632
18.119812
17.461777
18.295646
18.167496
21.288991
21.260977
21.807551
22.516847
23.889542
26.636720
28.694868
32.144785
35.041571
39.571524
45.223832
47.809482
50.153732
52.552819
53.775907
55.033565
54.632425
53.408742
51.433444
50.663948
46.610832
43.905973
43.099523
43.432713
42.997599
41.074753
41.481853
39.677620
40.947795
39.474964
38.227439
38.809776
37.642717
36.488771
38.222671
##ZVALUE=245
1.305938
1.329780
1.651645
2.191663
4.693866
18.291473
56.986809
123.218894
278.523564
436.025858
685.676932
867.739916
990.762711
1015.584469
1003.835797
828.482509
676.945448
455.339551
304.666758
173.530579
122.400522
110.759735
114.442706
129.427910
134.671926
132.441521
115.399957
99.582672
77.615976
60.459971
45.865774
31.153560
23.666620
18.157959
16.143918
15.456676
15.214682
14.472604
13.239980
14.125705
13.137460
12.040734
13.174415
11.016726
11.014938
11.811852
12.020469
12.603998
12.016892
12.744665
12.964606
11.921525
13.406873
13.091564
13.585687
14.548898
14.970899
14.967918
15.272498
16.520619
17.244816
16.449690
18.505454
18.860698
20.879507
21.645427
22.498965
24.279952
27.682781
30.397773
31.390786
36.837459
40.024519
45.000911
46.475530
47.651529
46.395659
47.204494
46.337843
45.531988
44.195652
43.129921
42.699575
39.671659
39.629936
38.344860
38.927794
37.233829
37.698746
39.257407
38.022995
36.356449
38.516521
38.299561
37.765503
36.816001
##ZVALUE=250
1.183748
1.272559
1.377463
1.461506
1.626611
2.013445
2.520680
12.659431
38.452744
109.085441
213.696957
435.389876
644.882917
926.557779
1015.584469
1015.584469
1015.584469
1015.584469
924.554467
634.457469
440.543890
308.833718
147.815943
110.120773
110.730529
127.581954
141.626000
143.990517
139.419436
130.160451
107.677579
87.110996
62.744617
42.498708
28.945804
20.751953
16.633868
14.736652
13.377666
13.383627
12.581944
11.777878
12.030602
11.883974
11.371970
11.547804
10.711551
11.860728
10.580420
11.237860
11.414886
10.838509
11.391640
11.582971
11.700988
11.915565
13.002753
13.516545
13.332963
13.858676
15.447736
14.472604
15.324950
18.098950
17.832518
19.399524
20.410419
21.863580
23.112893
26.124716
29.767752
32.698512
36.689639
38.572550
40.857792
41.299462
40.858984
40.216446
40.108562
40.993690
40.744543
38.024783
38.601756
37.101507
35.357475
35.626888
36.306977
35.457611
33.502579
33.301711
35.952926
33.365488
34.413934
33.839941
33.667684
34.143925
##ZVALUE=255
1.227856
1.125932
1.048446
1.307726
1.558661
1.350641
1.444817
1.604557
1.993775
4.432797
25.720596
68.947673
194.109678
345.403552
621.582866
888.486505
1015.584469
1015.584469
1015.584469
1015.584469
1015.584469
950.664878
671.579838
377.188921
220.899582
117.393732
100.211501
113.341808
129.621625
147.630572
149.166584
145.851970
133.995414
106.883645
84.916949
60.462952
41.932464
27.595758
19.279718
13.005733
11.796951
11.549592
10.895729
10.385513
10.326505
10.830760
11.126995
10.591745
11.431575
10.234714
10.691881
10.048747
10.518432
10.711551
10.192990
10.907650
11.124611
11.569858
11.823773
12.288690
11.928678
13.609529
13.848543
13.518929
14.103651
15.673637
16.163588
18.648505
20.629764
23.701787
23.926497
27.041435
30.391812
30.756593
32.615662
32.509565
34.140944
34.270883
32.506585
32.907724
33.372641
32.475591
31.015873
31.181574
31.521916
31.194687
32.012463
31.184554
31.710863
32.152534
31.054616
31.443834
30.195713
30.678511
31.186938
30.993819
##ZVALUE=260
1.030564
1.241565
1.139641
1.021624
1.345873
1.511574
1.613498
1.738667
1.464486
1.619458
1.866817
3.467798
11.724830
54.539442
119.243860
292.068720
500.671864
843.501687
1015.584469
1015.584469
1015.584469
1015.584469
1015.584469
1015.584469
868.802667
588.162541
322.413445
182.492733
102.738738
90.638995
103.040934
128.720999
144.285560
151.082873
148.783922
129.079819
111.509562
82.719922
60.622692
38.585663
27.343631
15.709996
12.738705
10.034442
10.008812
9.959936
9.563565
10.068417
9.711981
9.696484
9.798408
10.247827
10.302663
9.627938
9.624958
9.988546
10.622740
10.161996
11.306405
10.919571
11.305809
11.911988
12.754798
12.222528
13.214946
13.816953
14.609694
15.657544
18.530488
20.310879
20.485520
22.869706
25.534630
27.290583
28.018951
29.563904
29.286742
29.052496
29.638410
29.837489
28.797984
28.110743
28.906465
27.116537
27.345419
28.251410
28.808713
27.322769
27.888417
29.214621
28.570890
27.870536
28.844476
27.943850
29.096603
30.010939
##ZVALUE=265
0.783801
1.255870
0.998974
1.040697
1.011491
1.012683
1.329780
1.289845
1.283884
1.304746
1.544952
1.997948
1.724958
2.623796
8.380413
28.201938
100.128651
210.935473
387.780666
752.105713
1015.584469
1015.584469
1015.584469
1015.584469
1015.584469
1015.584469
1015.584469
747.057796
482.430458
286.978483
136.990547
95.820427
91.184974
107.439756
134.144425
144.542456
152.582526
146.130919
130.758882
110.573769
87.533593
58.193803
41.490793
24.717450
17.331839
11.840463
9.849668
10.284781
9.704828
9.489655
10.078549
9.055734
9.126663
9.817481
10.203719
9.597540
10.189414
10.453463
10.892749
10.939837
10.623932
11.073947
11.816621
12.111664
13.153553
13.217926
14.542937
15.155673
16.786456
17.650723
19.529462
20.670891
22.638440
24.398565
25.980473
25.579929
25.789738
26.206970
24.835467
25.300980
25.056601
24.721622
24.237633
24.084449
25.437474
25.495887
25.105476
26.062727
24.376512
25.648475
25.746822
25.533438
25.511980
24.890900
26.287436
27.402639
##ZVALUE=270
0.757575
1.011491
1.015663
0.830889
0.951886
0.989437
0.950694
1.106858
1.019835
1.031756
1.286864
1.257658
1.598597
1.883507
2.094507
2.175570
3.308654
16.696453
51.115751
161.764622
329.174995
586.997867
1002.557874
1015.587449
1015.587449
1015.587449
1015.587449
1015.587449
1015.587449
979.814529
684.206486
348.094702
189.198852
85.075498
67.763925
84.560513
108.152628
132.484436
147.949457
153.916478
149.045587
131.577849
111.604929
81.192851
60.955882
37.146807
25.695562
17.413497
13.842583
10.599494
10.482669
9.649992
10.056496
10.023713
9.529591
10.709763
10.005832
10.493994
10.901690
10.414720
11.054873
11.175871
11.680722
11.709929
12.200475
12.822747
14.243722
14.802814
15.933514
17.463565
18.932819
20.566583
21.509528
22.992492
23.663640
24.375916
24.414659
24.468899
23.990870
23.787618
23.066998
23.183823
22.786856
23.213625
23.089647
23.211837
23.922920
24.526715
24.044514
23.481846
24.020672
23.862720
24.122596
24.767518
23.974776
24.580956
##ZVALUE=275
0.784993
0.904799
0.672936
0.820756
1.012683
1.158714
0.960827
0.949502
1.029968
1.350641
1.064539
1.455545
1.424551
1.400709
1.624823
1.721978
1.970530
2.161860
2.592802
8.444786
33.696890
92.685819
272.760987
510.919690
962.401628
1015.584469
1015.584469
1015.584469
1015.584469
1015.584469
1015.584469
1015.584469
954.421759
502.301455
287.616849
119.592547
68.187714
63.827634
80.290437
108.174682
129.715800
147.273540
151.341558
144.620538
131.770968
106.592774
84.319711
58.453679
43.045878
27.080774
18.769503
13.247728
11.548996
10.858774
10.838509
10.554790
10.971427
11.066794
10.889769
11.138916
11.626482
11.637807
12.051463
12.250543
12.750626
12.876987
14.554858
14.585853
15.948415
17.288923
17.916560
20.120740
20.959973
22.237897
23.182631
23.429990
23.570657
23.341775
23.351908
23.068786
22.885799
22.685528
22.651553
22.076964
22.648573
22.745728
22.238493
22.213459
22.959709
22.642612
24.050474
23.167729
22.316575
22.300482
22.358894
23.856759
##ZVALUE=280
0.765920
0.756979
0.693798
0.828505
0.671744
0.925660
1.024604
1.031756
0.894666
0.905991
1.035929
1.124740
1.222491
1.368523
1.118779
1.661777
1.581907
1.540780
2.044439
1.974702
2.207756
3.350973
20.447969
70.444942
230.161548
433.422923
830.327868
1015.592813
1015.592813
1015.592813
1015.592813
1015.592813
1015.592813
1015.592813
1015.592813
692.284703
415.173769
179.664493
87.248683
49.966574
57.769418
83.126426
103.734732
129.698515
144.206882
148.155689
143.340826
126.069784
108.629465
81.031919
62.558651
40.414929
28.506517
18.243790
14.480948
12.278557
11.675954
11.405945
11.052489
12.102723
12.095571
12.388825
12.582541
12.948513
13.074875
14.090538
14.447570
15.236735
15.984774
17.303824
18.339753
20.028949
21.141768
22.748709
23.338795
24.067760
23.957491
23.190975
23.138523
23.357868
22.646785
21.916628
21.778941
21.604896
22.611618
21.526814
22.254586
21.340847
22.217631
21.736622
22.519827
21.597743
22.114515
21.984577
22.485852
21.895766
##ZVALUE=285
0.858903
0.728965
0.624657
0.447631
0.794530
0.797510
0.686646
0.917912
0.836849
0.829697
0.836849
1.011491
0.996590
1.060963
1.149774
1.060963
1.465678
1.404881
1.414418
1.575947
1.776814
1.992583
2.619624
2.880692
7.337928
44.007897
113.960505
315.475464
567.627549
997.774601
1015.584469
1015.584469
1015.584469
1015.584469
1015.584469
1015.584469
1015.585065
900.399685
575.411916
270.007849
134.936571
51.166415
40.106773
55.309534
73.139668
102.893710
123.249888
140.234828
145.038962
139.852762
128.705502
106.996894
86.664557
60.626864
43.573976
27.762651
20.460486
14.168620
12.313724
12.057424
12.054443
12.199879
12.222528
12.515783
13.068914
14.074445
14.327765
15.339851
15.927553
16.988516
17.921925
19.423962
20.430684
21.051764
21.867752
22.567511
22.104979
22.105575
22.334456
21.749735
22.168756
21.592975
21.831989
21.289587
21.242499
21.035671
21.524429
21.974444
22.308826
21.560788
21.399856
21.678805
21.547675
22.214651
21.274686
21.318793
##ZVALUE=290
0.610948
0.785589
0.602603
0.834465
0.796914
0.693798
0.637770
0.749826
0.682473
0.658631
0.923872
0.769496
0.858903
0.916719
0.991821
1.078844
1.146793
1.344681
1.290441
1.463890
1.320839
1.599789
2.161860
2.172589
2.497435
2.817512
3.969669
13.884902
68.797469
167.991519
354.723930
738.305449
1015.584469
1015.584469
1015.584469
1015.584469
1015.584469
1015.584469
1015.584469
1015.584469
740.360618
368.399620
188.774467
67.697763
35.055876
37.360787
50.597787
72.792768
91.684461
117.645860
131.809711
140.802860
137.348771
123.537779
107.277632
80.620646
61.360598
41.245818
29.213428
19.392967
15.380979
13.880730
13.232827
12.538433
13.083816
14.254451
14.397502
15.189648
15.448928
17.302632
18.260479
18.682480
19.899607
21.190643
21.212697
22.347569
21.664500
21.537542
22.058487
21.529794
21.112561
21.112561
21.191835
21.384954
21.288991
20.949841
21.451712
20.801425
21.168590
21.653771
21.335483
21.209717
21.125674
21.029711
21.158457
21.055937
##ZVALUE=295
0.732541
0.678897
0.715852
0.795722
0.699759
0.670552
0.744462
0.645518
0.630617
0.772476
0.971556
0.905991
1.013875
0.856519
0.957847
0.996590
0.797510
0.819564
1.174808
1.242757
1.301765
1.332760
1.530647
1.781583
1.736879
2.101660
2.063513
2.452731
3.019571
5.901456
22.041798
111.617446
262.076855
628.318787
980.298519
1015.586853
1015.586853
1015.586853
1015.586853
1015.586853
1015.586853
1015.586853
997.005701
545.345545
283.495784
96.787810
42.849779
26.342869
32.149553
49.083829
65.347552
90.646744
107.903481
126.355886
134.531856
131.006837
120.116472
99.868774
80.944896
57.489872
43.175817
29.146671
21.971464
16.575456
14.973879
14.165640
13.986826
15.379786
16.253591
17.182827
18.498898
19.535422
20.082593
20.947456
21.828413
21.289587
21.564960
21.124482
21.183491
21.573901
21.869540
21.464825
21.677613
21.651983
22.118688
21.548867
21.503568
21.427870
21.366477
20.853877
21.498799
20.844936
21.336675
20.990968
21.060705
20.179749
##ZVALUE=300
0.552535
0.518560
0.636578
0.703931
0.662804
0.661612
0.755787
0.776649
0.650883
0.718832
0.800490
0.710487
0.889897
0.825524
0.799894
0.883937
1.077652
1.032948
0.990629
1.192689
1.311898
1.257658
1.287460
1.348853
1.625419
1.670718
1.648664
1.908541
1.972914
2.435446
2.931952
3.292561
9.587407
59.312582
155.176520
421.817899
743.950009
1015.584469
1015.584469
1015.584469
1015.584469
1015.584469
1015.584469
1015.585065
1015.584469
799.636841
468.810797
192.020535
84.382892
27.399659
21.250844
29.663444
41.169524
62.651634
81.378818
104.357004
119.823813
128.411651
126.746893
115.327835
102.196932
78.597665
61.749816
43.376684
31.715631
22.725463
18.237829
16.195774
16.431808
16.984940
17.822981
18.923879
19.498467
20.780563
20.722747
20.968914
21.293759
21.819472
21.464825
21.454692
21.658540
21.907687
21.915436
22.113919
21.968484
22.239685
22.110939
21.997690
21.383762
21.512508
21.406412
21.726489
20.931959
20.926595
21.482706
21.027923
##ZVALUE=305
0.658631
0.573993
0.538826
0.573993
0.641942
0.608563
0.602603
0.631809
0.790954
0.743866
0.730753
0.686646
0.764728
0.863671
0.748634
0.828505
0.962615
0.736713
1.098514
0.724792
1.044869
1.027584
1.177788
1.198649
1.319647
1.329780
1.507998
1.384616
1.899600
1.817942
2.078414
2.413988
2.813935
3.156662
5.897880
37.524700
110.251904
322.799683
599.700809
1015.610695
1015.610695
1015.610695
1015.610695
1015.610695
1015.610695
1015.610695
1015.610695
954.113007
592.592955
261.361003
121.801496
36.743879
19.332767
20.422935
27.633905
43.556690
58.524609
80.919862
97.956657
115.596652
122.293830
121.264458
112.581849
95.882416
78.680515
57.739615
44.728518
31.886697
25.357604
20.526648
19.163489
19.595623
19.932985
20.590425
20.815730
21.067858
20.663738
21.081567
21.394491
21.437407
21.522641
22.248626
22.314787
22.749901
22.230744
22.492409
22.590756
22.507906
22.535920
22.405982
21.756887
21.102428
21.442771
21.744967
20.627975
20.872951
##ZVALUE=310
0.586510
0.617504
0.655651
0.662804
0.880957
0.625849
0.723600
0.687838
0.560880
0.748634
0.886917
0.736713
0.922680
0.771880
0.817776
0.938773
0.690818
0.798702
0.815988
1.028776
1.017451
1.159906
1.123548
1.161695
1.189709
1.306534
1.299977
1.549721
1.550913
1.677871
1.537800
2.008677
1.902580
2.130866
2.489686
3.082752
3.413558
16.210675
57.757497
196.009874
399.011970
871.029496
1015.712619
1015.712619
1015.712619
1015.712619
1015.712619
1015.712619
1015.712619
1015.712619
865.757465
421.135426
213.851929
70.011616
26.620626
15.377998
18.262863
26.364923
36.352873
54.625869
70.396662
93.020797
106.575489
115.485787
116.743445
108.896494
97.302794
78.470707
62.986612
45.208931
35.918951
28.482676
24.304986
22.156835
21.130443
21.309853
20.881891
21.461844
21.342635
21.981597
22.196770
22.305846
22.694468
22.835732
23.320913
23.065805
23.419857
23.242831
23.168921
22.535920
23.110509
22.354722
21.748543
22.143722
21.706820
21.947622
##ZVALUE=315
0.432730
0.370741
0.365973
0.412464
0.281930
0.421405
0.383854
0.365973
0.495911
0.451803
0.388622
0.535846
0.458956
0.403523
0.570416
0.621676
0.749826
0.687838
0.616908
0.708699
0.659823
0.576973
0.803471
0.947714
0.922680
0.878572
1.102686
0.849962
0.989437
1.054406
1.234412
1.345873
1.440644
1.506805
1.908541
2.102852
2.274513
2.856851
3.056526
5.772710
38.602948
112.931728
336.751938
616.551638
1015.456915
1015.456915
1015.456915
1015.456915
1015.456915
1015.456915
1015.456915
1015.456915
1015.456915
731.768012
330.000520
149.837732
37.957430
17.057657
14.938712
17.398596
25.156736
34.200549
50.475001
65.994859
87.834597
100.631714
111.299753
112.146735
104.328990
93.461871
73.925853
61.845779
46.891570
37.181973
28.626919
25.395751
22.266507
21.518469
21.785498
21.748543
22.098422
22.045970
22.172928
22.180676
22.328496
22.493601
23.206472
22.795796
23.166537
22.604465
22.365451
22.498965
22.367835
21.985769
21.612644
21.665692
##ZVALUE=320
0.428557
0.376701
0.476837
0.565648
0.566840
0.543594
0.520945
0.654459
0.576973
0.618696
0.719428
0.647902
0.509620
0.601411
0.518560
0.683665
0.625849
0.798702
0.657439
0.740886
0.708699
0.849962
0.768900
0.710487
0.951886
0.885725
1.070499
1.085997
0.994802
1.076460
1.289845
1.122952
1.388788
1.531839
1.540780
1.584888
1.856685
2.093911
2.184510
2.419949
2.826452
3.966689
14.390945
81.372857
207.166076
531.238914
899.620652
1015.584469
1015.584469
1015.584469
1015.584469
1015.584469
1015.584469
1015.584469
1015.584469
821.596384
459.320545
183.624625
77.346563
21.662712
13.855696
14.753938
16.565919
23.450851
32.607913
48.522949
63.170791
82.872510
96.713901
107.793808
110.637546
103.679895
93.101859
75.631738
61.365962
45.215487
36.022663
29.153824
25.161505
23.292899
22.441745
22.632480
22.576451
23.382902
22.705793
23.573637
23.638606
23.050904
23.567677
22.824407
22.575855
22.875667
22.724867
22.269487
22.288561
22.118688
##ZVALUE=325
0.473857
0.469685
0.417829
0.415444
0.502467
0.458956
0.397563
0.476837
0.565648
0.558496
0.472665
0.437498
0.444651
0.496507
0.507832
0.633597
0.564456
0.686646
0.715852
0.690818
0.805855
0.684857
0.726581
0.874996
0.613928
0.770688
0.813603
0.985861
0.936985
1.125932
1.211762
1.215935
1.075864
1.264811
1.369715
1.511574
1.602769
1.720786
1.993775
2.110600
2.404451
2.816916
3.023744
3.782511
8.362532
58.896542
156.261921
420.126915
758.019686
1015.584469
1015.584469
1015.584469
1015.584469
1015.584469
1015.584469
1015.584469
1015.584469
1003.364921
634.374619
264.883637
120.802522
34.133792
16.271472
13.318658
14.480948
17.799735
22.779703
34.231544
46.474934
65.332651
79.739690
95.210671
103.956461
104.030967
98.617673
85.514784
72.842836
57.388544
46.403408
34.513474
29.044747
24.981499
23.601651
22.641420
23.166537
22.727847
22.983551
22.604465
23.001432
23.026466
22.986531
23.121834
22.848845
22.759438
22.021532
22.655725
##ZVALUE=330
0.511408
0.409484
0.469685
0.512600
0.437498
0.639558
0.483990
0.420809
0.464916
0.376701
0.535846
0.331998
0.375509
0.429749
0.468493
0.674725
0.606775
0.557899
0.640750
0.778437
0.640750
0.686646
0.825524
0.839829
0.681877
0.712872
0.633597
0.906587
1.020432
0.951886
1.153946
1.110435
1.152754
1.095533
1.262426
1.438856
1.368523
1.417994
1.762509
1.770854
1.893640
2.267957
2.339482
2.760887
3.087521
3.509521
4.645586
24.628639
84.103942
287.163854
563.728809
1015.584469
1015.584469
1015.584469
1015.584469
1015.584469
1015.584469
1015.584469
1015.584469
1015.585065
985.350013
476.162434
233.644843
71.428418
25.341511
13.828874
13.653636
15.334487
18.107891
25.228858
33.209920
47.993660
61.490536
79.276562
89.954734
99.458694
99.361539
94.390512
84.299445
69.798827
58.565736
43.798685
35.870671
29.015541
25.969744
23.952723
22.735596
22.389889
22.719502
22.753477
22.806525
22.769570
22.854805
22.657514
23.004413
22.923946
##ZVALUE=335
0.387430
0.347495
0.342727
0.348687
0.500679
0.358820
0.318885
0.513792
0.497699
0.459552
0.376701
0.423789
0.433922
0.565648
0.535846
0.442863
0.609756
0.576973
0.555515
0.546575
0.578761
0.619888
0.885725
0.714660
0.703931
0.586510
0.719428
0.711679
0.792742
0.904799
0.997782
1.018643
0.984669
1.016855
1.192689
1.238585
1.207590
1.367927
1.516938
1.450777
1.489520
1.677871
1.966953
1.964569
2.118945
2.553463
2.556443
3.063679
3.445745
10.492802
42.501688
181.040764
390.565395
897.821784
1015.584469
1015.584469
1015.584469
1015.584469
1015.584469
1015.584469
1015.584469
1015.584469
1002.850533
548.484921
276.587605
84.719658
32.803416
15.060902
14.035702
14.615655
16.064644
19.448996
23.922920
34.421682
44.879913
60.531497
73.171854
85.478425
91.468692
93.440413
89.161992
78.638792
67.113638
54.863691
45.980811
35.419464
30.129552
25.904775
24.102926
22.786856
22.605658
22.408962
22.544861
22.545457
22.595525
22.402406
##ZVALUE=340
0.466704
0.368953
0.324845
0.286698
0.514984
0.621676
0.514984
0.682473
0.397563
0.378489
0.481606
0.471473
0.587702
0.482798
0.476837
0.485778
0.568628
0.377893
0.635982
0.534654
0.677705
0.748634
0.694990
0.744462
0.795722
0.873804
0.779629
0.643730
0.794530
0.746846
0.756979
0.761747
0.754595
0.876784
0.786781
0.890493
1.124740
1.093745
1.311898
1.031756
1.223683
1.282692
1.296997
1.583695
1.737475
1.652837
1.954436
2.357960
2.489686
2.667904
3.316998
5.486608
20.067692
109.226704
276.773572
702.529550
1015.611887
1015.611887
1015.611887
1015.611887
1015.611887
1015.611887
1015.611887
1015.611887
1015.611887
684.464574
371.910930
140.412450
50.789714
16.451478
14.738441
15.133619
15.221834
17.248988
19.220710
25.243759
31.855702
44.216514
55.539608
71.348548
80.425739
88.401437
88.671446
84.127784
76.640844
65.109730
55.245757
42.986870
36.075711
29.146671
26.142597
23.372769
22.946596
22.639632
22.541881
23.079515
##ZVALUE=345
0.357628
0.342727
0.399947
0.442863
0.570416
0.419617
0.395775
0.464916
0.532866
0.581741
0.427961
0.555515
0.500679
0.630617
0.287890
0.410676
0.533462
0.504851
0.639558
0.528693
0.489950
0.522733
0.562668
0.563860
0.617504
0.614524
0.728965
0.665784
0.741482
0.673532
0.739694
0.629425
0.866652
0.884533
0.700951
0.881553
0.984669
0.812411
1.129508
1.085997
0.964999
1.267791
1.178980
1.364946
1.579523
1.452565
1.533628
1.989603
1.911521
1.960993
2.486706
2.726912
3.331900
3.792644
9.449720
65.832734
189.564824
509.331822
897.089839
1015.584469
1015.584469
1015.584469
1015.584469
1015.584469
1015.584469
1015.584469
1015.585065
942.834020
551.276803
233.385563
95.329881
25.709867
16.117692
15.012622
14.892817
15.318990
15.877485
18.458962
22.120476
30.719638
39.263964
53.356886
63.454509
75.292587
79.916716
82.247853
80.032945
73.207617
64.859986
52.436590
43.560863
34.402609
30.193925
26.123524
24.462938
23.540854
##ZVALUE=350
0.339746
0.384450
0.413656
0.408888
0.335574
0.450611
0.345707
0.586510
0.545979
0.484586
0.439882
0.426769
0.507832
0.378489
0.497699
0.401735
0.374913
0.622869
0.494719
0.497699
0.438690
0.551939
0.522733
0.702739
0.714660
0.648499
0.705719
0.540614
0.640750
0.722408
0.594854
0.874996
0.760555
0.758767
0.817776
0.862479
0.902414
0.927448
1.159906
0.960827
1.090765
1.135468
1.082420
1.216531
1.367927
1.406670
1.460910
1.623631
1.670718
1.788735
1.971722
2.115965
2.463460
2.683997
2.935529
3.545880
5.130768
30.441880
104.455948
342.315435
662.897825
1015.591621
1015.591621
1015.591621
1015.591621
1015.591621
1015.591621
1015.591621
1015.591621
1011.536717
664.580464
313.725471
143.274665
37.631989
17.459989
14.105439
13.657808
13.763905
14.026761
15.101433
17.395616
22.442937
27.577877
37.247539
45.861602
58.014989
66.534877
74.656606
76.923966
75.135827
70.644617
59.927702
52.803755
43.406487
37.276745
31.445622
##ZVALUE=355
0.385642
0.434518
0.432730
0.382662
0.339746
0.461936
0.615716
0.474453
0.508428
0.486970
0.164509
0.438690
0.544786
0.510812
0.399947
0.446439
0.724792
0.453591
0.581741
0.548959
0.670552
0.589490
0.667572
0.622869
0.599623
0.610948
0.676513
0.556707
0.727773
0.623465
0.756979
0.806451
0.792742
0.641942
0.780821
0.779629
0.993609
0.900626
0.754595
1.099706
1.038909
0.874996
0.970960
1.093745
1.086593
1.323819
1.291633
1.500845
1.489520
1.706481
1.825690
1.947880
1.979470
2.208948
2.280474
2.837777
2.802610
3.239512
4.001856
15.160441
60.322881
233.246684
476.510525
963.440537
1015.584469
1015.584469
1015.584469
1015.584469
1015.584469
1015.584469
1015.584469
1015.584469
845.709443
359.167457
164.805651
47.116876
19.178987
13.028979
12.652874
12.913942
13.246536
13.303757
14.529824
16.350746
19.527674
25.529861
32.116771
42.161942
50.190687
60.235858
66.397786
69.630742
67.898631
63.495636
56.556463
47.357678
##ZVALUE=360
0.413656
0.520945
0.431538
0.479817
0.530481
0.518560
0.211596
0.365973
0.562668
0.555515
0.501871
0.488758
0.533462
0.376701
0.652671
0.542998
0.505447
0.603795
0.636578
0.510812
0.580549
0.589490
0.744462
0.753999
0.570416
0.811815
0.864863
0.790954
0.725985
0.696778
0.879765
0.752807
0.784993
0.947714
0.912547
0.889897
0.898838
1.009703
0.980496
1.037717
1.170635
0.929832
1.094937
1.234412
1.159906
1.411438
1.346469
1.344681
1.519918
1.608729
1.592636
1.791716
1.881719
2.040863
2.134442
2.416968
2.486706
2.900958
3.243685
3.401637
4.408956
5.785823
31.248927
105.684400
344.995856
660.790801
1015.584469
1015.584469
1015.584469
1015.584469
1015.584469
1015.584469
1015.584469
1015.585065
1015.048027
638.237596
262.799859
109.292865
28.484464
14.781952
12.729764
12.868643
12.601614
12.586713
12.978911
13.384819
14.688969
17.074943
21.820664
27.153492
35.945773
43.532848
52.734613
58.840513
62.848926
63.344836
##ZVALUE=365
0.381470
0.426769
0.530481
0.445843
0.536442
0.505447
0.425577
0.427961
0.448823
0.544786
0.509620
0.512600
0.563860
0.551939
0.678897
0.541806
0.654459
0.660419
0.525713
0.599623
0.563860
0.629425
0.584722
0.745654
0.746846
0.800490
0.700951
0.624657
0.868440
0.813603
0.682473
0.888705
0.809431
0.910759
0.936985
0.918508
0.739694
1.056790
1.015663
1.000762
0.999570
1.148582
1.068711
1.066923
1.163483
1.177788
1.325607
1.198649
1.469851
1.390576
1.436472
1.628995
1.649857
1.700521
1.853704
1.883507
2.012849
2.325773
2.616644
2.906919
3.156662
3.755689
4.025698
4.652739
10.830760
73.987842
208.062530
556.326509
971.049666
1015.584469
1015.584469
1015.584469
1015.584469
1015.584469
1015.584469
1015.584469
1015.585065
781.723857
421.315432
146.938562
53.599477
15.468597
12.082458
11.396408
11.433959
11.410713
11.353493
11.439919
11.664629
12.923479
14.606714
18.703938
23.046732
30.462742
36.786795
45.394897
##ZVALUE=370
0.474453
0.496507
0.509620
0.570416
0.437498
0.404716
0.601411
0.438690
0.455976
0.522733
0.446439
0.498891
0.540614
0.475645
0.615716
0.637770
0.457764
0.554919
0.573993
0.583529
0.588894
0.724792
0.721812
0.633597
0.782609
0.553727
0.659823
0.684857
0.779629
0.666976
0.744462
0.717640
0.621676
0.737906
0.805855
0.795722
1.019835
0.711679
0.881553
0.859499
0.973940
0.928640
0.885725
0.902414
1.139641
1.029968
1.044869
1.136661
0.989437
1.165867
1.318455
1.410842
1.405478
1.388788
1.410842
1.671910
1.678467
1.786947
2.077818
2.035499
2.231598
2.595782
2.827644
3.122687
3.590584
4.208684
6.346703
37.341714
131.047964
434.561968
824.241638
1015.584469
1015.584469
1015.584469
1015.584469
1015.584469
1015.584469
1015.584469
1015.584469
941.249728
549.543500
225.166678
101.913810
29.654503
13.134480
10.502934
10.400414
10.591745
10.089874
10.336637
10.265708
10.700822
11.134744
13.198853
15.713573
20.664930
##ZVALUE=375
0.289679
0.433922
0.525713
0.383854
0.360608
0.469685
0.515580
0.446439
0.508428
0.408888
0.510812
0.585914
0.601411
0.435710
0.543594
0.620484
0.489950
0.434518
0.638962
0.564456
0.568628
0.467896
0.536442
0.621676
0.722408
0.692606
0.723600
0.713468
0.614524
0.597835
0.599623
0.801682
0.732541
0.785589
0.746846
0.681877
0.848770
0.627637
0.646710
0.757575
0.762939
0.828505
0.883937
0.774860
1.031756
0.929832
0.951886
0.982881
1.029968
0.931621
1.092553
0.957847
1.065731
1.215935
1.329780
1.269579
1.383424
1.553893
1.678467
1.700521
1.722574
1.908541
2.019405
2.301931
2.437830
2.900958
3.470778
4.188418
5.030632
19.599795
78.301430
298.066735
649.375916
1015.584469
1015.584469
1015.584469
1015.584469
1015.584469
1015.584469
1015.584469
1015.584469
1015.585065
757.931471
366.684794
178.648829
51.217675
18.125772
10.599494
9.915829
9.659529
9.388924
9.438992
9.461641
9.466410
9.619594
10.539889
##ZVALUE=380
0.338554
0.371933
0.350475
0.195503
0.326633
0.349879
0.135899
0.374913
0.241995
0.355840
0.294447
0.354648
0.380874
0.239611
0.440478
0.212789
0.264645
0.345707
0.350475
0.388622
0.501871
0.405908
0.418425
0.335574
0.518560
0.351667
0.476837
0.303984
0.400543
0.501871
0.578761
0.675917
0.543594
0.488758
0.469685
0.598431
0.585914
0.597835
0.595450
0.598431
0.667572
0.603795
0.739694
0.562668
0.810623
0.734925
0.763535
0.770688
0.962615
0.809431
1.081824
1.032948
0.829697
1.105666
1.087785
1.043677
1.118779
1.301765
1.323819
1.320839
1.470447
1.530647
1.622438
1.926422
1.886487
2.430677
2.540946
3.095865
3.592968
4.255772
4.993677
8.953810
36.451817
189.083815
446.641445
985.554457
1015.523672
1015.523672
1015.523672
1015.523672
1015.523672
1015.523672
1015.523672
1015.523672
972.701907
488.308668
249.989629
82.209706
29.191971
11.102557
9.580851
8.940697
8.734465
8.599758
8.595586
8.776784
##ZVALUE=385
0.357628
0.261664
0.247955
0.313520
0.355840
0.320673
0.371933
0.373721
0.387430
0.290871
0.137687
0.409484
0.171661
0.317693
0.418425
0.245571
0.442863
0.181794
0.310540
0.400543
0.421405
0.338554
0.388622
0.476837
0.396967
0.467896
0.525713
0.602603
0.425577
0.611544
0.536442
0.499487
0.669956
0.603795
0.535846
0.529885
0.655651
0.562668
0.531673
0.597835
0.728965
0.659823
0.656843
0.758767
0.722408
0.630617
0.752807
0.804663
0.775456
0.817776
0.805855
0.684857
0.914931
0.918508
0.926852
1.093745
1.044869
1.184940
1.290441
1.236796
1.253486
1.397729
1.527667
1.708865
1.722574
1.811981
2.181530
2.414584
2.645850
3.232956
3.597736
3.888607
4.206896
5.330443
14.451742
91.435909
252.462626
668.106675
1015.584469
1015.584469
1015.584469
1015.584469
1015.584469
1015.584469
1015.584469
1015.584469
1015.584469
728.278756
391.323566
146.598816
54.641962
13.793707
9.117723
8.351803
7.841587
7.848740
##ZVALUE=390
0.211596
0.238419
0.370741
0.243783
0.186563
0.279546
0.321865
0.390410
0.273585
0.303984
0.249743
0.325441
0.448823
0.267625
0.398755
0.346899
0.505447
0.337958
0.304580
0.401735
0.423789
0.437498
0.441670
0.364780
0.357628
0.393987
0.534654
0.433922
0.595450
0.486970
0.543594
0.451803
0.557899
0.654459
0.532866
0.628829
0.595450
0.671744
0.631809
0.470877
0.482798
0.580549
0.601411
0.585914
0.566840
0.565648
0.715852
0.644922
0.586510
0.675917
0.859499
0.882745
0.793934
1.022816
0.935793
1.103878
1.010895
0.941753
1.187921
1.005530
1.260638
1.349449
1.325607
1.390576
1.493692
1.763701
1.984835
2.128482
2.551675
3.032684
3.268719
3.377795
3.681779
3.867745
3.885627
4.431605
7.504821
46.398044
151.926875
498.835444
946.340561
1015.577912
1015.577912
1015.577912
1015.577912
1015.577912
1015.577912
1015.577912
1015.577912
1015.577912
645.396709
245.156884
105.588436
28.180480
11.115670
8.203983
##ZVALUE=395
0.253916
0.293851
0.142455
0.341535
0.351667
0.330806
0.389814
0.178814
0.248551
0.325441
0.334978
0.319481
0.287890
0.285506
0.394583
0.220537
0.332594
0.308752
0.261664
0.305772
0.347495
0.310540
0.354648
0.349879
0.385642
0.340939
0.390410
0.432730
0.509620
0.526905
0.466704
0.460744
0.437498
0.455976
0.402927
0.537634
0.442863
0.687838
0.519753
0.542998
0.566840
0.488758
0.515580
0.764728
0.586510
0.636578
0.633597
0.768900
0.733733
0.794530
0.815988
0.573993
0.734925
0.904799
0.693798
0.941753
0.888705
1.022816
1.096725
1.012683
1.221895
1.399517
1.296997
1.284480
1.452565
1.738667
1.699924
2.131462
2.220869
2.143979
2.553463
2.974868
3.027916
2.784729
3.025532
3.043413
3.272891
3.724694
15.216470
18.655658
96.319914
265.570879
729.056597
1015.580893
1015.580893
1015.580893
1015.580893
1015.580893
1015.580893
1015.580893
1015.580893
1015.580893
770.130754
397.352576
136.699677
52.700639
##ZVALUE=400
0.301600
0.277758
0.427961
0.293851
0.418425
0.476837
0.360608
0.315905
0.277758
0.450611
0.307560
0.452995
0.255704
0.231862
0.174642
0.262856
0.230670
0.137687
0.463724
0.332594
0.431538
0.535846
0.368953
0.426769
0.479817
0.542998
0.247955
0.382662
0.434518
0.372529
0.481606
0.424981
0.513792
0.505447
0.596642
0.547767
0.503659
0.397563
0.561476
0.541806
0.565648
0.613928
0.548959
0.689626
0.681877
0.564456
0.610948
0.709891
0.714660
0.748634
0.709891
0.755787
0.776649
1.045465
0.823736
0.916719
0.959635
0.999570
1.071692
0.945926
1.129508
1.068711
1.156926
1.045465
1.121759
1.340508
1.577735
1.885891
2.247691
2.321601
2.514720
2.392530
2.618432
2.517700
2.644658
2.471805
2.782941
2.872944
3.473759
3.670454
4.289746
12.997985
49.492717
185.253620
412.764549
950.130820
1015.583873
1015.583873
1015.583873
1015.583873
1015.583873
1015.583873
1015.583873
1015.583873
1015.583873
557.453632
##END
