##TITLE=FQP00302
##FORMAT=SPECTACLE-ASCII V-1.2
##DATA TYPE=ULTRAVIOLET SPECTRUM
##SECOND TYPE=ULTRAVIOLET SPECTRUM
##DATE=01/21/18
##TIME=12:45:54
##SPECTROMETER/DATA SYSTEM=SPECTACLE
##XUNITS=NM EM
##YUNITS=ENERGY
##YFACTOR=1
##FIRSTX=220
##LASTX=410
##NPOINTS=96
##3DDATA=Equidistant
##ZUNITS=NM EX
##FIRSTZ=210
##LASTZ=400
##ZPOINTS=39
##XYDATA=(Y..Y)
##ZVALUE=210
2.400875
2.065897
1.594424
2.166629
2.135634
2.228618
2.253652
2.521873
2.964735
2.526641
2.224445
2.676845
2.974868
3.870726
3.626943
3.230572
3.828406
3.902912
4.900694
5.026460
5.690455
6.858706
6.636977
6.601810
7.184744
7.165670
7.611513
8.808970
8.237958
9.285808
9.788871
10.096431
9.832978
10.139942
10.284781
11.874437
10.728836
10.096431
11.366606
11.532903
10.278821
11.395812
11.240840
11.806488
9.997487
10.163784
11.059642
11.213422
12.274981
11.678934
12.683868
11.499524
11.674762
12.229681
12.478828
11.321902
12.430549
11.681914
13.097525
13.028979
12.224913
12.705922
12.562871
13.085604
13.622642
14.248490
15.598536
16.203523
18.061996
21.163821
25.261641
29.684901
37.137866
40.792823
46.008825
48.232675
54.224730
55.497885
53.697824
52.712560
46.701431
40.230751
36.305785
30.157566
25.509000
22.424459
18.258691
15.561581
14.477968
14.093518
13.139844
11.750460
13.439655
14.440417
13.974905
14.507771
##ZVALUE=215
11.046529
9.058714
9.568930
7.219911
5.969405
4.711747
4.997849
4.279613
4.665852
5.508661
5.208850
6.386638
5.316734
4.955530
5.038977
4.492998
5.422831
6.200671
5.474687
6.950498
6.077886
7.506609
8.755922
8.351803
9.371638
9.527802
11.119843
11.738539
11.845827
13.754964
14.831424
15.407801
17.162561
18.026829
16.459823
18.123984
18.878579
16.772747
17.142892
18.423796
18.007755
16.389489
16.467571
19.185543
18.429756
18.326640
16.873479
17.462969
17.469525
16.559958
18.338561
17.178655
16.616583
18.861890
17.250776
18.067956
17.308593
17.570853
17.433763
18.219948
17.291903
18.598437
18.548965
17.926693
19.008517
18.769503
20.396709
22.130609
25.222898
29.032826
34.097433
39.976835
47.636628
51.932931
57.685971
66.971779
67.010522
69.190860
71.728826
70.336461
66.768527
58.700442
55.135489
45.398474
41.976571
29.670000
26.688576
22.313595
20.269752
15.963912
16.165972
15.684962
15.627742
16.580820
15.072823
17.259717
##ZVALUE=220
40.636659
36.813617
43.244958
45.435429
40.524602
33.973455
23.582578
16.490817
12.632608
12.328625
12.447834
12.584925
11.733770
13.555884
11.033416
10.649562
10.361671
8.531809
7.291436
7.824898
8.108616
8.039474
8.180737
9.302497
10.461807
10.968447
12.483597
14.037490
17.386675
19.421577
17.254949
21.631718
24.179816
22.511482
25.541782
25.137663
25.511980
26.900768
25.163889
25.025606
24.441481
24.254918
24.167895
21.737814
25.219917
19.385815
21.529794
18.597841
19.158721
19.282699
19.808412
18.452406
17.480850
18.021464
17.352700
17.681718
17.985702
17.680526
18.272996
15.584826
17.489791
15.835762
15.319586
16.610622
16.228557
17.314553
18.510818
21.002889
22.983551
24.976730
28.365850
37.239790
40.385723
47.905445
51.505566
56.294799
60.907602
61.215758
61.255693
62.488914
58.524609
54.466724
47.521591
40.892959
34.153461
25.732517
22.175908
18.486977
17.460585
16.506910
15.353560
15.479922
15.071630
14.408827
14.255643
14.971495
##ZVALUE=225
90.579987
96.099973
133.262873
182.516575
197.130442
199.774504
189.544559
139.104724
107.176900
68.257451
37.889481
29.360652
25.429726
26.593804
29.340982
26.023984
23.748875
18.292665
15.305877
12.886524
10.934472
9.239912
9.834766
10.631680
10.882616
13.371706
14.078617
17.585754
20.453930
20.223856
23.408532
26.117563
28.028488
28.207898
31.065941
33.144951
32.172799
33.103824
32.325983
31.406879
28.595924
29.636621
28.831959
26.750565
27.929544
24.429560
24.205446
23.132563
25.096536
23.302436
22.808909
20.531416
21.183491
20.661950
20.324588
19.435883
19.455552
20.241737
19.285679
20.698905
20.438433
20.013452
19.843578
21.955967
18.447638
20.000935
20.961761
23.494959
23.796558
28.288960
32.241940
38.612485
43.030977
48.215985
48.419833
51.484704
52.286983
53.176880
50.684810
44.932961
43.393970
38.817525
33.821464
29.418468
25.731921
22.803545
22.279620
21.166801
19.574761
20.096898
19.039512
17.854571
18.645525
18.756986
18.653870
18.331409
##ZVALUE=230
86.820722
96.883774
157.494545
267.508626
355.262756
437.857509
470.016003
457.247496
395.796895
286.622643
192.394853
117.611885
66.798925
51.410794
45.363903
51.310658
54.034591
49.529672
45.332909
40.666461
29.726624
21.673441
15.341640
12.220740
10.127425
11.459589
12.226701
13.972521
17.271638
17.639995
19.222498
20.995736
23.844838
24.694800
26.888847
26.549697
27.091503
27.780533
27.743578
25.397539
26.352406
26.328564
25.953650
25.380850
26.182532
24.174452
20.843744
23.361444
21.283627
20.736456
20.740628
19.808412
19.908547
19.124746
20.197630
19.479990
20.391941
19.400716
18.659830
18.199682
19.243956
19.822717
19.404888
19.667745
20.836592
21.581650
21.486878
20.448565
24.843812
26.421547
29.976964
36.677718
39.307475
41.618943
41.921735
44.818521
46.208501
45.023561
44.673681
41.848421
41.611791
36.516786
33.091903
30.332804
29.210448
26.457906
24.244785
22.386909
22.957921
21.675825
23.202896
23.840666
21.874905
22.397637
21.862984
22.354722
##ZVALUE=235
28.412938
33.883452
76.437593
170.481801
275.514722
438.727736
571.475625
739.744902
814.226866
817.832947
719.144940
583.592653
400.741696
276.785493
166.006684
110.326409
81.460476
81.631541
88.355541
89.354515
85.230470
71.204901
59.223771
41.345954
32.109618
21.224618
18.209815
15.340447
15.611649
15.147924
16.900897
17.984509
19.871593
20.200610
20.395517
19.862652
22.062659
20.796657
21.709800
21.462440
24.328828
21.752715
19.759536
21.331906
20.555854
19.563437
19.390583
20.375848
19.363761
18.984675
19.826889
20.644665
18.825531
19.197464
19.872785
18.633604
20.413995
18.625855
19.414425
20.441413
20.916462
20.899773
20.823479
19.495487
21.851659
21.087527
21.987557
25.079846
25.387406
27.940869
30.401945
34.628510
36.993623
39.624572
43.500662
42.607784
43.827891
44.038892
43.513775
43.311715
39.955974
39.185882
38.483739
35.823584
34.066439
32.879710
31.154752
30.254722
31.100512
31.268001
29.770732
30.202866
28.441548
30.967593
28.557777
27.963519
##ZVALUE=240
2.563596
2.511740
11.403561
30.634999
98.489523
195.700526
423.779488
640.757680
972.355604
1015.617847
1015.617847
1015.617847
1015.617847
870.459676
636.558533
366.230607
238.063931
143.559575
113.303661
103.992820
111.415982
117.481947
110.608935
103.632808
86.172819
70.071816
48.493743
37.294626
25.654435
20.195842
17.768741
17.521977
17.411709
18.551946
16.859770
18.075705
18.606782
17.535686
18.371940
18.785596
19.696951
18.000603
19.432902
18.371940
18.856525
18.471479
19.334555
18.638968
18.809438
19.019842
18.487573
17.859936
17.839670
17.853975
17.357469
19.260645
19.613504
18.515587
17.583966
19.045472
19.610524
19.948483
19.821525
20.680428
21.484494
21.972656
23.387671
24.766922
27.582645
30.307770
34.598708
38.834810
39.760470
46.131611
46.823621
43.998957
47.233701
46.083927
47.498941
43.218732
43.504834
39.414763
40.379763
36.047697
36.374927
36.673546
35.940409
33.436418
35.588741
33.931732
33.885837
34.015775
34.694672
34.292936
33.611655
32.966733
##ZVALUE=245
1.908541
2.262592
2.452731
2.489686
7.137656
25.571585
103.419423
242.203474
560.152531
885.268450
1015.638709
1015.638709
1015.638709
1015.638709
1015.638709
1015.638709
998.028517
625.237823
394.091606
201.076865
130.644441
105.954409
116.901994
129.203796
134.286880
132.913589
116.881728
102.257729
78.234673
61.307549
47.598481
33.863783
27.911663
23.289919
22.705793
20.685792
21.699667
22.037625
22.144914
21.491647
21.671653
21.854639
20.681620
20.909905
19.076467
19.789934
19.753575
19.092560
19.074678
19.576550
20.605922
19.889474
17.753839
18.191934
17.885566
18.463731
18.522739
17.454624
18.256903
17.216802
18.524528
20.177960
19.251704
19.765496
19.406676
21.069646
23.435950
25.305748
25.826693
28.656721
29.536486
34.677982
37.356615
40.912628
41.296482
44.096708
45.373440
44.134855
45.789480
43.478608
41.679740
41.458607
38.916469
36.946535
37.334561
35.620928
34.856796
33.719540
34.860969
32.969713
35.077929
33.958554
33.971667
32.154918
33.156872
32.270551
##ZVALUE=250
1.348853
1.600981
1.537800
1.648664
1.811981
2.013445
5.472898
25.731921
114.859939
234.604478
499.926805
740.985870
985.971689
1015.560031
1015.560031
1015.560031
1015.560031
1015.560031
867.306590
544.488430
352.260470
214.200616
114.447474
96.458793
106.302500
119.825602
137.373805
143.685937
138.797760
130.485892
114.001632
87.310672
71.503520
51.878691
38.623810
29.531717
26.455522
25.182962
26.107430
24.544597
23.428798
22.213459
22.173524
21.414757
22.425652
20.469427
20.972490
19.213557
20.167828
19.560456
17.279983
18.411875
17.491579
16.750693
16.934872
15.997887
15.426874
16.291738
16.597509
15.430450
15.195608
15.624762
15.070438
15.681982
16.414523
17.735958
18.422604
18.672943
20.263791
23.151636
24.932623
26.277900
26.422739
30.195713
33.145547
32.891631
33.613443
33.138990
34.239888
34.321547
33.177733
33.608675
31.472445
31.361580
31.803846
30.529499
29.570460
28.516650
28.900504
29.496551
29.213428
29.789805
30.401945
28.943419
29.873848
30.944943
##ZVALUE=255
1.388788
1.358986
1.480579
1.489520
1.573563
1.343489
1.677871
2.314448
2.578497
7.141829
54.680705
136.888623
324.764848
510.538816
799.253583
1002.816558
1015.638709
1015.638709
1015.638709
1015.638709
850.569606
563.611984
375.251770
199.983716
122.914910
90.416670
93.131661
110.719800
129.749775
150.099993
158.251524
155.137777
144.431591
124.011636
102.688670
75.231791
60.556531
45.700669
38.933754
32.268763
31.778812
29.844642
29.070973
28.847456
26.786923
25.095940
24.366975
22.789836
22.814870
22.297502
20.723939
18.980503
19.565821
18.747449
17.281771
17.278790
17.257929
15.782714
16.506910
16.000867
15.489459
16.218424
14.977455
15.306473
15.564561
16.949773
17.085671
17.595887
17.791986
18.691421
19.524693
22.189617
22.928715
23.509860
24.532676
25.182962
25.559664
27.278662
27.744770
27.489662
28.249621
26.853681
27.049780
26.468635
27.000904
26.078820
26.063919
27.347803
27.150512
27.525425
25.604963
26.632547
28.546453
27.450919
27.647614
26.318431
##ZVALUE=260
1.197457
1.177788
0.990629
1.282692
1.172423
1.668930
1.435876
1.275539
1.671910
1.490712
2.056956
2.978444
13.455749
41.364431
144.603848
293.635726
589.292645
816.123486
1015.638709
1015.638709
1015.638709
1015.231013
864.248872
600.311756
413.345695
236.078501
157.669783
102.107525
87.764859
98.648667
119.012594
147.680640
164.725780
178.926587
172.764659
159.100890
141.443610
112.085938
92.008710
69.487691
56.272745
44.007897
37.828684
34.619570
32.112598
31.537414
29.322505
27.780533
26.596785
25.473833
24.541616
22.220612
22.103786
19.865632
19.092560
17.829537
17.750859
17.299652
15.795827
15.500784
15.237927
15.256405
15.397668
15.028715
14.888644
15.525818
15.275478
15.719533
15.743971
17.241836
17.366409
18.418431
19.308925
19.053817
20.089746
21.348000
21.702647
22.316575
22.839904
24.302602
22.466779
23.089647
23.550987
22.181869
23.692846
24.069548
24.125576
24.320483
24.303794
24.623871
23.675561
25.217533
24.868846
25.199652
24.905801
24.400949
##ZVALUE=265
1.157522
1.126528
1.015663
1.021624
1.225471
1.000762
1.325607
1.206994
1.350641
1.245737
1.399517
1.640916
1.774430
2.121925
4.907846
30.997992
83.844662
207.938552
338.961482
575.482845
756.344795
890.156627
967.544913
943.973660
799.555779
657.619834
473.412871
333.567858
200.417638
136.420727
101.428628
93.545914
108.946562
141.241550
164.332986
180.417895
187.464952
182.136893
167.444944
141.287446
117.720962
88.833570
71.612597
53.437948
46.714544
38.782954
34.847856
32.286644
30.296445
28.212667
26.172996
24.778843
23.881793
21.628737
21.093488
19.060969
19.344687
17.716885
17.165542
15.929937
15.699863
14.459491
15.493631
14.572740
14.329553
14.206767
15.146732
15.039444
14.700890
15.541911
16.246438
17.063618
17.704964
18.423796
18.378496
19.044876
19.343495
19.229650
19.444823
19.609928
20.062923
21.177530
21.324754
21.520853
21.782517
21.891594
22.169948
22.998452
21.897554
23.161769
22.725463
22.525787
22.361875
22.987723
23.745894
23.259521
##ZVALUE=270
0.876784
0.993609
1.065731
0.885725
1.077652
1.189709
1.131892
1.267791
1.134872
1.321435
1.377463
1.424551
1.365542
1.608729
1.599789
1.774430
2.293587
7.087588
20.338893
80.480576
206.880569
411.467552
760.458708
998.094678
1015.647650
1015.647650
1015.647650
965.936780
696.392655
504.286885
336.975455
189.524889
127.395988
92.960596
97.543001
121.464729
143.868923
171.155930
182.546973
190.106630
182.497501
161.042809
140.494704
110.145807
88.755488
64.119697
52.039623
40.124655
35.134554
29.345751
27.215481
25.948882
23.725629
22.072792
21.738410
19.623637
18.553734
18.304586
16.676784
15.752912
15.084743
15.244484
14.946461
14.807582
14.731884
14.849901
14.380813
14.685988
15.547872
15.684962
17.197728
16.906857
17.079711
18.262863
19.048452
19.914508
20.069480
20.303726
20.228624
20.196438
19.988418
20.671487
20.407438
21.085739
21.874905
20.683408
21.428466
21.608472
21.638870
21.937490
22.065639
22.113919
21.116734
20.829439
21.981597
22.125840
##ZVALUE=275
1.040697
0.919700
0.923872
0.732541
1.155734
1.232624
1.017451
1.022816
1.268983
1.180768
1.227856
1.054406
1.199841
1.429915
1.528859
1.505613
1.691580
1.764894
1.947880
4.022717
13.700724
45.791864
173.474550
348.091722
637.858510
847.956538
1015.697718
1015.697718
1015.697718
953.016877
797.543526
558.254719
395.161510
219.786763
140.762925
88.616610
74.796677
87.050796
104.434490
131.559968
150.199533
166.506767
173.244476
163.982511
149.762630
123.604536
102.109909
77.066422
58.891773
40.106773
31.898618
24.828911
21.965504
19.605756
18.834472
17.110705
16.500950
16.013980
15.433431
15.397668
15.193820
15.076995
13.937950
14.931560
14.572740
14.207959
14.383793
14.354587
15.278459
14.864802
15.738606
15.756488
16.509891
17.490983
17.588735
17.941594
17.829537
17.926693
18.251538
19.331574
19.022822
19.226670
19.663572
19.449592
19.950867
19.940734
19.985437
20.041466
20.477772
20.828843
20.793676
20.749569
20.313859
20.677447
20.316839
20.738840
##ZVALUE=280
0.797510
0.840425
0.895858
0.884533
0.765920
0.987649
0.815988
0.916719
1.026988
0.952482
0.872612
0.976920
1.141429
1.135468
0.978708
1.097918
1.189709
1.252890
1.057982
1.434684
1.430511
2.153516
6.904602
34.839511
90.862513
215.584040
341.594815
533.209443
662.001967
789.636970
827.399492
787.695646
704.974532
539.906621
408.269763
242.508650
153.066516
80.358982
55.572987
53.901672
65.507889
90.241432
110.729933
134.009719
147.247910
155.106783
148.728490
131.106973
112.945437
85.636973
67.007542
44.396520
32.394528
21.925569
18.378496
14.340878
13.511777
13.166666
12.606978
12.248755
12.457967
12.883544
12.871623
13.289452
13.653636
13.141632
13.495684
13.844967
14.576912
14.402866
15.002489
15.475750
16.135573
16.326904
17.038584
17.430782
17.974973
17.289519
18.395782
18.283725
18.720627
19.314885
19.081831
19.118786
19.425750
19.119978
19.638538
19.851923
19.850731
19.280910
19.957423
20.009875
19.663572
20.005703
19.636750
19.946694
##ZVALUE=285
0.579953
0.786781
0.572801
0.703931
0.728965
0.694990
0.777841
0.834465
0.695586
0.758767
0.859499
0.789762
0.754595
0.798702
0.792742
0.762939
0.970960
0.893474
0.900626
1.207590
1.177788
1.139641
1.456738
1.570582
3.415942
11.916757
50.838590
115.515590
251.577497
394.526720
542.796850
720.085502
798.361897
813.433528
756.253600
605.817437
476.927757
302.439928
193.014741
97.296834
55.583715
33.930540
36.467910
53.564906
70.484877
100.111961
117.682815
134.218931
140.671730
137.244463
126.134753
103.809834
83.564520
60.057640
42.508841
27.235746
19.157529
13.830662
12.046695
11.306405
11.210442
10.955930
11.359453
12.006760
12.034774
12.318492
12.693405
13.174415
13.355613
14.215708
14.686584
15.143752
15.806556
16.556978
16.866922
17.691851
17.408729
17.772913
18.269420
17.895699
17.991662
19.334555
18.908978
18.628836
19.254684
19.157529
19.249916
19.208789
19.387603
19.438863
19.429922
19.450784
18.658638
18.631816
18.916726
19.768476
##ZVALUE=290
0.653863
0.706911
0.611544
0.769496
0.722408
0.580549
0.732541
0.681877
0.850558
0.939965
0.803471
0.739694
0.836849
0.929832
0.925660
0.834465
0.878572
0.992417
1.062751
1.081824
1.047850
1.083612
1.224875
1.078844
1.397729
1.499653
1.925826
4.921556
24.218559
56.736469
76.769590
245.932937
380.323529
568.576455
683.446527
763.833523
757.100582
655.338764
539.491773
369.171500
246.276855
128.893852
70.183873
32.770634
24.389625
33.006668
45.812726
66.295862
85.406899
110.887885
124.532580
132.016540
132.511854
118.556619
101.949573
76.358914
58.787465
39.203763
27.537942
18.300414
13.948679
11.836886
11.267662
11.423826
11.590719
11.743903
12.301803
12.841821
13.098717
14.021993
14.810562
15.224814
15.525818
16.040802
16.827583
16.986728
17.574430
17.628670
18.157959
18.597841
18.682480
18.245578
18.847585
18.604994
19.373894
18.760562
19.070506
19.553900
19.272566
19.219518
19.586682
19.202828
19.113421
19.163489
18.566847
18.573999
##ZVALUE=295
0.684857
0.556707
0.658631
0.616908
0.709891
0.774860
0.601411
0.614524
0.714660
0.698566
0.811815
0.638962
0.675917
0.764728
0.730753
0.781417
0.885725
0.782609
0.775456
0.764728
0.957847
0.973940
0.967979
1.073480
1.041889
1.103878
1.323819
1.229644
1.640916
2.354980
7.054806
31.202435
72.030425
172.770619
277.847648
451.670885
575.107932
696.218610
731.251836
684.538484
597.820878
432.204008
304.395556
166.538954
93.421936
38.251877
21.392703
19.759536
26.693940
42.548776
59.600472
82.624555
100.251436
119.715929
125.653744
123.398900
114.750862
95.635653
78.029633
54.971576
40.292740
26.007891
18.907785
14.362931
12.679696
12.012720
12.172461
12.788773
12.481809
14.348626
14.273524
15.485883
15.542507
15.867949
16.232729
17.027855
17.301440
18.215775
18.287897
18.925667
19.093752
19.402504
19.836426
19.458532
19.667745
19.443631
19.803643
19.223690
19.591451
20.289421
19.743443
19.234419
19.481778
18.597841
19.070506
18.879771
##ZVALUE=300
0.719428
0.582933
0.565648
0.500679
0.567436
0.603795
0.631809
0.732541
0.717640
0.787973
0.694990
0.742674
0.670552
0.761747
0.744462
0.692606
0.711679
0.688434
0.747442
0.842810
0.852942
0.860691
0.976920
0.762939
0.743866
1.040697
0.999570
1.228452
1.295805
1.242757
1.320839
1.616478
4.446507
15.758872
54.160953
107.826591
224.986672
347.442627
516.487956
623.084903
712.066889
710.380673
624.826550
519.132018
349.618793
233.297944
120.068789
66.230893
26.295781
16.039610
16.852617
23.689866
38.530827
52.722692
75.415969
95.613003
111.501813
118.837953
119.877458
110.988617
94.169974
77.593923
56.152940
42.184591
27.982593
21.079779
15.658736
13.814569
13.580918
13.744831
14.897585
14.823675
15.219450
15.673637
16.815662
17.288923
17.588735
18.133521
18.865466
18.907785
19.650459
19.891858
19.915700
20.439625
20.074844
19.996762
20.073652
19.937754
20.337701
20.055771
19.796491
19.192696
19.884706
19.617677
19.448996
19.186735
##ZVALUE=305
0.904799
0.781417
0.725985
0.655651
0.695586
0.737906
0.796914
0.713468
0.697970
0.752807
0.725985
0.838637
0.653863
0.681877
0.723600
0.927448
0.726581
0.852942
0.875592
0.906587
1.026988
0.983477
0.957847
1.097918
1.006722
1.198649
1.281500
1.140833
1.230836
1.102686
1.032948
1.235604
1.415610
1.474619
2.274513
10.557771
29.129982
85.241795
154.924989
293.518901
413.252711
568.715930
656.186938
699.255466
663.697720
537.207723
423.872471
275.412798
175.285935
82.381964
41.813850
17.295480
12.132525
15.726686
22.343993
37.168860
52.290559
74.009895
89.222789
106.117725
114.143491
114.712715
106.876493
90.467930
75.531602
53.618550
40.687919
28.692484
21.733642
17.568469
15.976429
15.147924
15.736818
16.252995
16.486645
17.387867
18.283725
18.366575
18.867850
19.373894
19.692779
20.397902
19.926429
20.752549
20.792484
21.097660
21.280646
21.239519
20.454526
20.868778
20.738840
20.369887
20.109415
19.981861
20.071864
20.027757
##ZVALUE=310
0.655651
0.619888
0.595450
0.605583
0.700951
0.689626
0.501871
0.575781
0.584722
0.535846
0.617504
0.658631
0.769496
0.644922
0.454783
0.749826
0.695586
0.701547
0.633597
0.779629
0.648499
0.768900
0.845790
0.899434
0.816584
0.834465
0.840425
0.974536
0.948906
0.798702
1.012683
1.004934
1.031756
1.200438
1.213551
1.329780
1.486540
4.418492
14.431477
51.146746
102.430582
214.507580
330.440998
493.389964
599.484444
685.297847
684.670806
604.697466
505.741835
345.771909
233.857632
120.377541
64.990520
25.912523
13.201833
10.462999
13.576746
21.962523
31.269789
48.373938
63.357949
86.023808
98.154545
107.668638
110.128522
103.097558
91.019869
72.893500
58.148503
40.944815
31.388998
23.158789
19.843578
17.776489
17.441511
17.468929
18.220544
18.133521
19.055605
20.070672
19.809604
20.442605
20.585656
21.103621
21.131635
21.450520
21.709800
21.417737
21.554828
21.119714
21.468997
21.026731
20.373464
20.216703
20.218492
20.339489
##ZVALUE=315
0.553727
0.686646
0.517964
0.488758
0.536442
0.493526
0.653863
0.644922
0.749826
0.685453
0.759959
0.628829
0.590682
0.735521
0.604987
0.663996
0.674725
0.670552
0.572801
0.624657
0.726581
0.737906
0.670552
0.768900
0.782609
0.747442
0.737906
0.871420
0.969768
0.878572
0.901818
0.971556
0.964999
1.040697
1.101494
1.111627
1.269579
1.118779
1.283884
2.431870
7.996559
33.551455
72.368979
162.495971
265.865922
431.532860
533.031821
639.023781
677.597523
636.886954
556.275845
405.758619
292.224884
159.277916
88.546872
34.576654
16.843677
9.840727
10.131001
14.185905
18.908978
31.613708
43.118596
62.447786
77.275634
95.321536
103.244781
105.412602
99.614859
86.323619
73.855519
56.147575
44.164658
31.499863
25.225878
20.766854
20.040870
19.294620
19.499660
19.456744
20.025969
20.429492
21.136999
20.932555
21.368861
21.348000
21.594763
21.656752
21.376610
21.903515
21.291971
21.223426
21.095872
20.611882
21.034479
20.472407
##ZVALUE=320
0.609756
0.556707
0.681877
0.757575
0.497699
0.586510
0.667572
0.748634
0.635982
0.621676
0.668764
0.463724
0.509620
0.643730
0.668764
0.693798
0.623465
0.474453
0.531673
0.701547
0.652671
0.707507
0.714660
0.613928
0.774860
0.677705
0.804663
0.814795
0.668764
1.007915
0.865459
0.711679
0.995994
0.861883
0.881553
0.895858
1.013875
1.109838
1.081824
1.183748
1.370907
1.549721
3.748536
19.894838
49.839616
126.085877
205.589533
338.538885
453.387499
587.671995
648.017526
651.888847
601.452589
470.933914
351.191759
201.117992
119.927526
53.321719
26.039481
10.997653
8.815527
10.116696
12.840629
19.450784
27.675629
42.310953
56.606531
75.976849
87.553859
99.506974
101.268888
95.325708
86.831450
70.049763
57.659745
41.770935
33.775568
26.197433
22.758842
20.776987
20.988584
20.475984
21.474957
21.232963
21.568537
21.817684
21.529794
21.686554
21.749735
21.629930
21.556616
20.925999
21.165609
21.126866
21.200776
20.858645
##ZVALUE=325
0.587702
0.562668
0.533462
0.696778
0.514984
0.418425
0.477433
0.507832
0.605583
0.653863
0.670552
0.661612
0.589490
0.620484
0.722408
0.627637
0.573993
0.729561
0.687838
0.648499
0.760555
0.792742
0.662804
0.633597
0.771880
0.643730
0.618696
0.576973
0.652671
0.745654
0.789762
0.850558
0.765920
0.655651
0.692606
0.908971
0.928640
0.971556
0.802875
0.916719
0.990629
1.072884
1.157522
1.393557
2.363920
16.190410
40.370822
95.643401
163.998604
292.942524
403.879881
538.867712
613.296628
650.498867
618.164539
503.621697
390.296578
246.266723
153.213739
70.591569
36.714673
14.580488
9.840727
9.435415
10.391474
13.985634
19.173622
28.750896
40.553808
60.014725
72.406530
87.512732
95.162988
98.081827
93.094707
80.678463
69.373846
53.994656
43.676496
32.494664
27.717948
23.096800
22.275448
21.490455
21.247864
21.349788
21.999478
21.353960
21.858811
21.148920
21.627545
21.105409
21.241903
20.929575
20.931959
21.099448
##ZVALUE=330
0.552535
0.512600
0.567436
0.597835
0.616908
0.535846
0.620484
0.491738
0.466704
0.473857
0.442863
0.424981
0.463724
0.586510
0.631809
0.726581
0.696778
0.658631
0.478625
0.741482
0.521541
0.587702
0.728965
0.563860
0.586510
0.670552
0.798702
0.589490
0.712872
0.734925
0.666976
0.716448
0.739694
0.709891
0.701547
0.707507
0.909567
0.794530
0.898838
0.919700
1.005530
0.890493
1.079440
1.102686
1.247525
1.167655
1.556873
8.904934
27.884841
81.359744
141.023993
254.704952
355.467796
489.177704
575.847626
638.890862
631.423593
548.999906
449.884534
299.155712
196.810961
97.423792
52.136779
21.070838
11.730790
9.416938
9.366870
11.047721
13.875961
20.347834
28.271675
41.352510
54.169893
72.258711
82.731843
91.604590
93.910694
88.877678
79.980493
65.027475
53.818822
41.129589
34.117699
28.074980
24.608970
22.539496
21.361709
21.590590
21.105409
21.263957
20.629764
20.739436
20.774603
20.741820
21.145940
20.672679
##ZVALUE=335
0.650883
0.593662
0.608563
0.463724
0.580549
0.488758
0.527501
0.667572
0.645518
0.531673
0.577569
0.610948
0.499487
0.396967
0.561476
0.602603
0.500679
0.527501
0.757575
0.719428
0.628829
0.602603
0.721812
0.656843
0.569820
0.635982
0.766516
0.722408
0.427961
0.603795
0.684857
0.764728
0.625849
0.702739
0.795722
0.797510
0.823736
0.682473
0.797510
0.843406
1.120567
0.967979
0.916719
0.885725
0.951886
1.058578
1.078844
1.323819
1.405478
4.113913
17.675757
65.249801
123.878717
239.547491
351.112485
495.621562
580.418706
644.388795
648.079515
587.430596
496.959686
348.244905
243.371725
130.876899
71.257949
27.320981
14.803410
9.920597
9.508729
10.514855
12.155771
14.978647
19.672513
29.564500
39.778948
55.635571
66.980720
80.121756
86.698532
88.653564
84.441900
73.362589
63.925982
52.444935
43.983459
33.839941
28.835535
23.808479
22.461414
20.825863
20.938516
20.212531
20.297766
19.821525
19.992590
20.020604
##ZVALUE=340
0.644922
0.450611
0.547767
0.462532
0.630617
0.518560
0.684857
0.580549
0.563860
0.557899
0.558496
0.489950
0.493526
0.538826
0.642538
0.597835
0.566840
0.739694
0.687838
0.632405
0.571609
0.708699
0.594854
0.719428
0.778437
0.621676
0.661612
0.568628
0.440478
0.623465
0.633597
0.647902
0.700951
0.743866
0.760555
0.760555
0.755787
0.785589
0.820756
0.922680
0.890493
0.935793
0.834465
0.980496
0.850558
0.893474
1.018643
1.073480
1.117587
1.293421
1.385808
1.763701
10.837913
38.753748
110.834837
195.029974
347.842574
457.395911
582.085848
646.866560
675.403476
643.201470
533.506870
425.954461
272.433758
174.568892
84.659457
43.342710
16.804934
10.655522
10.149479
10.527968
11.496544
12.483597
15.905499
19.916892
28.531551
38.192868
53.266883
64.990520
77.124834
82.245469
83.318949
80.811977
72.508454
63.969493
51.124692
41.704774
32.799840
27.720928
23.417473
21.272898
20.061731
19.581914
19.280910
19.475818
##ZVALUE=345
0.551939
0.523925
0.664592
0.491738
0.731945
0.742674
0.554919
0.559688
0.631809
0.594854
0.634789
0.760555
0.642538
0.659823
0.563860
0.638962
0.622869
0.581741
0.707507
0.537634
0.659823
0.606775
0.619888
0.698566
0.687838
0.657439
0.602603
0.623465
0.652671
0.718832
0.621676
0.619888
0.792742
0.627637
0.765920
0.651479
0.702739
0.850558
0.707507
0.806451
0.849962
0.758767
0.864863
0.765920
1.015663
0.901818
1.071692
0.845790
1.133680
1.007915
1.186728
1.275539
1.231432
1.420975
2.723932
19.346476
53.157806
127.054453
208.230615
346.236825
450.616479
567.178726
621.038675
626.268983
574.548841
446.974635
337.685943
206.298828
119.444728
25.937557
24.578571
12.677908
10.447502
10.078549
10.488629
11.416674
12.776852
15.815496
19.926429
27.469993
36.464930
49.991608
59.015751
70.168972
75.718760
78.090429
76.232553
68.662763
61.806440
50.121546
40.866733
31.952858
27.191639
22.137761
20.201802
18.962622
##ZVALUE=350
0.486970
0.533462
0.525713
0.513792
0.547767
0.453591
0.551939
0.441670
0.546575
0.464916
0.374913
0.586510
0.419617
0.544786
0.602603
0.418425
0.438690
0.351667
0.399947
0.514984
0.514984
0.748634
0.594854
0.788569
0.530481
0.580549
0.633597
0.643730
0.643730
0.588894
0.565648
0.533462
0.678897
0.667572
0.589490
0.671744
0.683665
0.783801
0.640750
0.565648
0.609756
0.643730
0.637770
0.701547
0.737906
0.612736
0.720620
0.768900
0.721812
0.797510
0.716448
0.933409
0.968575
0.923872
1.096725
1.057982
1.415610
5.596876
16.779900
54.443479
104.296803
211.117864
309.928656
439.649820
525.408983
583.550930
564.713478
478.565693
375.093818
232.602954
147.442818
72.644949
36.290884
14.155507
9.826422
9.823442
10.146499
10.424852
11.112690
12.617707
14.487505
19.778609
24.749637
33.507943
41.669607
53.805709
61.702728
69.501996
71.831942
70.368648
64.899921
55.504441
47.701597
38.731694
31.570792
25.648475
##ZVALUE=355
0.626445
0.497699
0.481606
0.500679
0.520945
0.624657
0.582933
0.489950
0.553727
0.445843
0.557899
0.559688
0.516772
0.570416
0.581741
0.446439
0.484586
0.553727
0.554919
0.692606
0.406504
0.449419
0.492930
0.684857
0.656843
0.590682
0.626445
0.608563
0.642538
0.672936
0.570416
0.683665
0.517964
0.548959
0.664592
0.511408
0.567436
0.785589
0.621676
0.758767
0.602603
0.620484
0.652671
0.670552
0.738502
0.674725
0.666976
0.775456
0.911951
0.685453
0.771880
0.830889
0.824928
0.832677
0.975728
0.918508
0.903606
1.022816
1.275539
2.970695
9.163618
35.612583
73.767900
156.932473
246.075988
380.206704
476.201773
552.810431
560.534596
495.401621
409.244895
276.085734
183.067918
84.600449
43.867826
17.533898
10.758638
9.260774
9.206533
9.485483
10.268688
11.051893
11.896491
14.111996
16.707778
22.503734
28.796792
38.573742
46.253800
55.376887
62.005520
65.220594
64.310431
59.433579
53.463578
45.064688
##ZVALUE=360
0.560880
0.600815
0.634789
0.514984
0.548959
0.486970
0.471473
0.413656
0.404716
0.504851
0.685453
0.647902
0.515580
0.389814
0.639558
0.525713
0.534654
0.557899
0.590682
0.624657
0.602603
0.548959
0.521541
0.427961
0.617504
0.561476
0.604987
0.597835
0.647902
0.668764
0.528693
0.528693
0.667572
0.539422
0.791550
0.602603
0.715852
0.599623
0.638962
0.760555
0.584722
0.744462
0.710487
0.795722
0.674725
0.791550
0.776649
0.754595
0.840425
0.641942
0.752807
0.868440
0.878572
0.853539
1.006722
0.971556
1.022816
1.110435
1.069903
1.156926
1.284480
1.627803
4.156828
18.518567
45.107603
112.204552
187.537670
308.852792
411.738753
514.539480
546.010733
517.212749
446.913838
317.777991
217.352509
111.385584
60.867667
25.738478
13.097525
8.812547
8.812547
8.973479
9.405613
9.465814
9.926558
10.890961
12.050867
14.757514
18.173456
24.690628
31.427741
40.890574
47.841668
55.832863
58.549643
59.166551
##ZVALUE=365
0.444651
0.382662
0.411868
0.442863
0.719428
0.508428
0.489950
0.448823
0.662804
0.444651
0.733733
0.549555
0.546575
0.531673
0.704527
0.522733
0.528693
0.594854
0.476837
0.468493
0.510812
0.444651
0.515580
0.501871
0.413656
0.543594
0.604987
0.431538
0.642538
0.657439
0.661612
0.563860
0.602603
0.660419
0.573993
0.656843
0.638962
0.723600
0.670552
0.615716
0.574589
0.682473
0.839829
0.657439
0.704527
0.651479
0.578761
0.743866
0.586510
0.684857
0.716448
0.873804
0.613928
0.871420
0.742674
0.807643
0.800490
0.918508
0.856519
1.008511
1.059771
1.090765
1.040697
1.416802
1.984835
10.269880
27.380586
75.463653
138.852000
260.520577
357.538462
462.988615
518.696904
521.403551
469.405651
354.958773
257.867575
148.947835
84.118843
33.760667
16.095638
8.651614
8.113980
8.256435
8.293986
8.542538
8.504987
8.980632
9.673834
10.796785
12.763739
16.523600
20.542741
28.047562
34.523606
42.716861
##ZVALUE=370
0.538826
0.605583
0.510812
0.565648
0.588894
0.528693
0.484586
0.431538
0.413656
0.566840
0.466704
0.406504
0.463724
0.378489
0.432730
0.432730
0.514984
0.544786
0.513792
0.517964
0.601411
0.507832
0.540614
0.611544
0.536442
0.525713
0.513792
0.584722
0.618696
0.514984
0.584722
0.509620
0.707507
0.529885
0.539422
0.624657
0.511408
0.732541
0.656843
0.480413
0.554919
0.664592
0.576973
0.643730
0.602603
0.660419
0.572801
0.685453
0.815988
0.636578
0.728965
0.652671
0.729561
0.744462
0.603795
0.839829
0.810623
0.879765
0.821948
0.782609
0.891685
0.883937
0.850558
1.021624
1.028776
1.227856
1.484752
5.645752
17.717481
54.387450
105.167627
204.942822
300.353765
430.261493
496.166945
523.181558
491.220951
396.376848
303.129554
179.711580
106.508732
45.251846
22.795796
9.853840
7.882714
7.493496
7.667542
7.645488
8.056760
8.044839
8.614659
9.031892
9.791851
11.659861
13.826489
18.837452
##ZVALUE=375
0.397563
0.576973
0.474453
0.538826
0.461936
0.383854
0.564456
0.707507
0.559688
0.554919
0.584722
0.614524
0.614524
0.382662
0.534654
0.470877
0.613928
0.546575
0.479817
0.495911
0.557899
0.456572
0.512600
0.637770
0.594854
0.611544
0.425577
0.499487
0.503659
0.554919
0.475645
0.544786
0.687838
0.572801
0.490546
0.590682
0.576973
0.645518
0.664592
0.639558
0.528693
0.575781
0.534654
0.631809
0.829697
0.568628
0.597835
0.551939
0.688434
0.707507
0.607967
0.536442
0.691414
0.677705
0.717640
0.626445
0.634789
0.821948
0.691414
0.669956
0.669956
0.943542
0.813603
0.888705
0.736713
0.953674
1.072884
1.168847
1.370907
2.841949
9.201765
32.068491
70.686936
159.104466
248.387456
377.704501
455.956459
514.959693
508.964658
432.382822
344.787836
217.742920
141.606927
73.341727
39.295554
15.493631
8.524656
6.908774
6.863475
6.980896
7.176995
7.225871
7.565618
7.864833
8.172989
9.125471
##ZVALUE=380
0.466704
0.547767
0.509620
0.565648
0.507832
0.514984
0.470877
0.585914
0.492930
0.581741
0.562668
0.459552
0.545979
0.399947
0.485778
0.427961
0.388622
0.605583
0.477433
0.532866
0.373721
0.320673
0.446439
0.486970
0.537634
0.532866
0.617504
0.541806
0.587702
0.489950
0.590682
0.766516
0.516772
0.565648
0.506639
0.682473
0.656843
0.548959
0.691414
0.559688
0.651479
0.765920
0.745654
0.513792
0.554919
0.649691
0.483990
0.590682
0.532866
0.539422
0.742674
0.677705
0.826716
0.663996
0.762939
0.582933
0.753999
0.707507
0.765920
0.817776
0.792742
0.696778
0.695586
0.772476
0.669956
0.896454
0.843406
0.995994
0.977516
0.848770
1.156926
1.626611
6.145835
18.745661
57.941675
110.067725
210.734606
311.076641
433.928967
495.420694
512.340665
471.850634
378.400683
290.395617
175.773501
105.776787
47.214627
23.748875
9.437799
6.848574
6.161928
6.292462
6.281734
6.722808
6.860495
7.045865
##ZVALUE=385
0.650883
0.435710
0.614524
0.759959
0.649691
0.509620
0.564456
0.737906
0.507832
0.692606
0.629425
0.663996
0.653863
0.555515
0.468493
0.559688
0.561476
0.498891
0.456572
0.644922
0.466704
0.558496
0.479817
0.636578
0.572801
0.759959
0.600815
0.651479
0.631809
0.642538
0.685453
0.749826
0.763535
0.509620
0.490546
0.763535
0.625849
0.765920
0.741482
0.718832
0.794530
0.683665
0.678897
0.647902
0.652671
0.735521
0.721812
0.659823
0.485778
0.714660
0.697970
0.658631
0.680685
0.790954
0.702739
0.737906
0.695586
0.648499
0.791550
0.719428
0.847578
0.908971
0.785589
0.784993
0.849962
0.786781
0.907779
0.813603
0.950694
1.030564
1.026988
1.082420
1.220703
1.185536
2.725720
12.026429
31.823516
87.088943
154.082775
274.377465
369.225740
468.165874
502.955914
487.665534
436.148643
328.925848
238.593817
134.502649
78.301430
34.297705
15.920997
7.081628
5.777478
5.698800
5.979538
5.953908
##ZVALUE=390
0.522733
0.371933
0.528693
0.521541
0.592470
0.555515
0.399947
0.522733
0.479817
0.515580
0.406504
0.435710
0.386834
0.483990
0.524521
0.605583
0.612736
0.372529
0.421405
0.485778
0.429749
0.334978
0.513792
0.407696
0.521541
0.539422
0.626445
0.691414
0.468493
0.509620
0.541806
0.666976
0.670552
0.504851
0.607967
0.523925
0.614524
0.480413
0.547767
0.775456
0.612736
0.549555
0.696778
0.499487
0.578761
0.524521
0.547767
0.575781
0.442863
0.574589
0.666976
0.697970
0.604987
0.613928
0.508428
0.557899
0.702739
0.454783
0.624657
0.532866
0.722408
0.709891
0.606775
0.615716
0.664592
0.646710
0.696778
0.832677
0.762939
0.827909
0.912547
0.983477
0.980496
1.074672
0.901818
1.114607
1.567602
6.565452
20.708442
64.430833
121.977925
231.208801
317.295790
420.260429
477.597713
504.926443
473.883748
385.015607
298.510790
186.803937
111.227632
48.016906
23.820996
8.841753
5.996823
5.364418
##ZVALUE=395
0.544786
0.560880
0.696778
0.458956
0.510812
0.461936
0.571609
0.446439
0.571609
0.467896
0.620484
0.453591
0.514984
0.591874
0.412464
0.501871
0.494719
0.408888
0.526905
0.464916
0.381470
0.428557
0.480413
0.393987
0.606775
0.691414
0.567436
0.668764
0.539422
0.597835
0.487566
0.578761
0.566840
0.562668
0.632405
0.639558
0.679493
0.556707
0.581741
0.447631
0.643730
0.571609
0.577569
0.574589
0.505447
0.510812
0.513792
0.540614
0.573993
0.475645
0.515580
0.685453
0.625849
0.570416
0.468493
0.633597
0.706911
0.607967
0.601411
0.543594
0.666976
0.596642
0.527501
0.594854
0.726581
0.552535
0.671744
0.743866
0.726581
0.891685
0.888705
0.918508
1.018643
1.005530
0.905991
0.995994
1.022816
1.034737
1.267791
3.651977
12.747645
44.573545
88.764429
178.542733
263.878703
384.765863
462.982655
513.750911
506.928563
439.423919
352.914929
228.105783
149.204731
73.940754
36.643744
13.673902
##ZVALUE=400
0.322461
0.457764
0.349879
0.420809
0.624657
0.370741
0.510812
0.590682
0.486970
0.549555
0.486970
0.305772
0.442863
0.410676
0.418425
0.331998
0.299811
0.447631
0.386834
0.535846
0.572801
0.448823
0.464916
0.542998
0.597835
0.573993
0.692606
0.521541
0.484586
0.622869
0.441670
0.544786
0.540614
0.777841
0.556707
0.638962
0.741482
0.463724
0.810623
0.575781
0.510812
0.584722
0.584722
0.618696
0.623465
0.680685
0.627637
0.524521
0.612736
0.574589
0.600815
0.589490
0.732541
0.619888
0.652671
0.780821
0.556707
0.587702
0.664592
0.576973
0.674725
0.563860
0.685453
0.693798
0.637770
0.663996
0.754595
0.660419
0.830889
0.751615
0.839829
0.827909
0.892878
0.879765
0.931621
0.932813
0.741482
0.983477
0.876784
1.068711
1.114607
2.327561
7.124543
26.226640
56.681633
130.208731
209.926963
332.179666
415.030718
490.058661
506.177545
452.472568
376.365781
253.973603
170.381665
89.802742
##END
