##TITLE=QP00352
##FORMAT=SPECTACLE-ASCII V-1.2
##DATA TYPE=ULTRAVIOLET SPECTRUM
##SECOND TYPE=ULTRAVIOLET SPECTRUM
##DATE=01/21/18
##TIME=12:54:39
##SPECTROMETER/DATA SYSTEM=SPECTACLE
##XUNITS=NM EM
##YUNITS=ENERGY
##YFACTOR=1
##FIRSTX=220
##LASTX=410
##NPOINTS=96
##3DDATA=Equidistant
##ZUNITS=NM EX
##FIRSTZ=210
##LASTZ=400
##ZPOINTS=39
##XYDATA=(Y..Y)
##ZVALUE=210
1.995564
1.875758
1.531839
1.607537
1.935959
1.912713
1.663566
2.053976
2.156496
1.945496
2.189875
2.639890
2.422929
2.403855
2.549887
2.805591
3.253818
2.330542
3.114939
3.792644
3.304482
3.581643
4.168749
4.574656
4.485846
5.255938
4.528761
4.869699
6.640553
6.137490
5.383492
6.214976
6.274581
5.730987
6.385446
7.400513
7.500648
7.353425
7.501841
8.070469
7.778406
8.758903
8.332729
9.294748
8.627772
10.872483
9.778738
9.937882
9.573698
10.116696
9.333491
11.746883
10.753870
11.750460
11.957884
11.736751
11.807680
11.805892
12.043715
12.289882
11.808872
12.141466
12.822747
12.906790
14.342666
12.793541
15.503764
15.578866
18.673539
21.950603
27.564764
31.095743
36.231875
42.137504
45.502782
50.541759
52.625537
51.985979
51.501989
49.178600
44.074655
39.174557
35.803914
28.642416
24.415851
18.640757
17.043948
16.288757
14.101863
13.058782
12.651682
11.402965
11.426806
12.368560
11.331439
12.908578
##ZVALUE=215
4.780889
5.266666
5.116463
3.898740
3.346801
3.769994
3.912449
3.755689
3.912449
4.474521
3.927946
3.968477
3.714561
3.897548
3.593564
3.373623
2.916455
3.945827
3.329515
3.801584
4.618764
4.352927
4.171729
4.602671
5.161762
5.462766
6.082654
5.936623
5.906820
6.510615
6.908774
6.217957
6.925464
7.073879
7.269979
7.239580
6.940961
9.177923
8.305907
9.672642
8.535981
9.498596
9.044409
9.981990
9.907484
11.325479
10.141730
10.295510
11.592507
10.838509
11.072755
11.786819
11.274815
11.909604
12.038946
13.002753
13.214946
13.495684
11.941791
13.018847
13.381839
13.264418
14.509559
14.751554
12.716651
14.453530
16.222596
17.409921
18.998981
23.200512
26.237965
31.520724
38.320422
45.043826
46.266913
48.676729
53.148866
53.384900
52.827597
48.782825
48.031807
41.809678
37.228465
31.708479
29.084682
21.162629
19.483566
17.327666
15.043616
13.611913
14.181733
13.478994
12.945533
12.149811
13.029575
13.433695
##ZVALUE=220
16.980767
17.491579
22.548437
21.591783
20.032525
19.111633
13.102889
11.417866
9.109974
9.428859
9.702444
10.494590
10.908842
10.784864
9.016991
7.644892
5.577803
4.771948
4.160404
4.499555
4.699826
5.829930
5.510449
5.385876
6.284714
6.125569
6.217957
6.447434
7.272959
7.289648
6.633997
6.915927
8.208752
8.124709
9.304881
8.109808
9.295940
9.221435
9.719729
9.579659
8.973479
10.962486
9.416938
12.310743
10.885596
12.230873
10.980964
11.286736
12.902617
12.348890
12.034774
13.982654
13.060570
11.976957
13.944507
13.166666
14.714599
14.863610
14.212728
14.780760
14.756918
15.743971
16.919971
16.417503
16.039610
16.571879
15.439987
17.724633
19.705892
23.707747
27.410984
33.655763
33.613443
39.436817
46.271682
47.393441
48.165917
47.680736
47.242641
43.082833
40.707588
39.678812
35.639405
30.820966
27.807951
22.409558
19.803643
15.931726
14.313459
13.395548
13.582706
13.437867
13.911724
13.831854
14.215708
13.764501
##ZVALUE=225
30.603409
33.333898
44.587851
61.246753
68.039894
71.670413
70.053935
55.429935
46.855807
35.941601
24.652481
20.621419
22.780895
23.054481
23.424625
22.864938
19.761920
16.412735
12.699962
8.931756
6.259680
5.322695
5.899668
4.654527
5.299449
4.669428
6.669760
6.083846
6.391406
6.744862
7.527471
5.947948
6.996989
7.556677
6.479621
7.977486
7.187724
7.581711
9.529591
9.838939
8.593798
10.179877
8.656979
9.355545
9.026527
10.905862
10.403991
10.593534
11.174679
11.113882
11.977553
12.391806
12.146831
12.081861
12.628436
12.089610
13.333559
14.016628
14.128685
13.623834
13.361573
13.979673
13.975501
14.089942
14.385581
17.456412
16.275644
17.028451
19.332767
20.890832
24.294853
27.172565
31.239986
33.911467
33.815503
37.758946
36.349893
37.889481
35.145879
33.354759
27.462840
26.441813
24.252534
22.101998
19.160509
17.567873
15.520453
14.171600
13.457537
14.400482
12.660623
11.814833
13.215542
13.852715
13.918877
13.501644
##ZVALUE=230
28.686523
31.064749
51.427484
93.355775
131.227970
173.535943
196.243525
202.019811
193.938613
152.931809
118.044615
83.358884
55.228472
44.875741
44.476986
47.980547
48.826933
48.277974
43.516755
35.294890
25.249720
20.081997
12.692809
9.543896
7.645488
7.134676
6.101727
7.328987
7.360578
8.181930
7.457733
7.265806
7.753968
8.510947
9.230971
8.972883
9.018779
9.657741
9.327531
9.413958
10.480881
11.059642
10.518432
10.735989
10.465980
11.494756
11.351705
11.632442
11.910796
13.541579
13.459921
13.009906
12.976527
12.817979
13.503432
14.712811
14.935732
14.621615
15.066862
15.400648
15.678406
15.550852
15.701652
16.268492
15.626550
17.091632
16.518831
18.653870
20.745993
24.046898
26.731491
30.806661
34.198761
39.208531
39.648414
41.136742
38.713813
40.807724
37.865639
34.644604
32.899976
28.651953
24.753809
23.811460
21.389723
19.505620
17.342567
18.442869
16.902685
16.701818
18.254519
14.996529
15.430450
16.498566
16.222000
17.742515
##ZVALUE=235
11.047721
12.381673
28.254986
68.804622
121.925473
202.999711
278.142691
366.706848
409.621000
420.655608
386.908650
328.390598
227.094889
164.395571
113.374591
85.402727
70.217848
75.278878
84.212422
81.159472
79.516768
65.929890
53.216815
38.947463
27.103424
18.406510
12.916923
9.681582
8.829832
8.626580
8.984804
9.652972
8.840561
8.974671
8.816719
10.251999
9.514689
11.461973
11.309981
10.495782
11.426806
10.958910
11.732578
11.892915
12.463927
12.762547
12.225509
12.018681
12.636781
12.224913
13.841987
13.844967
14.610887
14.595985
16.400814
15.030503
16.227961
17.041564
17.560720
17.795563
17.310977
16.528964
16.861558
18.402934
17.573833
19.001961
20.267963
21.433830
25.556684
30.811429
31.280518
36.497712
37.308931
41.801929
44.262409
45.576692
44.007897
44.525862
40.541887
37.963986
35.620928
33.542514
32.382607
30.088425
27.025938
22.578835
21.945834
21.554828
21.361709
20.488501
19.847751
20.390749
20.438433
19.128919
22.085905
20.801425
##ZVALUE=240
1.767874
2.297759
4.750490
15.026927
47.077537
84.129572
185.971856
291.124582
450.022817
559.743643
653.292537
672.003627
637.170672
522.338748
416.654944
269.424915
188.359618
127.202868
100.873709
98.322630
106.935501
115.161538
110.819936
100.845695
82.367659
66.391826
46.242476
32.707453
20.204782
14.230609
12.339950
8.857846
9.437799
10.340810
10.341406
8.993745
10.055900
9.906888
10.990500
11.340976
11.716485
11.173487
11.435747
11.887550
11.435747
11.239648
12.625456
12.288690
12.653470
15.134811
15.693903
12.608767
13.207793
14.431477
14.538765
15.202761
16.363859
15.758872
16.928911
16.433597
17.567873
17.150640
18.088818
18.960834
19.298792
21.431446
20.161867
23.696423
23.605824
28.078556
30.482411
35.814643
39.313436
42.749643
46.065450
46.648979
45.709610
42.570829
40.164590
39.643645
37.864447
32.447577
31.464696
27.985573
26.117563
26.871562
24.215579
22.994876
23.373961
23.656487
22.871494
22.711754
22.717714
23.524761
23.852587
24.668574
##ZVALUE=245
1.984835
1.862645
2.236962
2.187490
4.367828
12.078881
41.133761
84.359646
196.772814
316.260457
511.286855
656.196475
779.173970
848.105550
826.707482
720.337033
592.393875
414.113998
291.013718
171.215534
120.981932
103.218555
114.030838
122.436881
129.698515
126.817822
110.214949
94.364882
72.772503
54.822564
39.015412
24.745464
17.628670
12.308955
11.625886
11.008978
11.335611
9.484887
10.528564
9.737611
11.121631
10.371804
11.101961
11.189580
11.035800
11.176467
11.836886
11.614561
11.439919
12.072921
12.821555
12.517571
13.032556
12.670755
13.491511
13.831854
13.927817
14.035702
15.669465
14.242530
14.624596
14.921427
15.423894
15.845895
17.126799
17.403960
17.952919
20.474792
21.128654
23.651719
26.481748
28.982759
33.000708
35.849810
35.959482
36.960840
35.945773
33.214688
32.773614
31.238794
29.975772
26.845932
25.281906
24.502873
23.589730
23.466945
20.607710
21.551847
21.740794
21.355748
20.826459
20.746589
20.875931
21.230578
20.613670
20.919442
##ZVALUE=250
1.300573
1.590848
1.523495
1.271963
1.697540
1.744628
2.339482
7.506609
31.442642
71.018934
180.746913
308.105946
460.914969
686.191916
826.159716
948.469639
962.349772
875.827670
749.994516
515.635610
360.463858
233.839750
134.359598
103.053451
103.720427
119.113922
130.669475
137.451887
135.199428
121.494532
106.593966
78.412890
57.502985
37.687421
25.588870
16.673803
11.952519
10.134578
9.465814
9.226799
9.371638
8.149743
10.054708
9.166598
9.222627
9.312630
9.228587
10.446906
9.801984
9.420514
9.841919
9.913445
10.770559
11.264682
10.572672
11.280775
11.157990
11.963844
10.965466
11.801720
12.041926
12.091994
11.384487
12.838840
13.110638
14.034510
15.017986
15.966892
16.708970
19.859672
20.745993
25.269985
24.771690
28.909445
29.117465
28.428435
29.673576
28.445721
26.185513
26.056767
25.395751
24.091601
22.329688
21.056533
20.396709
19.200444
18.825531
19.164681
19.364953
19.230843
18.247962
19.154549
18.552542
18.749833
18.382668
18.897653
##ZVALUE=255
1.486540
1.465678
1.456738
1.420975
1.573563
1.616478
1.590848
1.569986
1.713634
5.356669
19.886494
54.962635
153.344870
268.363953
480.063558
701.575875
971.499681
1015.638709
1015.638709
1015.638709
995.719433
802.880526
500.048995
313.300490
160.526633
106.899738
91.576576
107.184649
120.497942
139.405727
144.912004
136.067867
126.134753
100.911856
80.811977
55.991411
40.065646
22.326708
16.089678
10.556579
9.581447
8.864999
8.955598
9.311438
8.871555
8.971691
8.648634
9.887815
9.743571
9.747744
10.026693
9.209514
10.363460
9.912848
10.426641
10.665655
10.168552
10.733604
10.350943
11.929870
12.481809
11.094809
11.449456
12.288690
12.033582
13.398528
13.109446
13.871789
15.113950
16.230941
18.812418
20.793676
23.176670
25.658607
26.328564
26.425719
26.142001
24.977922
23.707747
22.187829
20.696521
20.821691
18.759966
18.842816
18.021464
16.872883
18.403530
17.462969
16.977787
17.639995
16.986728
17.906427
17.529726
17.622709
17.076731
17.638803
##ZVALUE=260
1.231432
1.409650
1.385808
1.506805
1.181960
1.552701
1.510978
1.506805
1.848936
1.647472
2.197623
3.450513
9.764433
42.790771
94.832778
238.082409
397.678018
681.124926
922.209024
1015.638709
1015.638709
1015.638709
1015.638709
1015.638709
724.096894
485.315919
270.330906
159.500837
90.665817
84.738731
99.565983
125.947595
139.785409
149.244666
143.781900
128.902793
107.878447
78.752637
59.617758
36.641955
26.346445
14.767647
11.805892
9.297729
8.843541
8.984804
8.943677
9.046793
9.675622
8.861423
8.607507
9.827614
9.923577
10.072589
9.768605
10.175705
10.220408
10.561943
10.376573
10.438561
10.867715
10.149479
11.631846
10.651946
11.274815
12.678504
12.162924
12.432933
13.863444
14.732480
16.115904
18.233657
19.072890
20.942688
21.317601
21.379590
21.074414
20.218492
20.629764
18.507838
19.143820
17.543435
17.705560
16.251802
15.755892
15.737414
15.847683
15.140772
15.831590
15.442967
15.828609
15.437603
15.524626
15.749931
15.446544
16.202927
##ZVALUE=265
1.440644
1.415610
1.400709
1.474619
1.565814
1.225471
1.405478
1.360774
1.754761
1.664758
1.594424
1.955628
2.029538
2.551675
5.599856
31.606555
84.440708
208.835602
369.606614
703.476667
984.318852
1015.642881
1015.642881
1015.642881
1015.642881
1015.642881
1015.642881
772.827864
427.435637
247.510672
136.264563
77.707767
81.519485
107.988715
127.056837
146.531463
150.021911
143.929720
130.686760
104.983449
83.118677
56.794882
38.608909
24.832487
16.615987
11.321902
10.446906
9.422898
9.426475
9.056926
9.984970
10.554790
9.725690
10.571480
10.671616
10.322928
10.180473
10.275841
10.687709
10.541677
10.967851
10.892749
10.250807
10.716915
10.647774
11.357665
11.030436
12.893677
12.929440
14.788508
15.121698
16.480684
17.980933
18.884540
19.832850
18.925667
20.000935
18.962622
17.636418
16.833544
16.014576
15.318990
14.598966
14.483929
14.838576
14.184713
13.522506
13.864636
14.517903
14.041662
14.027953
13.889670
14.208555
14.689565
14.338493
14.099479
##ZVALUE=270
1.249909
1.056790
1.243949
1.221895
1.298785
1.075864
1.373887
1.476407
1.344681
1.129508
1.630783
1.586676
1.743436
1.716614
1.864433
1.968741
3.063679
11.714697
38.509965
131.253600
266.436934
467.890501
850.255489
1015.546918
1015.546918
1015.546918
1015.546918
1015.546918
1015.546918
1000.822783
735.309720
386.867523
208.074450
87.666512
66.047907
82.160830
101.354718
129.361749
145.594478
152.378678
145.423412
128.392577
107.254982
80.916882
59.772730
36.383867
25.588870
14.963746
11.303425
9.472966
9.160638
8.368492
8.415580
8.739829
9.166598
9.204745
9.265542
9.471774
9.683967
9.223819
9.196997
9.509921
9.444952
9.445548
9.284616
9.596944
10.501742
10.810494
10.896921
12.641549
12.887716
15.096664
15.808940
16.657710
17.268658
17.196536
17.091632
16.133785
14.766455
13.989806
14.259815
13.505816
12.696981
13.486743
12.969971
12.439489
12.644529
12.697577
11.898875
12.091994
12.367964
12.869835
12.311935
13.454556
13.396740
12.633801
##ZVALUE=275
1.005530
0.911951
0.966787
1.018643
1.000762
1.154542
1.011491
1.167655
1.228452
1.159906
1.377463
1.372695
1.269579
1.571774
1.618862
1.560450
2.099872
2.084970
2.409816
5.190969
20.848513
66.989660
212.174654
404.783487
769.566894
1015.535593
1015.535593
1015.535593
1015.535593
1015.535593
1015.535593
1015.535593
871.752501
470.915437
268.850923
115.081668
63.897967
58.670640
75.109601
102.523565
122.660995
142.253637
146.089792
140.576959
128.064752
100.141764
80.771446
56.400895
40.248632
23.980737
16.499758
10.631680
9.010434
8.235574
8.281469
7.886887
8.141994
8.236766
8.139610
8.305907
8.189678
8.374453
9.124875
8.662939
8.939505
8.341670
9.022951
9.660721
10.227561
11.257529
12.054443
13.103485
13.553500
14.811754
14.844537
15.287995
15.046597
14.259815
13.825893
13.110638
12.029409
12.168884
12.134910
10.969639
11.768937
11.181831
10.967851
11.120439
11.175871
11.964440
11.481643
11.265874
11.330843
11.163950
11.335611
11.548996
##ZVALUE=280
1.242757
1.008511
1.053810
1.079440
1.016855
0.954866
1.133680
1.121759
1.037717
1.386404
1.217723
1.327991
1.254678
1.447797
1.566410
1.487732
1.640916
1.708865
2.049804
2.009869
2.184510
3.188848
15.813708
51.445961
128.929615
320.873857
549.636483
953.918695
1015.638709
1015.638709
1015.638709
1015.638709
1015.638709
1015.638709
988.326669
602.574944
362.966657
155.811906
78.654885
46.248436
53.894520
78.394413
99.966526
137.784481
139.357448
141.754746
138.240457
122.352839
102.985501
77.301860
57.827830
38.767457
26.337504
15.521646
11.008978
8.581877
7.956624
7.933974
7.765889
8.146763
8.273721
8.350611
8.369684
8.553863
8.433461
8.643866
8.864999
9.336472
9.528995
10.824800
11.817813
11.985898
12.769699
13.996959
13.912916
13.595819
13.588667
14.035702
13.124943
12.420416
12.039542
11.662841
11.020899
11.042953
10.410547
11.050701
11.301637
10.255575
10.499954
10.849833
10.794997
10.775924
10.867715
10.860562
10.614991
10.672808
##ZVALUE=285
1.019835
1.077652
1.058578
1.194477
1.059771
1.010895
1.013875
1.174808
1.143813
1.179576
1.091957
1.132488
1.160502
1.383424
1.493692
1.371503
1.418591
1.669526
1.502633
1.612902
1.764894
2.066493
2.336502
2.345443
6.911755
22.940636
82.073808
178.808570
417.528749
696.224570
995.596647
1015.638709
1015.638709
1015.638709
1015.638709
1015.638709
1015.638709
795.491934
495.042801
225.099921
110.045671
44.446588
35.604835
51.901937
70.436597
98.629594
115.077496
134.223700
140.711665
134.023428
124.318004
102.152824
83.521605
58.004856
40.683746
24.368763
16.629696
11.915565
9.426475
8.008480
8.146763
8.115768
8.135438
7.968545
7.951856
8.682609
9.077787
9.316802
9.383559
10.388494
11.263490
11.686683
12.301803
12.845993
13.305545
13.216734
13.037920
13.088584
12.236834
11.963844
11.632442
11.471510
11.079907
10.896921
10.719895
10.277629
10.765791
10.518432
10.669827
10.082722
10.712743
10.225773
10.232925
10.470748
10.253787
10.366440
##ZVALUE=290
1.021624
1.147985
1.118779
0.940561
1.025796
0.962615
0.943542
1.100898
1.176596
0.947714
1.244545
1.211762
1.077652
1.188517
1.246929
1.297593
1.405478
1.539588
1.486540
1.614690
1.471639
1.903772
1.953840
2.239943
2.396703
2.524853
3.617406
9.728670
46.045780
114.559531
239.264965
541.035533
885.772705
1015.638709
1015.638709
1015.638709
1015.638709
1015.638709
1015.638709
1002.305746
695.979595
334.476829
171.369910
61.467886
32.554865
34.339428
47.088861
68.054795
86.816549
112.577677
127.572417
135.067701
134.509802
120.308995
104.044676
77.944994
57.965517
38.808584
26.132464
16.665459
12.050867
9.036660
8.266568
8.656979
8.250475
8.299947
8.617640
9.026527
9.450912
10.384917
10.934472
11.661649
11.828542
12.190938
12.536645
12.515783
11.938810
11.577606
11.347532
11.087656
10.915995
10.582805
10.314584
10.390878
10.172725
10.371804
10.362864
10.497570
10.054708
10.258555
10.420680
10.003448
9.945631
9.753704
9.932518
9.622574
##ZVALUE=295
1.042485
1.046658
0.885725
0.914931
0.996590
0.993609
1.023412
0.968575
0.942945
0.961423
0.933409
0.938773
1.049638
1.218915
1.244545
1.321435
1.192689
1.282692
1.408458
1.371503
1.367927
1.556873
1.671910
1.792908
2.079606
1.902580
2.354980
2.550483
3.113747
5.504489
19.041896
79.605579
187.103748
457.713604
771.727562
1015.638709
1015.638709
1015.638709
1015.638709
1015.638709
1015.638709
1015.638709
962.843895
511.401892
272.404552
95.399618
42.917728
24.310946
29.180646
45.571923
62.253475
86.128712
103.938580
121.542811
130.975842
127.637982
116.437674
97.126961
77.838898
54.178834
39.757490
24.560690
17.223954
12.121797
10.044575
8.947849
8.240938
9.035468
9.470582
10.261536
10.221601
11.738539
12.130737
12.633801
12.396574
12.673736
12.411475
11.613965
11.482835
11.055470
10.887980
10.725856
10.530949
9.817481
10.409951
10.405779
10.432601
10.391474
10.561943
9.953976
10.056496
9.931922
9.991527
9.977818
10.105968
9.869933
##ZVALUE=300
0.916719
0.930429
0.930429
1.141429
0.988841
0.985861
0.970960
1.038909
0.857711
0.885725
1.000762
0.873804
0.937581
1.162887
1.016855
1.164675
1.235604
1.356602
1.380444
1.219511
1.386404
1.496673
1.476407
1.621842
1.721978
1.645684
1.909733
1.910925
2.192855
2.486706
2.720952
3.273487
9.064674
52.430630
133.090019
353.549719
622.601509
1015.638709
1015.638709
1015.638709
1015.638709
1015.638709
1015.638709
1015.638709
1015.638709
710.192919
412.122011
173.179507
77.340007
26.794672
19.927621
28.294921
38.959980
57.964921
76.720715
99.485517
114.353895
122.371912
122.172832
109.898448
96.755624
74.255466
57.413578
38.844943
27.306676
17.322898
13.075471
10.247827
9.485483
10.157824
10.682940
11.494756
11.625886
12.240410
12.439489
11.922717
11.443496
11.381507
11.063814
10.607839
10.599494
10.374784
10.508895
10.465980
10.190606
10.725856
10.794997
10.574460
10.226965
10.323524
10.102987
9.692907
9.756684
9.539723
9.847879
10.107756
##ZVALUE=305
1.027584
0.805855
0.911951
1.048446
1.101494
0.958443
1.059771
1.186728
0.963807
0.811815
1.154542
1.143813
1.080632
1.114607
0.999570
1.013875
1.284480
1.276731
1.293421
1.184940
1.156926
1.408458
1.473427
1.627803
1.655817
1.645684
1.700521
1.840591
2.014637
2.203584
2.267957
2.574921
2.814531
3.006458
5.436540
31.240582
92.520714
277.009010
521.441698
981.497765
1015.638709
1015.638709
1015.638709
1015.638709
1015.638709
1015.638709
1015.638709
971.682072
623.331666
281.157494
131.855607
38.820505
18.313527
19.480586
25.438666
40.308833
55.886507
77.474713
93.032718
109.789968
117.068887
114.559531
107.125640
91.038942
73.988438
52.441955
39.310455
25.642514
18.778443
13.696551
12.503862
11.641979
12.145638
12.421608
12.066960
11.732578
11.513829
11.604428
11.002421
10.889769
10.758638
10.764599
10.260940
10.444522
10.652542
10.581613
10.692477
10.529757
10.817647
10.277629
10.326505
10.359883
10.226965
10.293722
10.103583
9.911656
##ZVALUE=310
0.904799
1.024604
0.889897
0.933409
0.877976
0.924468
1.103878
1.027584
1.015663
0.927448
0.924468
1.034737
1.043677
0.866652
0.893474
1.260638
1.217723
1.125932
1.195669
1.201630
1.310706
1.491904
1.368523
1.345873
1.433492
1.541972
1.461506
1.415610
1.605749
1.846552
1.955628
2.006888
2.237558
2.442598
2.548695
3.246665
3.761649
15.171766
51.870942
184.758902
386.264920
845.124722
1015.650630
1015.650630
1015.650630
1015.650630
1015.650630
1015.650630
1015.650630
1015.650630
824.943781
401.174426
209.793448
70.151687
26.390553
14.738441
16.687512
24.432540
33.181906
50.450563
66.186786
86.691976
99.314451
109.950900
110.020638
102.486610
90.208650
71.215630
56.791902
38.482547
28.738976
20.232797
16.688704
13.250709
12.385845
11.540651
11.458993
10.999441
10.595918
10.689497
10.340810
10.107756
9.810925
10.497570
10.443926
10.369420
10.243654
10.697842
10.336637
10.097623
10.097623
9.947419
10.047555
9.903908
9.666681
9.942651
##ZVALUE=315
0.994802
0.797510
0.790954
0.985861
0.851750
0.942945
0.930429
0.753999
1.021624
0.888705
1.063943
0.949502
0.850558
0.903606
0.839829
0.996590
1.055598
1.155734
1.241565
1.262426
1.181960
1.254678
1.212955
1.182556
1.093745
1.346469
1.238585
1.266599
1.486540
1.533628
1.587868
1.629591
1.920462
2.047420
2.007484
2.245903
2.527833
2.912879
3.044605
6.942749
28.556585
130.360723
293.151736
677.374005
1015.638709
1015.638709
1015.638709
1015.638709
1015.638709
1015.638709
1015.638709
1015.638709
1015.638709
580.664873
307.165980
105.174780
39.496422
14.508963
12.905598
15.970469
21.523833
32.947659
45.134425
64.129829
79.213977
95.030665
103.261471
104.806423
98.994970
84.237456
71.439743
52.836537
40.655732
27.707815
20.630956
14.977455
12.760758
11.529922
10.576844
10.527968
10.758638
10.064840
10.303855
10.054708
10.319948
10.339618
10.404587
10.159612
10.184646
10.361671
10.212660
10.062456
9.865761
10.039806
9.776950
9.347796
##ZVALUE=320
0.900626
1.004934
0.809431
0.960827
0.937581
0.930429
0.957847
0.808835
0.920892
0.973940
0.928640
0.970960
0.883937
0.988841
0.896454
1.063943
0.992417
1.012683
0.987649
1.057982
1.092553
1.152754
1.165867
1.470447
1.336932
1.256466
1.603961
1.382828
1.375675
1.523495
1.561642
1.605749
1.714826
1.556873
1.883507
2.087951
2.392530
2.147555
2.601743
3.048778
3.142953
4.128814
11.445880
71.115494
194.380879
533.301830
896.565914
1015.638709
1015.638709
1015.638709
1015.638709
1015.638709
1015.638709
1015.638709
1015.638709
803.958774
455.268025
187.656879
78.718662
21.275878
12.641549
12.680888
14.294982
20.498633
28.363466
43.450594
57.060719
75.484514
88.525414
98.759532
100.520849
94.149709
85.168481
66.823959
53.180456
36.119819
27.435422
19.161701
14.357567
11.748672
10.852814
10.279417
10.066628
10.303855
10.361671
10.443926
10.098815
10.272861
9.948611
10.281801
10.040998
10.137558
10.199547
10.103583
10.082722
9.532571
##ZVALUE=325
0.758767
1.055598
0.830889
0.918508
0.914931
0.909567
0.940561
1.034737
0.946522
0.951886
0.868440
1.019835
1.108646
0.951886
0.909567
0.947714
1.014471
0.975728
1.058578
1.077652
1.198649
1.232624
1.339912
1.468658
1.251698
1.180768
1.074672
1.375675
1.394749
1.337528
1.496673
1.540780
1.443624
1.560450
1.703501
1.855493
1.744628
2.198815
2.144575
2.276897
2.462864
2.725720
3.054738
3.572702
6.432533
44.503808
127.942562
358.785987
664.283633
1015.642881
1015.642881
1015.642881
1015.642881
1015.642881
1015.642881
1015.642881
1015.642881
978.996754
599.741936
244.948864
110.459924
32.179952
14.326572
10.915995
11.622906
14.179945
18.973947
29.131770
40.169954
57.800412
71.160793
85.375905
93.228817
95.334649
89.190602
75.680614
63.725710
47.051907
36.037564
24.202466
18.424988
13.733506
11.606812
10.444522
10.220408
10.161996
9.782910
10.207891
10.106564
9.765625
10.107756
9.550452
9.581447
9.696484
9.582639
9.438992
##ZVALUE=330
0.835657
0.888705
0.840425
0.824928
0.898838
0.797510
0.890493
0.855923
0.827909
0.958443
0.733733
0.854731
0.790954
0.917912
0.955462
0.855923
1.020432
0.894666
0.841618
0.991821
1.121759
0.930429
1.029968
1.016855
1.090765
1.273751
1.179576
1.123548
1.119971
1.194477
1.153946
1.266599
1.288652
1.458526
1.498461
1.447797
1.634955
1.682639
1.885891
1.911521
2.072453
2.084970
2.371669
2.666712
2.810955
3.407598
4.280806
17.841458
63.499808
241.781473
493.616462
980.920792
1015.642881
1015.642881
1015.642881
1015.642881
1015.642881
1015.642881
1015.642881
1015.642881
742.519498
334.271789
163.571835
53.489804
20.303726
10.769963
10.839701
11.913776
14.084578
19.854903
26.958585
40.146708
52.630901
70.065856
80.446601
89.179873
89.313984
82.577467
72.586536
57.165623
45.049787
31.787753
24.003983
17.263889
14.163852
11.473894
10.545850
10.218620
10.136962
9.670854
9.561777
9.636879
9.523630
9.201765
9.577870
9.278655
##ZVALUE=335
0.749826
0.832677
0.699759
0.789762
0.742674
0.795722
0.810623
0.760555
0.763535
0.790954
0.789762
0.935793
0.893474
0.763535
0.862479
0.885725
0.761747
0.925660
0.888705
0.877976
1.054406
0.701547
0.905991
0.949502
1.049638
1.031756
1.091957
1.008511
1.139641
1.081824
1.336932
1.217723
1.167655
1.040697
1.367927
1.383424
1.374483
1.286864
1.492500
1.672506
1.754761
1.825690
1.854897
2.046824
2.238750
2.490878
2.603531
3.178716
3.418922
8.080602
31.615496
135.717988
306.909680
721.755028
1015.613675
1015.613675
1015.613675
1015.613675
1015.613675
1015.613675
1015.613675
1015.613675
961.812735
504.898429
261.973739
81.810951
29.705763
11.782646
10.559559
10.730624
11.506677
13.971925
18.420815
27.220845
37.448406
52.093863
62.785745
75.098872
81.026554
82.459450
78.288913
66.569448
55.969954
43.362975
34.265518
24.031997
18.492937
13.569593
11.533499
10.563731
9.783506
9.349585
9.226799
8.949637
9.302497
8.973479
##ZVALUE=340
0.797510
0.777841
1.011491
0.756979
0.819564
0.832677
0.867844
0.860691
0.784993
0.944734
0.695586
0.838637
0.741482
0.874996
0.891685
0.930429
0.819564
0.972748
0.951886
0.913739
0.819564
0.854731
0.990629
0.951886
1.010895
0.933409
0.911951
1.056790
1.098514
1.247525
1.235604
1.095533
1.108646
1.237988
1.259446
1.258850
1.365542
1.251698
1.553893
1.408458
1.495481
1.639724
1.814961
1.760721
1.950860
2.003908
2.215505
2.587438
2.663732
2.907515
3.497601
4.763603
15.163422
83.779693
222.117901
583.944917
978.607535
1015.638709
1015.638709
1015.638709
1015.638709
1015.638709
1015.638709
1015.638709
1015.638709
649.342537
344.736576
122.602582
44.800639
14.899969
11.179447
10.714531
10.709763
11.721849
13.747811
18.994808
24.956465
36.069751
46.210885
60.813427
69.468617
76.577663
77.259541
72.306991
64.702630
52.361488
43.265820
32.179952
24.801493
17.152429
13.439655
10.885000
9.911656
9.180903
8.940697
8.894801
##ZVALUE=345
0.806451
0.853539
0.759959
0.879765
0.731945
0.773668
0.784993
0.892878
0.691414
0.820756
0.752807
0.769496
0.880957
0.818968
0.753999
0.705719
0.692606
0.927448
0.765920
0.943542
0.749826
0.826716
0.849962
0.960827
0.989437
0.885725
0.999570
0.999570
0.896454
0.996590
0.975728
1.127720
1.224875
1.110435
1.180768
1.298785
1.283884
1.251698
1.179576
1.518726
1.440644
1.245737
1.426935
1.386404
1.609921
1.748800
1.865625
1.961589
2.168417
2.426505
2.373457
2.910495
3.081560
3.835559
7.322431
45.915842
135.004520
382.158756
702.962875
1015.629768
1015.629768
1015.629768
1015.629768
1015.629768
1015.629768
1015.629768
1015.629768
837.548971
468.172431
177.728534
75.715780
22.577643
12.267828
11.001825
10.518432
10.328889
10.726452
12.392998
15.760660
23.004413
31.640530
44.862628
54.271817
64.187646
69.373846
71.859956
69.592595
61.450601
53.528547
42.098761
32.655001
22.923946
17.339587
12.535453
10.716915
9.769797
##ZVALUE=350
0.701547
0.795722
0.701547
0.799894
0.868440
0.801682
0.652671
0.796914
0.762939
0.893474
0.899434
0.905991
0.821948
0.803471
0.906587
0.889897
0.946522
1.012683
0.869632
0.967979
0.844598
0.992417
1.013875
0.994802
0.954866
0.910759
0.992417
1.065731
1.070499
1.017451
0.990629
1.086593
1.057982
1.159906
1.163483
1.174808
1.127720
1.314878
1.102686
1.279712
1.401901
1.325607
1.349449
1.382828
1.584888
1.705885
1.646876
1.800656
1.880527
1.984835
2.219677
2.282858
2.541542
2.830625
3.186464
3.504753
4.659891
23.192763
79.631805
267.038941
524.757504
1006.400585
1015.638709
1015.638709
1015.638709
1015.638709
1015.638709
1015.638709
1015.638709
975.700617
616.465807
278.039575
122.711658
31.130910
13.621449
10.630488
9.893775
9.422898
9.149909
9.475946
11.287928
15.388727
20.475984
28.905869
37.532449
49.014688
56.764483
64.322948
65.674782
63.674450
58.711767
48.293471
40.881634
30.470490
23.968816
16.827583
##ZVALUE=355
0.989437
0.791550
0.781417
0.704527
0.854731
0.848770
0.869632
0.917912
0.758767
0.870824
0.935793
0.809431
1.102686
0.985861
0.899434
0.879765
1.056790
0.994802
0.967979
1.002550
1.038909
1.003742
1.142621
0.994802
0.964999
1.050830
1.130700
0.962615
0.961423
1.158714
0.804663
1.146793
1.075864
1.144409
1.307726
1.409650
1.426935
1.170635
1.342893
1.284480
1.214743
1.478791
1.299977
1.568794
1.411438
1.498461
1.739860
1.666546
1.812577
1.973510
1.968741
2.128482
2.183914
2.289414
2.536774
2.963543
2.974868
3.559589
4.022717
10.895729
42.995811
186.151862
393.815637
828.738809
1015.638709
1015.638709
1015.638709
1015.638709
1015.638709
1015.638709
1015.638709
1015.638709
806.824565
361.968875
168.900490
46.644807
16.996861
10.046959
9.534955
9.058714
8.411407
8.689761
9.119511
10.619760
12.782812
18.302798
23.943782
33.955574
41.932464
50.904751
56.527853
59.468746
58.782697
53.196549
46.527982
37.451982
##ZVALUE=360
0.624657
0.707507
0.711679
0.718832
0.639558
0.666976
0.677705
0.652671
0.623465
0.560880
0.712872
0.774860
0.712872
0.543594
0.766516
0.680685
0.852942
0.778437
0.699759
0.835657
0.820756
0.780821
0.864863
0.850558
0.799894
0.870824
0.921488
0.850558
0.929832
1.032948
1.091957
1.108646
0.945926
0.874996
1.042485
0.902414
0.976920
1.097918
1.110435
1.135468
1.069903
1.251698
1.375675
1.177788
1.336932
1.355410
1.463890
1.252890
1.494884
1.710653
1.755953
1.838803
1.869798
2.081990
2.141595
2.366900
2.339482
2.663732
2.750754
3.163815
3.675818
5.633831
19.689798
99.843740
251.554847
629.975796
993.113518
1015.452743
1015.452743
1015.452743
1015.452743
1015.452743
1015.452743
1015.452743
963.747501
480.365753
247.998834
85.731745
29.193759
10.232925
8.961558
8.552670
8.142591
7.943511
8.071661
8.113980
9.051561
11.026859
14.760494
20.375848
27.030706
36.381483
43.222904
50.085783
53.200722
53.528547
##ZVALUE=365
0.863671
0.858903
0.888705
0.795722
0.780821
0.895858
0.791550
0.803471
0.848770
0.865459
0.889897
0.958443
1.057982
1.039505
0.866652
0.994802
0.940561
0.895858
0.870824
0.940561
0.980496
0.920892
0.981688
1.133680
0.944734
1.139641
1.152754
1.094937
1.227856
1.177788
1.090765
1.154542
1.146793
1.049638
1.297593
1.278520
1.347661
1.223683
1.173615
1.240969
1.507998
1.390576
1.451969
1.359582
1.568794
1.566410
1.656413
1.644492
1.632571
1.679659
1.779795
1.751781
1.848936
1.990795
2.042651
2.208948
2.440810
2.469420
2.436638
3.151894
3.184676
3.781915
3.950596
4.657507
9.710789
60.583949
168.881416
449.541807
821.733475
1015.638709
1015.638709
1015.638709
1015.638709
1015.638709
1015.638709
1015.638709
1015.638709
699.973702
377.346873
129.731894
46.482682
12.669563
9.038448
8.349419
7.949471
7.724762
7.472634
7.233620
7.237792
8.289814
9.602904
12.794733
17.290711
24.166703
30.382872
38.584471
##ZVALUE=370
0.801682
0.776649
0.803471
0.621676
0.658631
0.623465
0.671744
0.733733
0.712872
0.776649
0.593662
0.821948
0.685453
0.882745
0.866652
0.735521
0.990629
0.882745
0.741482
0.897646
0.807643
0.837445
1.018643
0.863671
1.084805
1.152754
0.816584
0.959635
0.852942
0.941753
0.973940
1.037717
0.962615
1.092553
0.968575
1.079440
0.939965
0.981688
1.006722
1.143813
1.004934
1.243949
1.196861
1.203418
1.302958
1.160502
1.446605
1.352429
1.207590
1.517534
1.516938
1.740456
1.632571
1.552701
1.583695
1.842976
1.726747
1.907945
2.001524
2.155900
2.365708
2.566576
2.751946
3.099442
3.381968
3.839731
5.520582
31.453967
111.585855
362.573862
683.763027
1015.553474
1015.553474
1015.553474
1015.553474
1015.553474
1015.553474
1015.553474
1015.553474
881.786942
500.268936
191.380978
82.274675
23.257732
10.081530
7.777810
7.519722
7.006526
6.836653
6.585717
6.513596
6.461740
7.055998
8.706450
11.159778
15.383959
##ZVALUE=375
0.894666
0.672936
0.865459
0.903606
0.868440
0.744462
0.743866
0.763535
0.855923
0.897646
0.887513
0.718832
0.830889
0.852942
0.852942
0.887513
0.881553
0.889897
0.906587
0.828505
0.810623
0.876784
0.807643
0.892878
0.887513
1.008511
0.892878
0.854731
1.061559
0.986457
0.919700
1.028776
1.014471
1.107454
1.208782
1.144409
1.172423
1.005530
1.150966
1.105666
1.096725
1.201630
1.243949
1.151562
1.279712
1.167655
1.307726
1.385808
1.297593
1.278520
1.441836
1.440644
1.425743
1.550913
1.498461
1.652837
1.729727
1.601577
1.901984
1.960993
2.056956
2.303720
2.339482
2.567768
2.774596
3.083944
3.182888
4.084706
4.606843
15.553832
57.913661
215.329528
473.935008
994.781852
1015.638709
1015.638709
1015.638709
1015.638709
1015.638709
1015.638709
1015.638709
1015.638709
812.498927
404.097438
196.296573
52.812696
17.255545
8.190870
7.645488
7.032752
6.966591
6.509423
6.455779
6.304979
6.179810
6.505847
##ZVALUE=380
0.703931
0.817776
0.705719
0.689626
0.912547
0.738502
0.691414
0.853539
0.666976
0.757575
0.728965
0.853539
0.732541
0.842810
0.861883
1.011491
0.785589
0.795722
1.008511
0.713468
0.939965
0.984669
0.811815
0.837445
0.985861
0.872612
0.821948
0.883937
1.015663
0.970960
0.999570
0.959635
0.775456
0.982881
0.888705
1.106858
1.056790
1.013875
1.127720
1.003742
1.021624
1.052618
0.978708
1.172423
1.055598
1.101494
1.022816
1.287460
1.105666
1.101494
1.213551
1.248717
1.334548
1.186728
1.407862
1.514554
1.621842
1.583695
1.605749
1.719594
1.806617
1.902580
2.126694
1.987815
2.225637
2.471805
2.685785
3.085732
3.564954
3.991723
4.683733
7.428527
29.461980
153.766870
361.243486
842.037797
1015.638709
1015.638709
1015.638709
1015.638709
1015.638709
1015.638709
1015.638709
1015.638709
981.382728
507.972836
255.706906
79.999566
27.788877
9.360909
7.572770
7.007718
6.653666
6.227493
5.950928
5.881786
##ZVALUE=385
0.717640
0.616908
0.697970
0.665784
0.735521
0.580549
0.599623
0.759959
0.692606
0.706911
0.762939
0.655651
0.764728
0.648499
0.787973
0.648499
0.741482
0.798702
0.744462
0.666976
0.754595
0.740886
0.749826
0.640750
0.867844
0.750422
0.720620
0.789762
0.782609
0.707507
0.705719
0.776649
0.850558
0.796914
0.912547
1.005530
0.911951
0.887513
0.885725
0.961423
0.811815
0.827909
0.941753
0.754595
0.856519
1.078844
1.026988
0.800490
1.012683
1.041889
1.005530
1.124740
1.074672
1.069903
1.282692
1.240969
1.347661
1.363754
1.381636
1.411438
1.441836
1.442432
1.683831
1.684427
1.701713
1.958609
2.065897
2.404451
2.740622
3.112555
3.251433
3.643632
4.024506
5.021691
13.453960
85.040927
231.638551
595.027804
990.298986
1015.626788
1015.626788
1015.626788
1015.626788
1015.626788
1015.626788
1015.626788
1015.626788
710.965991
403.999686
161.492825
58.639646
12.669563
7.383823
6.355643
6.070733
6.061792
##ZVALUE=390
0.506639
0.586510
0.471473
0.370741
0.562668
0.500679
0.770688
0.534654
0.588894
0.559688
0.572801
0.581741
0.481606
0.776649
0.691414
0.682473
0.558496
0.837445
0.793934
0.601411
0.456572
0.689626
0.771880
0.777841
0.777841
0.503659
0.550747
0.695586
0.828505
0.714660
0.742674
0.522733
0.702739
0.900626
0.755787
0.675917
0.889897
0.696778
0.685453
0.802875
0.833869
0.893474
0.981688
0.897646
0.965595
0.893474
0.900626
0.860691
0.843406
1.093745
1.109838
1.100898
0.992417
1.176596
1.143813
1.143813
1.199841
1.352429
1.358986
1.142621
1.312494
1.246929
1.471639
1.559854
1.827478
1.950860
2.045631
1.977682
2.530813
2.782941
3.144741
3.051758
3.323555
3.415942
3.656745
4.286766
7.129908
42.442679
139.238834
444.453359
849.608779
1015.535593
1015.535593
1015.535593
1015.535593
1015.535593
1015.535593
1015.535593
1015.535593
1015.535593
716.213584
294.799805
127.093792
26.380420
9.282827
6.452799
##ZVALUE=395
0.697970
0.766516
0.724792
0.836849
0.787973
0.644922
0.817776
0.815988
0.708699
0.589490
0.770688
0.767708
0.828505
0.688434
0.761747
0.758767
0.653863
0.778437
0.669956
0.739694
0.822544
0.720620
0.830889
0.772476
0.845790
0.903606
0.677705
0.830889
0.813603
0.720620
0.927448
0.856519
0.806451
0.963807
0.810623
0.961423
0.937581
0.888705
0.911951
0.919700
0.997782
0.928640
0.912547
1.032948
0.810623
1.027584
1.040697
0.928640
1.088977
1.060963
1.178980
1.131892
1.160502
1.146793
1.073480
1.276731
1.371503
1.238585
1.266599
1.464486
1.315475
1.401901
1.384616
1.425743
1.704693
1.742840
1.882911
2.274513
2.397895
2.601743
2.605915
2.834797
2.772808
2.949834
3.128648
3.179908
3.539920
3.758669
5.143881
19.349456
118.555427
287.391543
666.047931
1015.638709
1015.638709
1015.638709
1015.638709
1015.638709
1015.638709
1015.638709
1015.638709
1015.638709
710.100532
379.125476
137.142539
55.105686
##ZVALUE=400
0.579953
0.638962
0.618696
0.685453
0.607967
0.728965
0.645518
0.821948
0.650883
0.721812
0.638962
0.849962
0.683665
0.781417
0.610948
0.525713
0.686646
0.688434
0.607967
0.770688
0.738502
0.654459
0.788569
0.702739
0.813603
0.783801
0.733733
0.775456
0.772476
0.796914
0.785589
0.746846
0.754595
0.921488
0.757575
0.824928
0.737906
0.790954
0.823736
0.810623
0.743866
0.962615
0.691414
0.902414
0.859499
0.918508
0.896454
0.886917
1.015663
1.104474
0.968575
1.197457
1.225471
1.028776
1.057982
1.097918
1.406670
1.182556
1.202822
1.322627
1.266599
1.236796
1.498461
1.324415
1.519918
1.620650
1.895428
1.952648
2.256632
2.318621
2.513528
2.609491
2.791882
2.608895
2.614856
2.744794
2.596974
3.066659
3.295541
3.483891
4.439950
9.731650
63.060522
186.372995
518.452525
918.913484
1015.638709
1015.638709
1015.638709
1015.638709
1015.638709
1015.638709
1015.638709
1015.638709
860.299468
521.537662
##END
