##TITLE=QP00651
##FORMAT=SPECTACLE-ASCII V-1.2
##DATA TYPE=ULTRAVIOLET SPECTRUM
##SECOND TYPE=ULTRAVIOLET SPECTRUM
##DATE=01/21/18
##TIME=13:21:28
##SPECTROMETER/DATA SYSTEM=SPECTACLE
##XUNITS=NM EM
##YUNITS=ENERGY
##YFACTOR=1
##FIRSTX=220
##LASTX=410
##NPOINTS=96
##3DDATA=Equidistant
##ZUNITS=NM EX
##FIRSTZ=210
##LASTZ=400
##ZPOINTS=39
##XYDATA=(Y..Y)
##ZVALUE=210
1.798868
1.894832
1.860857
1.804829
1.832843
2.146959
2.251863
2.317429
2.131462
2.474785
1.971722
2.136827
1.960993
1.935959
2.248883
2.252460
2.173781
2.265573
2.282858
2.817512
2.856851
2.766848
3.021955
3.370643
3.029704
3.396869
3.521442
3.179908
3.530979
3.866553
3.358722
3.411770
3.739595
3.839731
3.555417
3.438592
4.389882
4.450679
4.123449
4.072785
4.151464
4.509687
4.549623
4.448891
4.246831
5.455613
4.632473
5.014539
4.047751
4.458427
3.989935
4.685521
4.230738
4.176497
4.249811
4.588962
4.812479
5.204678
4.100800
5.244613
5.095601
4.723668
4.392862
5.458593
5.415678
5.265474
5.351901
4.999638
6.569624
7.084608
7.983446
10.183454
11.414886
12.241602
13.444424
14.016628
13.853908
12.795925
13.039708
12.294650
11.347532
10.310411
8.489490
7.939935
6.997585
6.979704
4.902482
4.778504
4.424453
4.605651
4.307628
4.853606
4.567504
5.292892
4.938841
5.534887
##ZVALUE=215
3.938675
3.645420
4.074574
3.592968
2.971888
3.922582
3.354549
3.230572
3.774762
4.719496
3.915429
3.412962
3.493428
3.231764
2.538562
2.369881
2.611876
2.745986
2.545714
2.682805
2.906919
3.291965
3.078580
3.075600
3.555417
3.576875
3.222823
3.810525
3.121495
4.115701
3.417730
3.897548
3.766418
3.815889
4.769564
4.181862
3.993511
3.874898
5.013943
4.149675
4.919767
5.033612
4.362464
4.259944
4.625916
4.618764
4.154444
4.551411
4.073977
4.555583
4.255772
4.415512
5.231500
4.925728
4.011989
5.308986
4.210472
4.925728
5.569458
5.582571
4.540682
4.635453
5.045533
4.799962
4.950762
5.245805
4.711747
6.185770
6.462932
7.172823
7.596612
9.345412
10.374784
10.947585
11.699796
12.444854
12.764931
13.215542
12.275577
11.589527
9.828806
9.081960
8.352995
7.553697
7.100701
5.440712
5.490780
5.568862
4.830956
4.811883
4.928708
4.042983
4.760623
5.243421
4.148483
5.184412
##ZVALUE=220
12.648702
13.667941
14.719963
15.386939
17.129779
15.392900
11.055470
10.323524
9.489655
8.109808
9.167790
10.284781
10.378957
8.642673
7.595420
6.151795
4.910827
4.589558
3.837943
2.978444
3.258586
3.330708
3.812909
3.256798
3.380775
3.563762
4.009604
4.150867
3.774762
4.329681
4.380941
4.323721
4.010797
4.458427
4.804730
5.104542
4.782677
4.731417
4.340410
4.709959
4.673600
4.408956
4.722476
5.324483
4.473925
4.829764
4.974604
4.913807
5.184412
4.439950
4.816651
4.986525
4.756451
4.792809
5.078912
5.604625
4.998446
5.370975
4.885793
4.757643
6.066561
4.435778
5.000830
5.209446
5.238652
6.032586
5.880594
5.730987
5.517602
8.421540
7.583499
9.330511
10.533929
11.559725
12.399554
13.610721
13.979673
12.838840
12.472868
11.467934
11.652708
9.510517
8.252859
8.567572
7.124543
6.241798
5.758405
6.401539
5.398989
5.217791
4.602671
5.391836
5.151629
5.072951
5.635619
5.911589
##ZVALUE=225
22.372603
27.143955
32.220483
45.175552
52.618980
54.565668
55.348873
44.856668
36.220551
28.283596
22.940636
20.230412
19.575953
23.049712
22.673607
23.652911
20.630956
14.700890
11.997819
8.008480
6.940961
4.386902
4.142523
4.358888
4.113913
3.993511
3.937483
3.973842
4.251599
4.283786
4.137754
4.567504
4.347563
4.333854
5.230904
4.629493
4.908442
4.587770
4.748702
4.515648
5.958676
5.761981
5.185604
5.439520
4.960895
4.345775
4.839897
4.883409
5.020499
5.102754
4.826784
5.315542
5.658865
5.681515
5.156994
5.417466
6.579757
5.384684
4.860759
5.303621
6.429553
5.845428
6.670952
6.824732
5.800724
6.539822
7.231832
7.387996
7.263422
9.249449
10.281801
11.223555
10.286570
14.318824
12.989640
11.984706
11.579990
12.480617
11.559725
9.741783
11.447668
9.986758
10.002851
8.313656
9.193420
8.461475
7.166862
8.105636
6.614923
7.325411
6.925464
6.746650
7.205606
7.053614
5.904436
5.575418
##ZVALUE=230
20.888448
22.818446
43.551922
66.939592
97.835660
121.601820
148.592591
154.465437
142.455697
119.581819
87.116957
65.957904
49.879551
43.215752
41.553974
48.534870
51.227808
47.491789
42.466521
36.015511
28.216839
20.289421
11.622906
7.660985
5.897880
5.319715
4.324913
4.657507
4.299879
4.592538
5.867481
5.947948
5.649924
4.948974
4.971623
4.871488
5.567670
5.653501
5.544424
6.067753
5.460978
4.718900
5.049706
5.174875
5.484819
5.438924
6.083846
5.428791
5.382895
5.701780
6.239414
6.293654
5.736947
6.494522
5.684495
6.570816
5.996823
5.680919
6.823540
6.257892
6.704926
6.899834
7.072687
7.777810
7.165670
8.051991
8.904934
8.745790
8.576512
10.076761
11.084676
13.032556
13.704896
14.863610
15.716553
14.807582
15.801787
15.655756
15.268922
13.389587
13.000965
13.250709
11.630654
11.329651
10.381937
10.752678
9.728670
10.804534
10.659695
9.526610
9.839535
8.731484
7.980466
9.466410
9.589791
7.757545
##ZVALUE=235
8.658767
8.687973
19.616485
49.506426
85.246563
139.902830
190.329552
255.741477
298.594832
312.198997
283.990502
244.659781
170.081854
129.880905
90.536475
74.302554
71.930885
76.446533
85.106492
81.557631
77.593923
66.206455
51.041842
36.941767
24.055839
14.964938
10.975599
7.771850
6.116629
5.909801
6.289482
5.702972
5.923510
6.045699
5.758405
5.494952
5.432963
5.965829
5.691648
5.980730
6.184578
5.760789
5.566478
6.249547
6.570816
6.072521
5.898476
6.089807
5.719662
6.675720
6.765723
5.338788
6.628633
6.521940
6.663799
6.988645
7.669926
7.000566
8.208752
7.586479
7.960796
7.693768
8.798838
8.680820
8.443594
9.833574
10.559559
9.546876
11.275411
11.517406
12.720823
14.611483
15.960932
17.177463
18.191934
20.329952
19.516945
16.748905
16.941428
17.884970
16.761422
15.621781
16.388893
15.577674
13.877749
13.505816
14.596581
13.632774
13.015866
11.344552
12.199879
11.432767
12.649894
13.283491
12.305975
12.482405
##ZVALUE=240
2.068877
2.270937
4.241467
11.588931
28.159618
67.342520
121.170878
224.184990
307.759643
408.150554
469.368696
495.311618
472.911596
384.290814
304.637551
199.533701
145.111680
105.044842
100.758672
101.236701
112.654567
114.566684
114.568472
101.893544
80.493689
65.359473
46.362877
30.394793
17.369986
12.673736
9.123683
7.825494
7.169843
7.005930
6.635785
6.486773
6.095767
6.565452
6.803870
6.588697
6.712675
6.274581
6.480813
5.675554
7.228851
6.296635
5.933642
6.613731
5.991459
6.957650
7.105470
6.979704
6.935596
7.651448
7.132888
6.982684
7.046461
8.037686
8.011460
9.024739
9.253621
10.493994
8.364916
8.494854
9.299517
10.658503
10.548830
12.048483
11.779666
14.091730
15.292764
16.571879
17.697811
18.203855
20.053983
19.292831
18.737912
20.088553
18.964410
17.276406
17.809868
17.995834
17.839670
16.772747
15.693903
16.351938
16.027689
16.474724
14.070868
15.486479
14.347434
14.561415
14.038682
15.300512
14.261603
14.419556
##ZVALUE=245
1.361966
1.622438
1.749992
1.870990
3.100634
8.514524
29.156804
61.444640
147.015452
225.293636
369.860530
477.213860
554.720759
616.292953
599.842668
515.889525
428.313017
304.083824
213.911533
131.654739
106.181502
104.538798
113.417506
125.963688
127.230883
127.389431
110.522509
96.425414
71.626902
52.804947
33.201575
20.856857
15.075803
10.105968
8.108616
8.212924
8.362532
7.171631
6.778836
6.913543
6.510615
6.477833
6.298423
5.869865
5.936623
5.740523
6.127954
5.972981
6.278753
5.917549
6.103516
5.776882
6.259680
6.520748
6.251931
5.836487
6.473660
7.096529
7.455945
7.279515
7.975698
8.365512
7.808805
8.851886
9.064674
8.921623
10.509491
10.859966
11.039972
13.009906
12.260675
14.990568
15.261769
16.708970
16.963482
18.577576
18.713474
18.359423
18.384457
18.068552
18.302798
16.808510
15.557408
16.377568
16.387701
14.891624
15.420914
15.605688
16.625524
14.843941
15.361905
15.952587
14.524460
15.208721
14.417768
15.886426
##ZVALUE=250
1.481771
1.254678
1.652837
1.553893
1.754761
1.963973
1.971722
6.115437
18.641949
44.397712
118.359923
213.155746
362.340808
488.618612
614.972711
691.205859
715.554953
674.749017
583.311915
428.968668
315.173864
188.232660
138.290524
104.373693
103.505850
126.029849
134.606957
139.978528
136.326551
117.635727
104.528666
77.106953
56.603551
34.954548
23.517609
13.145804
10.213852
7.157922
7.204413
6.676912
6.043911
5.546808
5.538464
6.230474
5.781651
5.650520
6.038547
6.037951
5.537868
5.604625
5.906820
5.046725
4.898906
5.845428
5.363822
5.711913
6.581545
6.032586
6.417632
5.896688
6.367564
7.924438
7.355809
7.503629
7.874966
8.208752
8.606911
9.121895
9.585619
11.771917
11.779666
13.321638
13.750792
15.202761
16.232729
17.107725
16.229749
17.421842
17.645955
15.382767
15.432835
14.303923
14.221668
14.787912
15.579462
14.746785
13.697743
15.020967
14.273524
14.186502
14.686584
14.391541
15.121698
14.767647
14.460683
13.976693
##ZVALUE=255
1.376867
1.206994
1.077652
1.454949
1.492500
1.431704
1.331568
1.680851
2.130866
3.348589
15.694499
37.823915
80.125928
185.492635
295.382738
471.432805
599.315763
738.344789
787.057877
768.327713
672.588944
554.524660
370.111465
245.509744
136.726499
101.459622
90.101957
100.638866
125.801563
137.177706
144.213438
141.967535
128.988624
103.866458
81.031919
52.778721
35.960674
22.092462
13.184547
8.244514
6.300807
5.672574
5.654693
5.602837
5.009770
5.233884
4.721880
5.485415
4.637837
5.287528
4.973412
4.844666
4.724860
4.636645
4.711747
4.886985
5.357862
5.556941
5.568862
5.100965
6.186962
5.942583
6.149411
5.915761
6.615520
7.349849
7.478595
7.414818
8.571744
9.152889
10.470748
10.000467
11.108518
11.907816
12.579560
12.540817
13.954639
13.087988
13.115406
13.694763
13.293624
13.007522
12.173653
12.177825
12.909770
13.115406
12.913942
13.606548
12.420416
12.920499
13.885498
13.675690
13.363957
12.820959
13.030767
13.268590
##ZVALUE=260
1.255870
1.526475
1.263618
1.045465
1.368523
1.527667
1.262426
1.495481
1.332760
1.707673
1.909733
2.331734
5.876422
25.308728
58.773756
146.035552
247.504711
427.973866
576.005578
768.269897
864.138603
890.203714
809.710622
680.275559
472.858548
335.309505
202.628970
132.340789
90.047717
81.961751
99.734664
124.992728
141.747594
151.936412
149.306655
129.070878
110.583901
81.394911
57.997704
35.662651
23.476481
12.404919
7.765889
5.848408
5.055666
5.226731
4.901886
4.686713
5.286932
4.785657
4.745722
5.055666
5.195737
4.938841
4.594922
4.674792
4.796982
4.346967
4.769564
5.016923
5.247593
5.122423
5.650520
5.592704
5.796552
5.863905
6.178617
6.871819
6.912947
8.018613
8.205771
9.320974
9.879470
10.270476
11.790991
11.570454
11.325479
12.175441
11.811852
11.186600
10.891557
11.342764
11.071563
10.930896
12.335777
11.489987
11.797547
12.031794
11.603832
12.473464
11.591911
12.687445
12.642741
12.745857
12.794733
12.933612
##ZVALUE=265
1.243949
1.147985
1.449585
1.334548
1.076460
1.317859
1.382828
1.399517
1.580715
1.465678
1.490712
1.842976
1.579523
2.186894
3.819466
17.045736
43.346882
113.108754
209.203959
404.790640
579.953790
743.787885
933.005810
982.784033
916.736722
805.581808
609.387755
448.574424
257.069468
164.280534
95.759630
74.286461
81.282854
106.138587
130.875707
147.462487
152.661800
146.020651
131.108761
102.973580
80.351830
53.625703
35.158992
20.847917
12.200475
7.204413
5.492568
4.860759
5.029440
4.809499
4.700422
4.625916
4.922748
4.932880
4.693866
4.632473
4.643798
5.111694
4.938841
4.915595
4.619956
4.954934
5.268455
5.259514
5.502701
6.056428
5.507469
6.607771
7.423759
7.101893
8.004904
8.555651
9.120703
9.695888
10.306835
10.639429
10.638833
10.361671
10.618567
10.768771
10.374784
10.307431
11.057854
11.081696
11.281967
10.748506
11.043549
11.540651
11.110902
11.319518
11.263490
11.455417
11.153817
11.497736
12.209415
11.501908
##ZVALUE=270
1.048446
1.013875
1.170635
1.172423
1.121759
1.024604
1.063943
1.061559
1.186728
1.356602
1.351833
1.395941
1.676679
1.641512
1.506805
1.811981
2.226830
8.012652
23.364425
77.499747
157.625675
287.634730
522.680879
711.645484
928.325653
1004.914641
1008.425951
927.649736
736.200809
559.386015
385.065675
203.538537
118.225813
65.434575
61.146617
82.749724
105.174780
130.466819
145.613551
152.201653
145.256519
128.662586
107.187629
81.469417
56.332946
32.938719
21.327734
12.146831
7.758737
5.800724
4.970431
4.708767
4.754663
4.738569
4.487634
4.472733
5.204678
5.294681
4.848838
4.800558
5.029440
5.238652
4.718900
5.270839
5.115867
5.719662
5.642772
6.084442
6.777644
7.383823
7.510781
8.020997
8.969903
8.891821
8.782744
9.817481
9.753704
9.354949
10.083914
9.676814
9.348989
9.857416
9.899735
9.811521
9.951591
10.006428
9.758472
10.168552
10.124445
9.878874
10.231733
10.578632
10.901690
10.264516
10.363460
10.812879
##ZVALUE=275
1.137853
0.953674
1.048446
1.192689
0.883937
1.132488
1.016855
1.206994
1.277924
1.171827
1.112819
1.344681
1.278520
1.576543
1.438856
1.414418
1.392961
1.782775
1.871586
4.291534
14.181733
40.915608
122.644901
239.228606
462.770462
642.501712
861.319900
999.179482
1015.638709
1007.077694
901.473761
677.547455
488.530993
264.913440
152.193904
72.034597
49.645901
57.768822
76.875687
104.601979
126.079917
143.122673
151.012540
144.487619
131.174922
101.678967
79.687834
55.601597
38.009882
20.965934
13.574958
7.847548
5.656481
4.927516
4.832745
4.690886
4.679561
4.847646
4.738569
4.682541
5.146861
5.345941
5.420446
5.188584
5.721450
5.506873
5.859733
5.592704
6.404519
6.959438
7.294416
8.139610
8.193851
9.101629
9.299517
9.705424
9.889603
9.291768
9.206533
9.111762
9.103417
9.479523
9.330511
9.358525
9.137988
9.280443
9.705424
9.436607
9.673834
9.260774
9.137988
9.845495
10.022521
9.876490
10.200739
10.179877
##ZVALUE=280
0.945926
0.961423
1.069903
0.983477
0.847578
0.843406
1.010895
1.028776
1.079440
1.126528
1.091957
1.016855
1.136661
1.165867
1.164675
1.249909
1.545548
1.418591
1.496673
1.692772
1.967549
2.297759
9.434819
30.197501
99.295974
190.419555
366.550684
552.718639
797.864795
962.712765
1015.638709
1015.638709
988.714695
769.598484
577.156544
338.937640
203.492641
92.650652
51.866770
41.349530
52.475929
78.913569
99.402666
126.248002
138.979554
145.109892
140.525699
124.140978
104.894638
75.637698
57.115555
35.511851
23.556948
12.512803
8.265972
5.618930
5.289912
4.384518
4.855990
5.283952
4.892945
5.611777
5.698800
5.520582
5.455613
5.702972
6.318688
6.543994
6.504655
7.261634
7.234812
7.842779
8.094907
8.596778
8.921623
9.796619
9.315610
9.229779
8.825660
8.812547
8.541942
8.855462
9.098649
8.908510
8.982420
9.123683
9.408593
8.948445
9.187460
9.038448
9.228587
9.170771
9.112954
8.915663
9.582639
9.296536
##ZVALUE=285
0.765920
1.025796
0.923872
0.976920
1.007915
1.031756
0.987649
0.976920
1.048446
0.970960
1.249909
1.206994
1.054406
1.247525
1.149774
1.178980
1.207590
1.197457
1.269579
1.271963
1.599789
1.700521
1.999736
2.100468
5.055666
16.098619
55.500865
121.731758
276.819468
444.504619
636.943579
915.615559
1015.638709
1015.638709
1015.638709
937.023759
745.154023
472.611785
306.019783
143.621564
75.832605
35.766959
34.431815
50.933957
70.930719
100.549459
118.657947
135.044456
141.435862
137.990713
126.138926
102.584958
82.559586
56.267977
39.241910
21.462440
14.101863
8.808970
6.357431
5.657673
5.717874
5.602837
5.541444
5.777478
5.786419
5.888939
6.610751
6.564856
6.917715
7.421970
7.711649
8.031726
8.249879
8.570552
8.595586
8.919835
8.884668
8.977652
9.159446
9.374619
9.244680
8.982420
9.080768
9.213686
8.899570
9.072423
9.237528
9.165406
9.220839
8.868575
8.757710
8.826852
9.216666
9.114742
8.918643
9.267926
##ZVALUE=290
0.948906
1.007915
0.991821
0.904799
1.062751
1.056790
1.042485
1.170635
1.133680
1.133680
1.104474
1.282692
1.335740
1.268983
1.261830
1.265407
1.224875
1.241565
1.571774
1.376867
1.305938
1.498461
1.743436
1.955628
1.875758
2.052784
2.777576
7.451773
32.993555
80.722570
161.016583
349.720716
551.489592
854.232907
1014.508605
1015.766859
1015.766859
1015.766859
877.329707
605.918765
415.418744
215.202570
118.887424
47.453642
27.620792
33.197403
46.498775
68.293810
88.732839
115.931630
128.721595
138.027668
135.516524
120.469928
103.497505
76.007843
56.405663
36.712885
24.568439
14.097691
9.540915
7.136464
6.275773
6.064773
6.215572
6.110668
6.579757
6.928444
7.084608
7.368922
8.066893
8.259416
8.788705
9.076595
9.395480
8.850694
9.232759
9.220839
9.082556
8.737445
9.181499
8.995533
9.117723
9.103417
9.196997
9.074807
9.095669
9.068847
9.155869
9.178519
9.302497
8.948445
9.127855
9.016991
9.200573
9.140968
##ZVALUE=295
0.730753
0.885725
0.798702
0.820756
0.913739
0.889897
1.003742
0.821948
0.919700
0.847578
1.014471
1.137853
1.014471
1.043677
1.159906
0.960827
1.042485
1.159906
1.053810
0.862479
1.110435
1.229644
1.375675
1.493692
1.446605
1.537800
1.858473
1.741648
2.018809
3.427863
11.470914
48.850775
111.995935
274.403691
454.657674
744.708776
944.618583
1015.638709
1015.638709
1015.638709
978.539586
727.811456
534.554720
301.814675
173.701644
66.916943
32.379627
21.620989
27.761459
44.925809
62.270761
88.369846
104.750991
123.897791
130.592585
126.652718
118.305683
97.435713
78.264475
53.391457
38.492680
22.627711
15.346408
9.693503
7.833838
6.654859
6.406903
6.835461
7.083416
7.077456
8.279681
8.159876
8.859634
9.368658
9.082556
9.033680
8.859634
8.735657
8.770823
9.031892
8.938909
8.911490
8.696914
8.676648
8.809566
8.863807
8.845925
8.906722
8.698702
8.950830
8.604527
8.903742
8.753538
8.835793
8.675456
8.663535
##ZVALUE=300
0.812411
0.811815
0.841618
0.842810
0.702739
0.771880
0.772476
0.703931
0.878572
0.918508
0.928640
0.962615
0.925660
1.026988
0.947714
0.967979
0.873804
0.918508
1.116991
0.926852
1.059771
1.170635
1.272559
1.165867
1.232624
1.406670
1.432896
1.653433
1.497865
1.739860
1.937747
2.326965
7.268786
24.565458
84.396601
170.679688
370.765924
585.976839
873.699784
1015.638709
1015.638709
1015.638709
1008.566022
852.111578
578.342676
383.417606
196.848512
104.984641
37.691593
18.719435
17.875433
24.431944
39.644837
55.091977
79.219937
97.642541
118.284822
123.866796
122.775435
113.919973
95.792413
78.045726
55.072904
40.857792
23.877621
16.558766
10.909438
8.396506
7.533431
7.642508
7.718801
8.175969
8.325577
8.560419
8.539557
8.893609
8.683801
9.066463
8.723736
9.249449
9.574890
8.610487
9.235740
8.941889
9.200573
9.142756
9.011626
9.404421
9.168983
8.581877
9.345412
8.527637
9.051561
8.785725
8.638501
8.561611
##ZVALUE=305
0.904799
0.980496
0.946522
1.010895
0.983477
0.994802
0.910759
1.021624
0.919700
0.819564
0.984669
0.955462
0.902414
1.068711
0.968575
1.161695
0.936985
1.158714
0.997782
1.196861
1.106858
1.234412
1.126528
1.137853
1.272559
1.359582
1.298785
1.443624
1.719594
1.530647
1.713634
1.761913
1.955628
2.173781
4.282594
13.860464
56.652427
125.174522
288.601518
466.779470
755.167603
959.186554
1015.766859
1015.766859
1015.766859
922.426581
672.020912
472.941995
255.507827
138.696432
52.061677
24.136901
13.531446
15.897751
24.561882
35.943985
57.670474
73.802471
95.112920
108.441710
118.736625
117.947459
107.674003
94.238520
72.044730
55.228472
35.926700
25.953650
15.544891
11.360645
9.167790
8.804798
8.802414
8.937716
8.924603
9.013414
9.072423
9.077787
8.719563
9.046793
9.092689
9.015799
9.498596
9.844899
9.339452
9.410977
9.233952
9.540915
9.321570
9.400845
8.999705
9.040833
9.245872
9.270906
9.075999
8.831620
##ZVALUE=310
0.722408
0.791550
0.872612
0.660419
0.798702
0.692606
0.842810
0.865459
0.880957
0.792742
1.011491
0.978708
0.820756
0.779629
0.763535
0.800490
0.862479
0.865459
0.996590
0.915527
1.039505
0.934601
1.044869
0.976920
0.852942
1.119971
1.038909
1.146793
1.178980
1.152754
1.179576
1.386404
1.486540
1.564622
1.778603
1.773834
2.144575
7.436872
24.915934
85.257888
172.120929
372.052789
573.928952
862.211585
1015.638709
1015.638709
1015.638709
1014.505625
859.749913
577.206612
383.372903
191.165805
101.807714
35.603642
16.019940
11.307597
14.059544
21.903515
32.282472
49.832463
66.068769
87.821484
100.375414
110.255480
111.491680
103.206635
90.614557
72.230697
54.787993
37.324429
27.064681
17.271638
13.207793
10.321736
9.360909
9.241700
8.926988
8.926988
8.710623
8.622408
9.349585
9.026527
9.355545
9.493828
9.713769
9.258986
9.318590
9.289980
9.449720
9.453893
8.757710
9.173751
9.287596
8.649826
8.798838
8.742809
##ZVALUE=315
0.744462
0.712872
0.744462
0.714660
0.639558
0.698566
0.677705
0.805855
0.790954
0.706911
0.791550
0.813603
0.876784
0.835657
0.807643
0.769496
0.925660
0.955462
0.866652
0.953674
0.917912
0.937581
1.038909
0.935793
1.018643
0.946522
0.980496
1.025796
1.141429
1.176000
1.000762
1.202822
1.296997
1.307726
1.409650
1.548529
1.490712
1.712441
2.053976
3.505945
12.138486
52.291751
121.515989
287.315845
476.526618
792.855024
996.022820
1015.638709
1015.638709
1015.638709
997.480750
723.085999
503.805876
264.029503
141.326785
51.033497
21.550655
10.291934
10.095835
13.687611
19.469857
31.927824
45.133829
63.125491
78.763962
96.762776
105.115771
105.938911
100.435615
84.595680
70.283413
52.392483
39.578676
24.984479
18.119812
12.821555
10.762811
9.360909
9.155869
9.127855
8.790493
9.088516
9.248853
9.277463
9.295940
9.209514
9.387732
9.685755
9.637475
9.480715
9.167790
9.275675
8.969903
9.123683
9.021759
8.819699
##ZVALUE=320
0.856519
0.624657
0.681877
0.680685
0.613928
0.670552
0.587702
0.700951
0.912547
0.693798
0.718832
0.846982
0.694990
0.695586
0.998974
0.876784
0.920892
0.683665
0.930429
0.838637
0.726581
0.986457
0.987649
0.781417
1.022816
0.929832
1.048446
0.991821
0.919700
1.027584
1.055598
1.121759
1.214743
1.276731
1.237988
1.315475
1.442432
1.351833
1.529455
1.651645
1.767874
2.401471
5.743504
29.473901
77.804923
208.798647
354.233980
615.211725
841.853023
1015.635729
1015.635729
1015.635729
1015.635729
863.682628
629.885793
351.750851
200.836658
83.773732
36.896467
12.712479
8.952618
9.639859
12.552738
18.616915
26.852489
42.637587
57.329535
75.768828
89.289546
99.611878
102.346539
94.854832
84.256530
66.476464
51.809549
34.697652
25.100708
16.966462
13.478994
10.955930
9.707808
9.516478
9.288788
9.256601
8.920431
9.280443
9.292960
9.319782
9.344816
9.163618
8.974671
8.933544
9.159446
9.404421
9.166598
9.068847
##ZVALUE=325
0.684857
0.519753
0.729561
0.752807
0.795722
0.793934
0.723600
0.703931
0.703931
0.863671
0.709891
0.725985
0.893474
0.812411
0.846982
0.917912
0.792742
0.892878
0.821948
0.767708
0.852942
0.895858
0.929832
0.807643
0.907779
0.962615
0.879765
0.926852
1.047850
1.095533
0.907779
1.109838
1.017451
1.027584
1.068711
1.249909
1.202822
1.318455
1.308918
1.272559
1.437664
1.646876
1.765490
2.023578
3.493428
19.460917
51.860809
139.960647
257.666707
507.359505
723.989606
996.095538
1015.638709
1015.638709
1015.638709
937.633514
714.565516
442.494750
270.692706
116.477609
55.140853
17.411709
9.776950
8.414984
9.502769
12.850761
17.033815
27.580857
39.527416
58.364868
71.193576
86.646676
93.667507
94.349980
89.855790
75.633526
63.381791
46.561956
34.839511
22.836924
16.789436
12.865663
10.963678
9.827614
9.475946
9.290576
9.086728
9.206533
9.195805
9.430647
9.005666
8.936524
8.974671
8.698702
8.494854
8.946657
##ZVALUE=330
0.648499
0.727773
0.708699
0.594854
0.618696
0.728965
0.747442
0.790954
0.759959
0.647902
0.713468
0.665784
0.724792
0.564456
0.781417
0.962615
0.882745
0.763535
0.711679
0.818968
0.848770
0.848770
0.754595
0.766516
0.890493
0.807643
0.716448
0.698566
0.832677
0.976920
1.021624
0.883937
0.914931
1.042485
1.008511
1.139641
1.094937
1.081824
1.278520
1.185536
1.169443
1.384616
1.399517
1.677871
1.629591
1.943707
2.308488
8.553863
28.363466
96.640587
190.589428
399.252772
600.059628
883.284807
1015.638709
1015.638709
1015.638709
993.111730
806.955695
531.782508
349.316597
165.241957
82.298517
28.838515
12.818575
8.306503
8.224845
9.182692
11.811852
18.387437
25.663972
38.756728
51.881671
70.111752
79.606771
89.184642
90.096593
83.120465
73.853731
57.967901
45.783520
31.369925
23.824573
16.346574
13.505816
11.170506
10.132790
9.265542
9.216666
8.976460
8.917451
8.911490
8.606911
8.343458
8.660555
8.566976
##ZVALUE=335
0.619888
0.658631
0.724792
0.751615
0.762939
0.703931
0.872612
0.769496
0.808835
0.686646
0.760555
0.587702
0.777841
0.862479
0.689626
0.701547
0.604987
0.708699
0.799894
0.637770
0.807643
0.606775
0.927448
0.847578
0.866652
0.868440
0.827909
0.769496
0.876784
0.944734
0.829697
1.006722
0.948906
1.009703
0.992417
1.057982
1.190901
1.144409
0.975728
1.151562
1.090765
1.292825
1.162887
1.235604
1.457930
1.512766
1.739860
1.624823
1.802444
4.137754
14.733672
58.693886
125.550628
282.931924
464.576483
755.357742
952.391028
1015.638709
1015.638709
1015.638709
898.560882
637.207627
443.403721
236.427784
131.053925
46.782494
17.988682
8.483529
8.116961
8.390546
9.055734
12.379885
16.396642
25.853515
36.118627
51.608682
63.802600
76.420903
81.930757
83.198547
78.575611
66.889524
56.679845
42.534471
32.975674
22.755861
17.255545
13.253689
10.575652
9.269714
9.023547
8.735657
8.455515
8.701682
8.279681
8.513927
##ZVALUE=340
0.599623
0.603795
0.692606
0.609756
0.673532
0.664592
0.748634
0.695586
0.610948
0.653863
0.717640
0.721812
0.803471
0.709891
0.672936
0.770688
0.667572
0.660419
0.709891
0.713468
0.709891
0.736713
0.728965
0.897646
0.884533
0.735521
0.867844
0.756979
0.894666
0.673532
0.973940
0.879765
0.919700
0.891685
0.809431
0.987649
0.945926
0.999570
0.926852
1.072884
1.076460
1.112819
1.122952
1.136661
1.306534
1.266599
1.276731
1.421571
1.436472
1.706481
1.704693
2.360940
7.478595
38.272738
95.902681
240.727663
406.900048
670.511723
872.493982
1015.638709
1015.638709
1015.638709
922.229886
693.599582
495.609641
263.213515
148.628950
60.102940
24.370551
9.507537
8.111596
8.180737
8.431673
9.262562
11.271834
17.423630
23.836493
35.282969
46.595931
62.149763
72.105527
77.960491
78.204870
73.212981
66.980720
53.532720
43.287873
31.394958
23.956895
17.012954
13.152957
10.217428
9.057522
8.386970
7.978678
8.060932
##ZVALUE=345
0.377893
0.400543
0.321865
0.382662
0.424981
0.396967
0.354648
0.396967
0.532866
0.377893
0.506639
0.529885
0.434518
0.502467
0.535846
0.492930
0.576973
0.389814
0.310540
0.514984
0.405908
0.424981
0.608563
0.521541
0.415444
0.630617
0.503659
0.474453
0.460744
0.733733
0.631809
0.584722
0.617504
0.621676
0.670552
0.728965
0.621676
0.685453
0.590682
0.697970
0.699759
0.775456
0.784993
0.890493
0.975728
0.779629
1.011491
0.937581
0.847578
1.117587
1.169443
1.314878
1.563430
1.774430
3.080964
20.448565
56.857467
153.507590
278.091431
521.787405
727.874637
974.200964
1015.400887
1015.400887
1005.113721
789.229870
601.666570
372.096896
219.213963
88.718534
39.912462
13.056993
8.325577
7.761717
7.554889
7.782578
8.616447
10.679960
14.263988
22.944808
31.896830
45.252442
54.753423
64.528584
69.401860
72.469711
69.651604
61.755776
52.894950
40.899515
32.162666
22.278428
16.660690
11.875629
9.829998
8.564591
##ZVALUE=350
0.303984
0.285506
0.353456
0.382662
0.410676
0.399947
0.257492
0.415444
0.431538
0.289679
0.337958
0.275970
0.492930
0.443459
0.393987
0.438690
0.383854
0.444651
0.350475
0.560880
0.567436
0.450611
0.329614
0.462532
0.466704
0.355840
0.472665
0.516772
0.500679
0.498891
0.428557
0.488758
0.405908
0.570416
0.498891
0.559688
0.501871
0.391603
0.630617
0.602603
0.691414
0.606775
0.627637
0.901818
0.730753
0.732541
0.760555
0.782609
0.718832
0.875592
1.008511
0.920892
0.989437
1.192689
1.377463
1.464486
1.922846
9.735823
30.910969
100.126863
193.519592
402.051806
594.391823
851.237774
1004.744768
1015.331745
1015.331745
907.464027
714.059472
446.327925
278.697014
132.423639
60.758591
16.720891
8.679628
7.154942
6.988645
6.958842
6.965995
8.113980
10.058880
14.700890
19.561648
28.478503
36.756992
48.538446
56.786537
64.329505
66.431761
64.047575
58.538914
48.055649
39.849877
28.766990
21.981001
15.473962
##ZVALUE=355
0.624657
0.652671
0.594854
0.823736
0.680685
0.621676
0.506639
0.519753
0.715852
0.643730
0.598431
0.687838
0.741482
0.743866
0.715852
0.623465
0.740886
0.526905
0.743866
0.725985
0.703931
0.675917
0.711679
0.735521
0.778437
0.672936
0.843406
0.732541
0.814795
0.869632
0.858903
0.918508
0.976920
0.819564
0.754595
0.886917
0.846982
0.983477
0.822544
0.959635
0.901818
0.952482
1.095533
0.962615
1.104474
1.025796
0.992417
1.079440
1.232624
1.212955
1.188517
1.242757
1.361966
1.219511
1.468658
1.477599
1.431704
1.756549
1.951456
5.011559
16.564727
66.592693
141.135454
307.354927
499.777794
792.822838
979.457498
1015.638709
1015.638709
978.291035
795.305967
528.677702
338.116884
148.912668
69.668889
21.477938
9.931922
7.181764
7.047653
6.926656
6.795526
7.173419
7.682443
9.503961
11.994839
17.589927
23.974776
33.681989
41.984916
51.495433
57.618618
60.737729
59.691668
53.561926
47.584772
37.411451
##ZVALUE=360
0.626445
0.659823
0.701547
0.636578
0.718832
0.629425
0.724792
0.840425
0.693798
0.728965
0.846982
0.603795
0.774860
0.660419
0.697970
0.679493
0.684857
0.679493
0.656843
0.647902
0.726581
0.535846
0.653863
0.815988
0.746846
0.748634
0.774860
0.698566
0.815988
0.753999
0.799894
0.758767
0.803471
0.731945
0.788569
0.780821
0.839829
0.889897
0.969768
0.805855
0.890493
0.898838
0.773668
0.765920
1.013875
0.940561
1.027584
0.958443
0.968575
0.908971
1.085997
1.082420
1.191497
1.245737
1.243949
1.246929
1.394749
1.519918
1.521707
1.820922
1.845956
2.777576
7.693768
36.039948
89.342594
224.788785
397.819877
682.306886
881.716013
1015.632749
1015.632749
1015.632749
899.079442
622.772574
414.586663
202.362537
102.907419
37.173629
15.385747
7.705688
7.029772
6.663799
6.399751
6.558895
6.501675
6.938577
7.626414
10.541677
13.833642
20.166636
26.987791
37.275553
44.212937
50.833821
53.669810
53.881407
##ZVALUE=365
0.741482
0.644922
0.660419
0.521541
0.465512
0.563860
0.695586
0.655651
0.661612
0.586510
0.684857
0.521541
0.637770
0.767708
0.711679
0.697970
0.637770
0.715852
0.703931
0.817776
0.656843
0.739694
0.782609
0.814795
0.818968
0.913739
0.630617
0.733733
0.742674
0.817776
0.652671
0.815988
0.655651
0.645518
0.898838
0.709891
1.009703
0.918508
0.819564
0.947714
0.819564
0.835657
0.992417
0.780821
0.818968
0.983477
0.905991
0.990629
0.990629
1.078844
1.176000
1.140833
1.096725
1.150966
1.146793
1.252890
1.438856
1.179576
1.254678
1.614690
1.653433
1.746416
1.868606
2.244711
4.521608
15.456676
62.988997
142.663717
342.355967
545.633435
825.328827
996.860862
1015.638709
1015.638709
888.593793
714.586973
460.957885
287.843943
127.191544
59.944987
18.559694
9.235740
6.439686
6.394982
6.248951
6.159544
6.021857
6.086826
6.184578
7.043481
8.989573
11.782646
17.396808
23.238659
31.570792
37.581921
##ZVALUE=370
0.702739
0.659823
0.520945
0.768900
0.786781
0.879765
0.619888
0.621676
0.555515
0.694990
0.683665
0.620484
0.666976
0.669956
0.704527
0.615716
0.598431
0.852942
0.753999
0.755787
0.828505
0.631809
0.712872
0.708699
0.844598
0.667572
0.714660
0.752807
0.845790
0.849962
0.661612
0.800490
0.868440
0.879765
0.745654
0.744462
0.819564
0.769496
1.006722
0.873804
0.884533
0.934601
0.883937
0.966787
0.807643
0.960827
0.806451
0.951886
0.933409
0.934601
1.068711
1.025796
1.020432
0.950694
1.026988
1.090765
1.319647
1.240969
1.256466
1.345873
1.250505
1.419783
1.504421
1.515746
1.621842
2.029538
2.552867
10.380745
35.394430
122.667551
239.932537
471.608639
702.451468
988.528728
1015.646458
1015.646458
998.321772
778.181553
564.551950
316.885710
178.016424
69.685578
31.836629
11.603832
7.023811
6.229877
5.879998
5.678535
5.725622
5.493760
5.412698
5.734563
6.188750
8.089542
10.399818
14.885664
##ZVALUE=375
0.611544
0.756979
0.626445
0.730753
0.697970
0.692606
0.735521
0.690818
0.755787
0.587702
0.722408
0.776649
0.675917
0.717640
0.434518
0.627637
0.622869
0.826716
0.678897
0.844598
0.870824
0.702739
0.591874
0.737906
0.717640
0.678897
0.721812
0.635982
0.823736
0.782609
0.824928
0.749826
0.547767
0.655651
0.701547
0.712872
0.757575
0.786781
0.909567
0.865459
0.890493
0.826716
0.855923
0.895858
0.807643
0.787973
0.976920
0.948906
0.909567
0.910759
0.810623
0.984669
0.779629
1.039505
0.912547
1.000762
0.975728
1.061559
1.061559
1.255870
1.058578
1.279712
1.341701
1.335740
1.470447
1.453757
1.630783
1.787543
2.125502
5.345941
18.852949
75.220466
172.120929
392.697453
624.697804
932.219625
1015.640497
1015.640497
1015.640497
903.995037
699.361563
426.383615
269.562602
133.403540
66.761971
21.113753
8.833408
5.873442
5.532503
5.186796
5.220771
5.233884
4.931688
4.845858
5.179644
5.862713
##ZVALUE=380
0.701547
0.723600
0.659823
0.626445
0.870824
0.592470
0.647902
0.568628
0.694990
0.679493
0.676513
0.616908
0.530481
0.560880
0.605583
0.747442
0.573993
0.749826
0.731945
0.759959
0.638962
0.654459
0.637770
0.639558
0.677705
0.771880
0.726581
0.820756
0.817776
0.763535
0.722408
0.667572
0.675917
0.814795
0.849962
0.697970
0.759959
0.775456
0.865459
0.726581
0.771880
0.713468
0.957847
0.836849
1.014471
0.865459
1.008511
0.916719
0.952482
0.873804
0.844598
0.921488
0.924468
0.880957
0.928640
0.832677
1.024604
0.944734
0.955462
1.011491
0.770688
1.120567
1.276731
1.130700
1.219511
1.397729
1.480579
1.498461
1.473427
1.814961
2.286434
2.905726
12.478828
40.006638
131.343603
256.881714
513.763428
748.790503
1004.068851
1015.655994
1015.655994
985.576510
764.352679
574.145913
331.311822
195.788741
82.709789
38.299561
11.199713
6.226897
5.070567
4.848838
4.851818
4.810691
4.647970
4.768968
##ZVALUE=385
0.628829
0.529885
0.640750
0.669956
0.621676
0.645518
0.674725
0.622869
0.532866
0.539422
0.570416
0.511408
0.572801
0.855923
0.580549
0.655651
0.647902
0.688434
0.653863
0.665784
0.668764
0.711679
0.852942
0.750422
0.576973
0.703931
0.612736
0.590682
0.754595
0.822544
0.618696
0.800490
0.769496
0.658631
0.643730
0.680685
0.790954
0.797510
0.628829
0.870824
0.754595
0.660419
0.829697
0.786781
0.896454
0.848770
0.756979
0.573993
0.761747
0.730753
0.877976
0.884533
0.947714
0.749826
0.739694
0.817776
0.692606
0.782609
0.831485
1.021624
0.910759
0.932813
0.904799
0.955462
1.084805
1.097918
1.308918
1.220703
1.362562
1.561642
1.703501
1.717806
1.678467
2.016425
5.269647
18.254519
70.929527
154.529810
344.947577
536.189675
797.234774
939.766765
1008.075476
968.508720
809.399486
642.303824
406.896472
261.918902
121.476650
60.614944
20.001531
7.966757
4.706979
4.478693
4.428625
4.290938
##ZVALUE=390
0.655651
0.612736
0.638962
0.608563
0.526905
0.647902
0.675917
0.566840
0.609756
0.658631
0.620484
0.706911
0.508428
0.525713
0.708699
0.696778
0.672936
0.705719
0.591874
0.729561
0.608563
0.739694
0.555515
0.518560
0.692606
0.625849
0.549555
0.631809
0.782609
0.789762
0.744462
0.702739
0.749826
0.741482
0.670552
0.496507
0.651479
0.546575
0.673532
0.762939
0.668764
0.662804
0.764728
0.863671
0.684857
0.700951
0.730753
0.606775
0.734925
0.908971
0.834465
0.778437
0.737906
0.721812
0.823736
0.868440
0.751615
0.745654
0.868440
0.944734
0.930429
0.822544
0.758767
0.862479
0.910759
1.059771
1.053810
1.225471
1.166463
1.441836
1.489520
1.484752
1.490712
1.407862
1.716614
1.818538
2.636909
13.467669
41.577816
130.164623
250.946879
482.146740
674.997568
906.945467
1010.184884
1015.638709
943.112969
742.046833
563.273430
337.841511
197.915435
81.182718
37.326813
11.733770
5.687475
4.661679
##ZVALUE=395
0.637770
0.605583
0.631809
0.593662
0.456572
0.487566
0.535846
0.453591
0.657439
0.601411
0.685453
0.698566
0.716448
0.609756
0.754595
0.819564
0.715852
0.575781
0.644922
0.641942
0.665784
0.656843
0.438690
0.608563
0.647902
0.626445
0.640750
0.695586
0.703931
0.624657
0.496507
0.685453
0.608563
0.692606
0.619888
0.624657
0.506639
0.685453
0.864863
0.757575
0.674725
0.788569
0.796914
0.671744
0.709891
0.670552
0.572801
0.710487
0.751615
0.693798
0.676513
0.751615
0.728965
0.835657
0.626445
0.728965
0.705719
0.836849
0.855923
0.880957
0.921488
0.861883
0.868440
0.879765
0.958443
1.004934
0.926852
1.072884
1.142621
1.302958
1.491904
1.378655
1.348853
1.466870
1.467466
1.417994
1.498461
1.787543
2.075434
5.697608
31.114817
77.495575
188.320875
320.780873
557.139516
744.469762
943.063498
1010.195613
973.480940
854.634643
634.057522
447.912812
242.807865
132.024884
48.745871
20.456910
##ZVALUE=400
0.623465
0.557899
0.634789
0.561476
0.571609
0.488758
0.428557
0.539422
0.633597
0.648499
0.585914
0.576973
0.707507
0.697970
0.696778
0.607967
0.726581
0.686646
0.765920
0.642538
0.628829
0.645518
0.553727
0.636578
0.741482
0.747442
0.718832
0.651479
0.724792
0.463724
0.640750
0.601411
0.607967
0.684857
0.643730
0.717640
0.656843
0.788569
0.742674
0.742674
0.691414
0.635982
0.657439
0.695586
0.485778
0.771880
0.666976
0.683665
0.648499
0.732541
0.673532
0.793934
0.840425
0.753999
0.653863
0.702739
0.836849
0.804663
0.839829
0.867844
0.738502
0.927448
0.756979
0.879765
0.771880
0.799894
0.895858
0.950694
1.042485
1.253486
1.291633
1.218915
1.472831
1.294613
1.143813
1.205802
1.209974
1.233816
1.492500
1.652837
1.665950
4.016757
13.270974
50.742626
112.376809
261.347890
429.112911
679.164529
844.519734
973.557830
997.459888
878.084898
721.685886
481.042862
320.912600
165.138841
##END
