Data from 2018-3-6_conc=6_n=4_RamanShift_02.txt Node
Date: Tue Mar 06 15:03:18 GMT+02:00 2018
User: LAB3
Spectrometer: QEPB0276
Trigger mode: 0
Integration Time (sec): 3.000000E1
Scans to average: 1
Electric dark correction enabled: true
Nonlinearity correction enabled: false
Boxcar width: 0
XAxis mode: Raman Shifts
Number of Pixels in Spectrum: 1044
>>>>>Begin Spectral Data<<<<<
160.701	50
166.742	64
172.777	89
178.805	172
184.826	386
190.841	797
196.849	1227
202.85	1573
208.845	1689
214.833	1671
220.815	1625
226.789	1609
232.758	1602
238.719	1574
244.674	1547
250.623	1534
256.565	1505
262.5	1480
268.429	1463
274.351	1436
280.267	1443
286.176	1458
292.079	1427
297.975	1433
303.865	1413
309.748	1416
315.625	1398
321.495	1416
327.359	1403
333.217	1406
339.068	1407
344.912	1421
350.751	1423
356.583	1405
362.408	1423
368.227	1424
374.04	1433
379.847	1424
385.647	1449
391.44	1422
397.228	1451
403.009	1445
408.784	1457
414.553	1463
420.315	1485
426.071	1430
431.821	1480
437.565	1468
443.302	1462
449.033	1439
454.758	1468
460.477	1437
466.189	1427
471.896	1411
477.596	1395
483.29	1375
488.978	1376
494.66	1367
500.335	1339
506.005	1262
511.668	1211
517.325	1129
522.977	1067
528.622	1038
534.261	1009
539.894	992
545.521	982
551.141	949
556.756	935
562.365	946
567.968	939
573.565	913
579.155	918
584.74	916
590.319	903
595.892	901
601.459	927
607.02	920
612.575	901
618.124	900
623.667	873
629.204	864
634.735	854
640.261	830
645.781	793
651.294	817
656.802	809
662.304	825
667.8	828
673.29	805
678.775	825
684.254	814
689.726	790
695.193	791
700.655	790
706.11	783
711.56	785
717.004	789
722.442	765
727.874	779
733.301	783
738.722	755
744.137	762
749.547	758
754.951	759
760.349	754
765.741	776
771.128	781
776.509	776
781.885	797
787.254	810
792.618	804
797.977	810
803.33	799
808.677	788
814.019	800
819.355	774
824.686	763
830.011	759
835.33	781
840.644	778
845.952	744
851.255	752
856.552	745
861.844	749
867.13	712
872.41	712
877.686	706
882.955	710
888.219	686
893.478	680
898.731	684
903.979	679
909.221	661
914.458	661
919.69	650
924.916	648
930.136	662
935.351	649
940.561	666
945.766	666
950.965	671
956.158	636
961.347	640
966.529	638
971.707	636
976.879	617
982.046	612
987.208	600
992.364	614
997.515	605
1002.66	604
1007.801	609
1012.936	616
1018.066	613
1023.19	624
1028.309	631
1033.423	627
1038.532	632
1043.636	622
1048.734	625
1053.827	604
1058.915	603
1063.998	598
1069.075	593
1074.147	608
1079.214	587
1084.276	607
1089.333	592
1094.385	604
1099.431	596
1104.472	591
1109.509	575
1114.54	575
1119.565	567
1124.586	563
1129.602	547
1134.613	527
1139.618	534
1144.619	553
1149.614	555
1154.604	535
1159.589	536
1164.57	563
1169.545	564
1174.515	562
1179.48	554
1184.44	547
1189.395	553
1194.345	541
1199.29	545
1204.23	530
1209.165	528
1214.095	548
1219.021	540
1223.941	534
1228.856	542
1233.766	552
1238.672	550
1243.572	551
1248.467	544
1253.358	535
1258.244	510
1263.124	539
1268	521
1272.871	492
1277.737	488
1282.599	495
1287.455	492
1292.306	489
1297.153	487
1301.995	481
1306.832	502
1311.664	505
1316.491	497
1321.314	502
1326.132	482
1330.945	497
1335.753	479
1340.556	467
1345.354	476
1350.148	463
1354.937	448
1359.722	444
1364.501	443
1369.276	437
1374.046	449
1378.811	436
1383.572	444
1388.327	440
1393.079	417
1397.825	416
1402.567	417
1407.304	416
1412.036	418
1416.764	427
1421.487	408
1426.205	407
1430.919	425
1435.628	413
1440.333	407
1445.032	431
1449.727	427
1454.418	434
1459.104	436
1463.785	404
1468.462	424
1473.134	403
1477.802	404
1482.465	374
1487.123	401
1491.777	368
1496.426	364
1501.071	392
1505.711	368
1510.347	391
1514.978	395
1519.604	379
1524.226	392
1528.844	365
1533.457	384
1538.065	388
1542.669	384
1547.269	387
1551.864	390
1556.454	383
1561.041	369
1565.622	374
1570.199	379
1574.772	381
1579.34	380
1583.904	390
1588.464	395
1593.019	404
1597.569	385
1602.115	388
1606.657	390
1611.195	401
1615.728	400
1620.256	373
1624.78	366
1629.3	373
1633.816	381
1638.327	380
1642.834	395
1647.336	386
1651.834	400
1656.328	390
1660.817	389
1665.302	381
1669.783	382
1674.259	368
1678.732	355
1683.199	354
1687.663	339
1692.122	341
1696.577	330
1701.028	334
1705.474	316
1709.917	311
1714.355	299
1718.788	302
1723.218	286
1727.643	281
1732.064	282
1736.481	270
1740.893	276
1745.301	280
1749.705	241
1754.105	256
1758.501	251
1762.893	256
1767.28	230
1771.663	242
1776.042	225
1780.417	235
1784.787	254
1789.154	238
1793.516	249
1797.874	238
1802.228	225
1806.578	214
1810.924	233
1815.266	119
1819.603	234
1823.937	224
1828.266	226
1832.591	221
1836.913	222
1841.23	213
1845.543	207
1849.852	224
1854.156	205
1858.457	216
1862.754	205
1867.047	221
1871.335	229
1875.62	226
1879.9	228
1884.177	213
1888.449	221
1892.718	220
1896.982	219
1901.243	203
1905.499	202
1909.752	205
1914	193
1918.245	208
1922.485	217
1926.722	206
1930.954	188
1935.183	212
1939.408	211
1943.628	195
1947.845	203
1952.058	197
1956.267	186
1960.472	199
1964.673	200
1968.87	192
1973.063	185
1977.252	184
1981.438	176
1985.619	174
1989.797	169
1993.971	178
1998.14	187
2002.306	180
2006.469	184
2010.627	166
2014.781	176
2018.932	157
2023.078	189
2027.221	184
2031.36	167
2035.495	170
2039.627	177
2043.754	172
2047.878	161
2051.998	161
2056.114	153
2060.226	163
2064.334	162
2068.439	173
2072.54	166
2076.637	157
2080.73	162
2084.82	158
2088.906	158
2092.988	159
2097.066	162
2101.14	173
2105.211	169
2109.278	150
2113.342	150
2117.401	149
2121.457	131
2125.509	139
2129.558	149
2133.602	142
2137.643	140
2141.681	145
2145.714	146
2149.744	153
2153.77	142
2157.793	129
2161.812	117
2165.827	111
2169.838	145
2173.846	124
2177.851	122
2181.851	138
2185.848	126
2189.841	125
2193.831	126
2197.817	129
2201.799	121
2205.778	104
2209.753	112
2213.725	108
2217.693	117
2221.657	109
2225.618	118
2229.575	117
2233.529	119
2237.479	115
2241.425	107
2245.368	101
2249.307	109
2253.243	101
2257.175	112
2261.104	100
2265.029	104
2268.95	102
2272.868	102
2276.783	91
2280.694	100
2284.601	97
2288.505	94
2292.405	104
2296.302	79
2300.195	84
2304.085	64
2307.971	89
2311.854	67
2315.734	78
2319.609	79
2323.482	63
2327.351	75
2331.216	77
2335.078	84
2338.937	81
2342.792	71
2346.643	73
2350.492	80
2354.336	74
2358.178	81
2362.015	77
2365.85	75
2369.681	75
2373.508	84
2377.333	83
2381.153	78
2384.971	75
2388.785	73
2392.595	61
2396.402	66
2400.206	39
2404.007	52
2407.804	67
2411.597	63
2415.388	65
2419.174	65
2422.958	76
2426.738	56
2430.515	71
2434.289	56
2438.059	55
2441.825	59
2445.589	75
2449.349	46
2453.106	69
2456.859	59
2460.61	65
2464.356	52
2468.1	53
2471.84	44
2475.577	49
2479.311	46
2483.041	48
2486.768	61
2490.492	54
2494.213	54
2497.93	40
2501.644	37
2505.355	48
2509.062	41
2512.766	47
2516.467	41
2520.165	39
2523.859	31
2527.551	65
2531.239	33
2534.923	47
2538.605	44
2542.283	48
2545.958	44
2549.63	51
2553.299	55
2556.964	35
2560.626	41
2564.285	46
2567.941	33
2571.594	36
2575.243	44
2578.89	38
2582.533	34
2586.173	40
2589.809	38
2593.443	14
2597.073	34
2600.701	38
2604.325	35
2607.946	28
2611.564	38
2615.178	37
2618.79	39
2622.398	25
2626.004	36
2629.606	33
2633.205	24
2636.801	39
2640.394	32
2643.983	31
2647.57	26
2651.153	25
2654.734	38
2658.311	7
2661.885	20
2665.456	26
2669.025	28
2672.589	21
2676.151	35
2679.71	35
2683.266	22
2686.819	18
2690.368	32
2693.915	31
2697.458	29
2700.999	32
2704.536	27
2708.071	24
2711.602	22
2715.13	20
2718.656	6
2722.178	23
2725.697	6
2729.214	13
2732.727	23
2736.237	6
2739.744	13
2743.249	13
2746.75	19
2750.248	8
2753.743	19
2757.236	18
2760.725	24
2764.211	-11
2767.695	24
2771.175	15
2774.652	20
2778.127	13
2781.598	12
2785.067	14
2788.532	4
2791.995	17
2795.455	5
2798.911	21
2802.365	9
2805.816	17
2809.264	26
2812.709	10
2816.151	16
2819.59	3
2823.026	10
2826.46	10
2829.89	21
2833.318	-2
2836.742	11
2840.164	13
2843.583	9
2846.999	14
2850.412	12
2853.822	8
2857.229	31
2860.634	21
2864.035	3
2867.434	22
2870.83	26
2874.223	14
2877.613	15
2881	14
2884.385	9
2887.766	8
2891.145	16
2894.521	12
2897.894	4
2901.264	20
2904.631	16
2907.996	22
2911.358	25
2914.717	17
2918.073	19
2921.426	14
2924.777	3
2928.124	15
2931.469	30
2934.811	4
2938.15	32
2941.487	24
2944.821	35
2948.152	27
2951.48	29
2954.805	13
2958.128	38
2961.447	23
2964.765	42
2968.079	27
2971.39	29
2974.699	33
2978.005	32
2981.308	30
2984.609	23
2987.907	34
2991.202	38
2994.494	23
2997.784	29
3001.07	27
3004.355	30
3007.636	28
3010.915	33
3014.191	25
3017.464	31
3020.734	31
3024.002	37
3027.267	35
3030.53	36
3033.789	40
3037.046	41
3040.301	34
3043.552	39
3046.801	41
3050.048	52
3053.291	66
3056.532	48
3059.771	37
3063.006	54
3066.239	49
3069.469	57
3072.697	53
3075.922	44
3079.144	45
3082.364	74
3085.581	54
3088.795	75
3092.007	70
3095.216	77
3098.423	71
3101.627	46
3104.828	76
3108.026	68
3111.222	93
3114.416	96
3117.607	85
3120.795	85
3123.98	92
3127.163	78
3130.344	85
3133.521	75
3136.696	104
3139.869	96
3143.039	79
3146.206	106
3149.371	105
3152.533	106
3155.693	91
3158.85	101
3162.005	107
3165.157	102
3168.306	107
3171.453	113
3174.597	100
3177.739	94
3180.878	115
3184.014	117
3187.149	114
3190.28	116
3193.409	122
3196.536	117
3199.659	124
3202.781	124
3205.9	104
3209.016	111
3212.13	111
3215.241	117
3218.35	113
3221.456	102
3224.56	96
3227.661	102
3230.76	94
3233.856	95
3236.95	103
3240.041	89
3243.13	110
3246.216	103
3249.3	108
3252.382	101
3255.46	90
3258.537	51
3261.611	90
3264.682	98
3267.751	92
3270.818	90
3273.882	103
3276.943	98
3280.002	104
3283.059	78
3286.113	89
3289.165	79
3292.214	83
3295.261	97
3298.306	71
3301.348	78
3304.387	79
3307.425	87
3310.459	80
3313.492	93
3316.521	82
3319.549	88
3322.574	88
3325.597	81
3328.617	75
3331.635	78
3334.65	60
3337.663	79
3340.674	74
3343.682	79
3346.688	86
3349.691	65
3352.692	73
3355.691	80
3358.687	76
3361.681	78
3364.673	73
3367.662	79
3370.649	77
3373.633	58
3376.615	71
3379.595	51
3382.572	65
3385.547	48
3388.52	56
3391.49	55
3394.458	57
3397.424	65
3400.387	53
3403.348	60
3406.307	51
3409.263	49
3412.217	69
3415.168	57
3418.118	64
3421.065	56
3424.009	64
3426.951	51
3429.891	46
3432.829	50
3435.764	50
3438.697	39
3441.628	53
3444.557	29
3447.483	35
3450.407	50
3453.328	33
3456.247	34
3459.164	25
3462.079	39
3464.991	36
3467.902	34
3470.809	27
3473.715	32
3476.618	24
3479.519	29
3482.418	11
3485.315	14
3488.209	11
3491.101	19
3493.99	5
3496.878	12
3499.763	16
3502.646	13
3505.527	4
3508.405	3
3511.281	-3
3514.155	7
3517.027	4
3519.897	-8
3522.764	5
3525.629	-20
3528.492	-4
3531.352	1
3534.211	-5
3537.067	-11
3539.921	-8
3542.773	1
3545.622	-14
3548.469	-25
3551.315	-20
3554.157	-8
3556.998	-20
3559.837	-13
3562.673	-8
3565.507	-21
3568.339	-21
3571.169	-20
3573.996	-18
3576.822	-27
3579.645	-24
3582.466	-25
3585.285	-15
3588.101	-18
3590.916	-22
3593.728	-10
3596.538	-19
3599.346	-17
3602.152	-29
3604.956	-25
3607.757	-19
3610.556	-34
3613.354	-16
3616.149	-21
3618.942	-21
3621.732	-19
3624.521	-28
3627.307	-33
3630.092	-32
3632.874	-17
3635.654	-23
3638.432	-37
3641.208	-30
3643.982	-27
3646.753	-23
3649.523	-56
3652.29	-28
3655.055	-24
3657.818	-25
3660.579	-31
3663.338	-39
3666.095	-40
3668.849	-56
3671.602	-26
3674.352	-38
3677.101	-22
3679.847	-21
3682.591	-39
3685.333	-38
3688.073	-33
3690.811	-41
3693.547	-45
3696.281	-42
3699.013	-31
3701.742	-36
3704.47	-45
3707.195	-30
3709.919	-34
3712.64	-34
3715.359	-47
3718.076	-23
3720.792	-39
3723.505	-33
3726.216	-24
3728.925	-39
3731.632	-40
3734.336	-37
3737.039	-34
3739.74	-31
3742.439	-56
3745.136	-26
3747.83	-31
3750.523	-28
3753.213	-99
3755.902	-34
3758.589	-52
3761.273	-42
3763.956	-24
3766.636	-50
3769.315	-26
3771.991	-40
3774.665	-40
3777.338	-36
3780.008	-49
3782.677	-35
3785.343	-54
3788.007	-61
3790.67	-29
3793.33	-48
3795.989	-42
3798.645	-30
3801.299	-46
3803.952	-45
3806.602	-38
3809.251	-27
3811.897	-35
3814.542	-41
3817.184	-39
3819.825	-33
3822.463	-52
3825.1	-33
3827.735	-31
3830.367	-42
3832.998	-22
3835.627	-38
3838.253	-27
3840.878	-38
3843.501	-22
3846.122	-32
3848.741	-32
3851.358	-27
3853.973	-48
3856.586	-29
3859.197	-45
3861.806	-38
3864.414	-47
3867.019	-36
3869.622	-34
3872.224	-27
3874.823	-21
3877.421	0
3880.016	9
3882.61	32
3885.202	43
3887.792	27
3890.38	9
3892.966	-25
3895.55	-36
3898.132	-25
3900.713	-25
3903.291	-32
3905.868	-39
3908.442	-37
3911.015	-35
3913.586	-39
3916.155	-40
3918.722	-41
3921.287	-45
3923.85	-52
3926.411	-45
3928.971	-41
3931.528	-38
3934.084	-42
3936.638	-47
3939.19	-36
3941.74	-33
3944.288	-39
3946.834	-40
3949.378	-25
3951.921	-43
3954.462	-35
3957	-28
3959.537	-24
3962.072	-35
3964.606	-52
3967.137	-36
3969.667	-36
3972.194	-29
3974.72	-37
3977.244	-57
3979.766	-46
3982.286	-39
3984.805	-31
3987.321	-26
3989.836	-31
3992.349	-43
3994.86	-39
3997.369	-45
3999.877	-41
4002.382	-42
4004.886	-36
4007.388	-36
4009.888	-29
4012.386	-30
4014.883	-34
4017.377	-33
4019.87	-31
4022.361	-42
4024.85	-36
4027.338	-34
4029.823	-36
4032.307	-37
4034.789	-32
4037.269	-38
4039.747	-46
4042.224	-27
4044.699	-40
4047.172	-35
4049.643	-32
4052.112	-60
4054.58	-33
4057.046	-48
4059.51	-38
4061.972	-36
4064.432	-49
4066.891	-26
4069.348	-37
4071.803	-33
4074.256	-39
4076.708	-30
4079.158	-36
4081.606	-28
4084.052	-35
4086.497	-34
4088.939	-34
4091.38	-34
4093.819	-29
4096.257	3
4098.693	-6
4101.127	-9
4103.559	1
4105.989	59
4108.418	70
4110.845	53
4113.27	55
4115.694	60
4118.115	45
4120.535	-29
4122.954	-27
4125.37	-18
4127.785	-31
4130.198	-24
4132.609	-31
4135.019	8
4137.427	2
4139.833	6
4142.237	-5
