Data from 2018-3-6_conc=0_n=9_RamanShift_02.txt Node
Date: Tue Mar 06 12:34:49 GMT+02:00 2018
User: LAB3
Spectrometer: QEPB0276
Trigger mode: 0
Integration Time (sec): 3.000000E1
Scans to average: 1
Electric dark correction enabled: true
Nonlinearity correction enabled: false
Boxcar width: 0
XAxis mode: Raman Shifts
Number of Pixels in Spectrum: 1044
>>>>>Begin Spectral Data<<<<<
160.701	176
166.742	224
172.777	326
178.805	658
184.826	1509
190.841	3017
196.849	4812
202.85	6164
208.845	6724
214.833	6750
220.815	6693
226.789	6696
232.758	6742
238.719	6791
244.674	6744
250.623	6766
256.565	6694
262.5	6645
268.429	6607
274.351	6579
280.267	6623
286.176	6627
292.079	6655
297.975	6700
303.865	6711
309.748	6702
315.625	6751
321.495	6780
327.359	6759
333.217	6828
339.068	6819
344.912	6846
350.751	6862
356.583	6923
362.408	6962
368.227	6973
374.04	7010
379.847	7033
385.647	7084
391.44	7094
397.228	7145
403.009	7174
408.784	7210
414.553	7262
420.315	7307
426.071	7278
431.821	7317
437.565	7313
443.302	7314
449.033	7256
454.758	7208
460.477	7149
466.189	7077
471.896	6984
477.596	6948
483.29	6921
488.978	6937
494.66	6865
500.335	6651
506.005	6361
511.668	6073
517.325	5747
522.977	5522
528.622	5333
534.261	5191
539.894	5081
545.521	5037
551.141	4961
556.756	4885
562.365	4860
567.968	4815
573.565	4814
579.155	4739
584.74	4697
590.319	4710
595.892	4735
601.459	4713
607.02	4716
612.575	4662
618.124	4609
623.667	4533
629.204	4487
634.735	4403
640.261	4346
645.781	4316
651.294	4295
656.802	4303
662.304	4276
667.8	4254
673.29	4261
678.775	4238
684.254	4215
689.726	4204
695.193	4170
700.655	4169
706.11	4122
711.56	4123
717.004	4102
722.442	4084
727.874	4037
733.301	4066
738.722	4014
744.137	4017
749.547	3996
754.951	4021
760.349	4005
765.741	4036
771.128	4069
776.509	4110
781.885	4196
787.254	4237
792.618	4222
797.977	4231
803.33	4201
808.677	4175
814.019	4131
819.355	4126
824.686	4065
830.011	4053
835.33	4035
840.644	3989
845.952	3969
851.255	3953
856.552	3904
861.844	3858
867.13	3846
872.41	3848
877.686	3878
882.955	3924
888.219	3854
893.478	3734
898.731	3634
903.979	3571
909.221	3528
914.458	3482
919.69	3488
924.916	3492
930.136	3499
935.351	3519
940.561	3508
945.766	3476
950.965	3504
956.158	3450
961.347	3380
966.529	3373
971.707	3335
976.879	3302
982.046	3257
987.208	3234
992.364	3259
997.515	3256
1002.66	3269
1007.801	3325
1012.936	3339
1018.066	3330
1023.19	3361
1028.309	3403
1033.423	3385
1038.532	3397
1043.636	3378
1048.734	3382
1053.827	3366
1058.915	3316
1063.998	3286
1069.075	3267
1074.147	3259
1079.214	3266
1084.276	3300
1089.333	3292
1094.385	3303
1099.431	3276
1104.472	3266
1109.509	3214
1114.54	3161
1119.565	3114
1124.586	3070
1129.602	3030
1134.613	3002
1139.618	2979
1144.619	2995
1149.614	2994
1154.604	3006
1159.589	3013
1164.57	3005
1169.545	3037
1174.515	3011
1179.48	3002
1184.44	2995
1189.395	2976
1194.345	2921
1199.29	2928
1204.23	2904
1209.165	2919
1214.095	2944
1219.021	2964
1223.941	2955
1228.856	2968
1233.766	2981
1238.672	2964
1243.572	2980
1248.467	2933
1253.358	2898
1258.244	2853
1263.124	2844
1268	2780
1272.871	2733
1277.737	2730
1282.599	2704
1287.455	2715
1292.306	2728
1297.153	2704
1301.995	2702
1306.832	2745
1311.664	2750
1316.491	2739
1321.314	2727
1326.132	2700
1330.945	2696
1335.753	2638
1340.556	2592
1345.354	2529
1350.148	2547
1354.937	2516
1359.722	2463
1364.501	2465
1369.276	2433
1374.046	2472
1378.811	2445
1383.572	2446
1388.327	2455
1393.079	2427
1397.825	2388
1402.567	2375
1407.304	2354
1412.036	2351
1416.764	2343
1421.487	2342
1426.205	2338
1430.919	2347
1435.628	2353
1440.333	2358
1445.032	2405
1449.727	2449
1454.418	2457
1459.104	2495
1463.785	2444
1468.462	2415
1473.134	2347
1477.802	2320
1482.465	2261
1487.123	2280
1491.777	2236
1496.426	2230
1501.071	2261
1505.711	2259
1510.347	2291
1514.978	2296
1519.604	2283
1524.226	2299
1528.844	2249
1533.457	2247
1538.065	2234
1542.669	2183
1547.269	2202
1551.864	2178
1556.454	2140
1561.041	2125
1565.622	2120
1570.199	2145
1574.772	2157
1579.34	2195
1583.904	2186
1588.464	2204
1593.019	2208
1597.569	2183
1602.115	2185
1606.657	2188
1611.195	2191
1615.728	2182
1620.256	2159
1624.78	2144
1629.3	2148
1633.816	2172
1638.327	2170
1642.834	2196
1647.336	2225
1651.834	2232
1656.328	2240
1660.817	2257
1665.302	2205
1669.783	2198
1674.259	2169
1678.732	2153
1683.199	2108
1687.663	2040
1692.122	2000
1696.577	1969
1701.028	1950
1705.474	1921
1709.917	1883
1714.355	1875
1718.788	1842
1723.218	1800
1727.643	1786
1732.064	1774
1736.481	1730
1740.893	1703
1745.301	1654
1749.705	1605
1754.105	1599
1758.501	1563
1762.893	1552
1767.28	1516
1771.663	1511
1776.042	1502
1780.417	1482
1784.787	1502
1789.154	1500
1793.516	1511
1797.874	1516
1802.228	1505
1806.578	1491
1810.924	1498
1815.266	1377
1819.603	1449
1823.937	1420
1828.266	1402
1832.591	1379
1836.913	1356
1841.23	1362
1845.543	1344
1849.852	1375
1854.156	1353
1858.457	1367
1862.754	1359
1867.047	1365
1871.335	1368
1875.62	1376
1879.9	1386
1884.177	1381
1888.449	1367
1892.718	1360
1896.982	1366
1901.243	1353
1905.499	1343
1909.752	1352
1914	1342
1918.245	1363
1922.485	1379
1926.722	1363
1930.954	1373
1935.183	1382
1939.408	1382
1943.628	1372
1947.845	1365
1952.058	1354
1956.267	1331
1960.472	1315
1964.673	1286
1968.87	1267
1973.063	1219
1977.252	1208
1981.438	1190
1985.619	1187
1989.797	1161
1993.971	1153
1998.14	1167
2002.306	1153
2006.469	1160
2010.627	1139
2014.781	1129
2018.932	1131
2023.078	1136
2027.221	1122
2031.36	1094
2035.495	1078
2039.627	1077
2043.754	1082
2047.878	1059
2051.998	1059
2056.114	1067
2060.226	1059
2064.334	1077
2068.439	1072
2072.54	1092
2076.637	1088
2080.73	1107
2084.82	1082
2088.906	1082
2092.988	1086
2097.066	1080
2101.14	1086
2105.211	1060
2109.278	1042
2113.342	1047
2117.401	1012
2121.457	1014
2125.509	995
2129.558	996
2133.602	971
2137.643	975
2141.681	965
2145.714	958
2149.744	947
2153.77	957
2157.793	936
2161.812	904
2165.827	883
2169.838	909
2173.846	881
2177.851	865
2181.851	856
2185.848	845
2189.841	842
2193.831	816
2197.817	819
2201.799	820
2205.778	806
2209.753	796
2213.725	789
2217.693	783
2221.657	782
2225.618	798
2229.575	771
2233.529	779
2237.479	782
2241.425	755
2245.368	745
2249.307	740
2253.243	725
2257.175	725
2261.104	698
2265.029	692
2268.95	685
2272.868	668
2276.783	654
2280.694	676
2284.601	661
2288.505	655
2292.405	644
2296.302	612
2300.195	623
2304.085	586
2307.971	608
2311.854	572
2315.734	588
2319.609	579
2323.482	557
2327.351	554
2331.216	551
2335.078	565
2338.937	543
2342.792	524
2346.643	535
2350.492	544
2354.336	526
2358.178	544
2362.015	539
2365.85	526
2369.681	536
2373.508	535
2377.333	539
2381.153	541
2384.971	527
2388.785	530
2392.595	510
2396.402	511
2400.206	488
2404.007	507
2407.804	500
2411.597	509
2415.388	499
2419.174	493
2422.958	497
2426.738	487
2430.515	498
2434.289	474
2438.059	481
2441.825	478
2445.589	494
2449.349	455
2453.106	473
2456.859	462
2460.61	470
2464.356	448
2468.1	439
2471.84	439
2475.577	444
2479.311	441
2483.041	435
2486.768	466
2490.492	453
2494.213	441
2497.93	428
2501.644	415
2505.355	424
2509.062	424
2512.766	436
2516.467	427
2520.165	424
2523.859	410
2527.551	438
2531.239	418
2534.923	427
2538.605	419
2542.283	416
2545.958	413
2549.63	425
2553.299	427
2556.964	410
2560.626	402
2564.285	419
2567.941	391
2571.594	404
2575.243	404
2578.89	395
2582.533	384
2586.173	387
2589.809	386
2593.443	363
2597.073	380
2600.701	370
2604.325	368
2607.946	356
2611.564	373
2615.178	357
2618.79	360
2622.398	352
2626.004	362
2629.606	350
2633.205	333
2636.801	346
2640.394	337
2643.983	325
2647.57	336
2651.153	318
2654.734	331
2658.311	297
2661.885	306
2665.456	314
2669.025	308
2672.589	294
2676.151	322
2679.71	321
2683.266	307
2686.819	294
2690.368	293
2693.915	303
2697.458	288
2700.999	292
2704.536	294
2708.071	281
2711.602	277
2715.13	275
2718.656	261
2722.178	279
2725.697	274
2729.214	271
2732.727	282
2736.237	270
2739.744	272
2743.249	274
2746.75	279
2750.248	271
2753.743	277
2757.236	274
2760.725	277
2764.211	245
2767.695	268
2771.175	266
2774.652	268
2778.127	265
2781.598	260
2785.067	265
2788.532	249
2791.995	263
2795.455	259
2798.911	268
2802.365	261
2805.816	267
2809.264	273
2812.709	267
2816.151	275
2819.59	256
2823.026	269
2826.46	268
2829.89	271
2833.318	257
2836.742	274
2840.164	273
2843.583	277
2846.999	271
2850.412	285
2853.822	281
2857.229	296
2860.634	297
2864.035	289
2867.434	306
2870.83	322
2874.223	315
2877.613	327
2881	323
2884.385	328
2887.766	332
2891.145	332
2894.521	338
2897.894	321
2901.264	331
2904.631	327
2907.996	337
2911.358	345
2914.717	336
2918.073	333
2921.426	335
2924.777	329
2928.124	349
2931.469	373
2934.811	367
2938.15	403
2941.487	397
2944.821	408
2948.152	377
2951.48	377
2954.805	360
2958.128	371
2961.447	365
2964.765	372
2968.079	361
2971.39	366
2974.699	370
2978.005	372
2981.308	377
2984.609	365
2987.907	385
2991.202	384
2994.494	366
2997.784	385
3001.07	376
3004.355	367
3007.636	365
3010.915	389
3014.191	369
3017.464	383
3020.734	373
3024.002	378
3027.267	377
3030.53	375
3033.789	373
3037.046	387
3040.301	383
3043.552	400
3046.801	406
3050.048	419
3053.291	430
3056.532	426
3059.771	422
3063.006	450
3066.239	452
3069.469	468
3072.697	480
3075.922	487
3079.144	493
3082.364	535
3085.581	511
3088.795	539
3092.007	541
3095.216	563
3098.423	565
3101.627	551
3104.828	585
3108.026	587
3111.222	615
3114.416	622
3117.607	627
3120.795	637
3123.98	655
3127.163	650
3130.344	675
3133.521	692
3136.696	725
3139.869	728
3143.039	725
3146.206	766
3149.371	752
3152.533	772
3155.693	742
3158.85	766
3162.005	769
3165.157	770
3168.306	756
3171.453	786
3174.597	772
3177.739	761
3180.878	781
3184.014	781
3187.149	789
3190.28	785
3193.409	797
3196.536	795
3199.659	801
3202.781	798
3205.9	794
3209.016	790
3212.13	785
3215.241	797
3218.35	777
3221.456	777
3224.56	758
3227.661	775
3230.76	757
3233.856	746
3236.95	751
3240.041	742
3243.13	749
3246.216	747
3249.3	742
3252.382	735
3255.46	727
3258.537	684
3261.611	729
3264.682	726
3267.751	725
3270.818	707
3273.882	722
3276.943	719
3280.002	720
3283.059	694
3286.113	672
3289.165	684
3292.214	661
3295.261	675
3298.306	641
3301.348	637
3304.387	634
3307.425	620
3310.459	617
3313.492	617
3316.521	608
3319.549	610
3322.574	609
3325.597	596
3328.617	580
3331.635	590
3334.65	572
3337.663	582
3340.674	578
3343.682	583
3346.688	575
3349.691	568
3352.692	572
3355.691	583
3358.687	561
3361.681	572
3364.673	556
3367.662	564
3370.649	560
3373.633	543
3376.615	544
3379.595	514
3382.572	517
3385.547	503
3388.52	503
3391.49	499
3394.458	501
3397.424	505
3400.387	481
3403.348	481
3406.307	480
3409.263	473
3412.217	480
3415.168	473
3418.118	477
3421.065	469
3424.009	464
3426.951	452
3429.891	438
3432.829	438
3435.764	437
3438.697	419
3441.628	426
3444.557	395
3447.483	390
3450.407	397
3453.328	373
3456.247	360
3459.164	351
3462.079	362
3464.991	343
3467.902	339
3470.809	326
3473.715	329
3476.618	307
3479.519	317
3482.418	279
3485.315	284
3488.209	282
3491.101	277
3493.99	261
3496.878	256
3499.763	258
3502.646	248
3505.527	224
3508.405	237
3511.281	216
3514.155	223
3517.027	211
3519.897	193
3522.764	195
3525.629	168
3528.492	178
3531.352	184
3534.211	170
3537.067	160
3539.921	158
3542.773	157
3545.622	132
3548.469	126
3551.315	122
3554.157	122
3556.998	107
3559.837	109
3562.673	111
3565.507	94
3568.339	95
3571.169	93
3573.996	89
3576.822	65
3579.645	68
3582.466	79
3585.285	78
3588.101	76
3590.916	65
3593.728	71
3596.538	63
3599.346	61
3602.152	46
3604.956	47
3607.757	56
3610.556	31
3613.354	50
3616.149	42
3618.942	45
3621.732	39
3624.521	28
3627.307	23
3630.092	24
3632.874	43
3635.654	27
3638.432	11
3641.208	18
3643.982	23
3646.753	28
3649.523	-1
3652.29	9
3655.055	15
3657.818	18
3660.579	10
3663.338	-2
3666.095	-2
3668.849	-21
3671.602	6
3674.352	-8
3677.101	8
3679.847	3
3682.591	-10
3685.333	-17
3688.073	-5
3690.811	-19
3693.547	-18
3696.281	-22
3699.013	-4
3701.742	-13
3704.47	-20
3707.195	-9
3709.919	-14
3712.64	-13
3715.359	-21
3718.076	-7
3720.792	-17
3723.505	-11
3726.216	-3
3728.925	-16
3731.632	-22
3734.336	-16
3737.039	-18
3739.74	-15
3742.439	-39
3745.136	-18
3747.83	-14
3750.523	-18
3753.213	-82
3755.902	-20
3758.589	-35
3761.273	-20
3763.956	-14
3766.636	-34
3769.315	-14
3771.991	-19
3774.665	-25
3777.338	-16
3780.008	-35
3782.677	-21
3785.343	-40
3788.007	-40
3790.67	-17
3793.33	-31
3795.989	-29
3798.645	-20
3801.299	-35
3803.952	-34
3806.602	-29
3809.251	-20
3811.897	-27
3814.542	-25
3817.184	-27
3819.825	-24
3822.463	-38
3825.1	-27
3827.735	-22
3830.367	-35
3832.998	-9
3835.627	-29
3838.253	-15
3840.878	-23
3843.501	-10
3846.122	-18
3848.741	-17
3851.358	-21
3853.973	-39
3856.586	-17
3859.197	-33
3861.806	-26
3864.414	-32
3867.019	-20
3869.622	-15
3872.224	-9
3874.823	13
3877.421	50
3880.016	76
3882.61	130
3885.202	143
3887.792	107
3890.38	59
3892.966	8
3895.55	-18
3898.132	-17
3900.713	-14
3903.291	-28
3905.868	-38
3908.442	-29
3911.015	-30
3913.586	-35
3916.155	-23
3918.722	-37
3921.287	-34
3923.85	-46
3926.411	-32
3928.971	-34
3931.528	-27
3934.084	-35
3936.638	-38
3939.19	-26
3941.74	-27
3944.288	-39
3946.834	-31
3949.378	-23
3951.921	-37
3954.462	-33
3957	-27
3959.537	-16
3962.072	-36
3964.606	-44
3967.137	-33
3969.667	-34
3972.194	-30
3974.72	-31
3977.244	-52
3979.766	-37
3982.286	-34
3984.805	-25
3987.321	-15
3989.836	-24
3992.349	-34
3994.86	-30
3997.369	-29
3999.877	-31
4002.382	-33
4004.886	-22
4007.388	-28
4009.888	-20
4012.386	-22
4014.883	-26
4017.377	-25
4019.87	-22
4022.361	-37
4024.85	-27
4027.338	-30
4029.823	-35
4032.307	-34
4034.789	-24
4037.269	-25
4039.747	-42
4042.224	-20
4044.699	-31
4047.172	-31
4049.643	-22
4052.112	-50
4054.58	-28
4057.046	-38
4059.51	-30
4061.972	-26
4064.432	-42
4066.891	-12
4069.348	-26
4071.803	-23
4074.256	-29
4076.708	-20
4079.158	-23
4081.606	-16
4084.052	-22
4086.497	-23
4088.939	-30
4091.38	-30
4093.819	-23
4096.257	-3
4098.693	-8
4101.127	-5
4103.559	2
4105.989	148
4108.418	152
4110.845	135
4113.27	149
4115.694	155
4118.115	153
4120.535	-18
4122.954	-15
4125.37	-15
4127.785	-20
4130.198	-17
4132.609	-22
4135.019	10
4137.427	1
4139.833	5
4142.237	-2
