##TITLE=BSC0R1
##FORMAT=SPECTACLE-ASCII V-1.2
##DATA TYPE=ULTRAVIOLET SPECTRUM
##SECOND TYPE=ULTRAVIOLET SPECTRUM
##DATE=05/28/18
##TIME=11:20:18
##SPECTROMETER/DATA SYSTEM=SPECTACLE
##XUNITS=NM EM
##YUNITS=ENERGY
##YFACTOR=1
##FIRSTX=220
##LASTX=410
##NPOINTS=96
##3DDATA=Equidistant
##ZUNITS=NM EX
##FIRSTZ=210
##LASTZ=400
##ZPOINTS=39
##XYDATA=(Y..Y)
##ZVALUE=210
27.268529
26.941895
25.888681
24.491549
22.076964
19.120574
15.758872
13.392568
10.982752
8.159876
6.908774
4.262924
4.006624
3.400445
3.551841
4.069805
4.454851
3.805757
3.740788
4.979968
4.938841
5.472898
6.380677
7.070899
8.548498
9.660721
12.729764
14.063716
14.838576
15.529990
16.811490
16.799569
19.213557
18.667579
17.781854
17.969608
16.718507
17.884970
16.759634
16.966462
16.800761
16.209483
17.071962
15.099645
14.390945
13.932586
16.015768
14.383793
13.738871
13.696551
14.694929
12.704730
13.131499
12.400746
12.691617
13.150573
10.827780
12.212992
12.965798
11.418462
10.623932
11.729598
10.245442
10.859966
11.225939
11.256933
12.599826
12.635589
14.753938
16.104579
18.598437
18.861890
21.181703
21.419525
22.436976
22.117496
20.098686
18.492937
17.436743
15.132427
12.549758
12.542605
10.258555
10.159612
8.823872
7.820725
7.476807
8.316636
9.548664
11.949539
17.556548
23.835897
31.564832
44.324994
61.449409
72.204471
##ZVALUE=215
75.034499
71.204901
59.312582
47.130585
40.969849
35.447478
35.163760
30.406713
29.172897
25.841594
19.726753
15.784502
10.102987
9.175539
7.444620
5.042553
4.720688
4.438758
4.980564
5.032420
4.696846
5.346537
6.648898
6.983876
8.875728
11.556745
12.272596
14.062524
13.725758
16.940832
16.933680
17.547607
19.628406
17.897487
18.244982
19.109845
17.967820
19.152761
17.576814
17.802715
17.164946
16.299486
16.940832
16.733408
17.328858
16.158819
16.672611
15.674829
15.568733
16.079545
15.276670
16.659498
15.923977
15.021563
16.289949
15.136600
15.544891
14.956594
15.249848
13.431907
14.485717
12.857914
12.564659
12.688637
12.821555
13.697743
13.504624
14.426708
14.609694
17.061830
17.798543
18.174648
19.876957
20.448565
19.633770
19.591451
17.391443
16.796589
17.066598
12.982488
13.332963
11.985898
10.939837
8.925796
9.530783
7.840991
7.277727
7.932782
7.379651
7.049441
8.385777
7.216930
8.441806
10.931492
14.020801
20.654798
##ZVALUE=220
154.256821
154.468417
142.970681
116.862655
94.415545
68.938732
58.405995
49.522519
45.292974
47.521591
42.035580
39.579868
34.374595
27.690530
19.399524
15.340447
10.255575
7.046461
5.256534
4.443526
4.602671
4.800558
6.753802
5.617738
7.024407
6.950498
8.300543
9.695888
10.042787
11.138916
11.974573
12.616515
13.689995
13.326406
13.838410
13.012886
14.221668
15.262961
15.754700
15.489459
16.666651
15.866756
15.513897
16.093850
15.891790
16.836524
15.242696
15.461445
15.899539
17.226934
16.295910
16.161799
18.004775
16.413927
16.647577
15.615821
15.880466
15.604496
15.242696
13.897419
14.760494
13.565421
13.594627
13.414621
13.526678
11.851788
13.589859
14.609694
15.058517
15.683770
15.648603
15.937686
16.967654
17.662644
17.056465
15.654564
16.522408
14.053583
13.635755
13.311505
11.190772
10.332465
9.129643
9.063482
8.690953
7.703900
7.432699
7.183552
7.159710
6.687641
5.925894
6.125569
6.297827
6.269813
5.945563
5.436540
##ZVALUE=225
188.933611
199.011564
221.263766
229.392648
218.886733
185.595751
154.484510
111.403465
84.780455
69.509745
58.625937
61.572790
60.483813
58.651567
52.068830
46.662688
33.577681
26.302934
18.649697
11.131763
7.798672
5.375743
5.141497
4.884601
5.236864
5.655885
5.715489
6.615520
7.060766
6.725788
7.800460
7.849932
8.272529
8.934736
10.170937
10.732412
10.992885
12.452602
13.061762
14.716983
14.135838
14.217496
14.109612
14.006495
15.194416
15.916824
15.150905
16.245842
16.107559
15.750527
14.604926
16.113520
16.342998
15.966892
15.995502
14.938712
14.788508
15.752912
15.090704
15.709996
13.451576
13.341904
12.731552
13.169646
12.773871
13.888478
13.449788
12.962818
13.545752
14.590621
14.040470
15.269518
15.710592
16.060472
15.194416
14.587641
14.013648
13.531446
12.682676
10.177493
10.188818
9.260774
8.199811
8.016825
7.997751
7.495880
7.930994
6.784797
6.937981
6.226897
6.517768
5.878806
5.978942
6.415844
6.373525
6.445646
##ZVALUE=230
118.319988
126.164556
180.847645
260.078907
303.975940
333.462954
328.058600
286.104679
236.895680
189.525485
125.564933
93.901753
74.606538
73.760748
77.573657
77.604651
75.298548
69.679618
55.589676
45.054555
31.891465
19.259453
13.333559
7.382631
6.363988
4.609823
4.373789
5.341768
5.210638
5.625486
6.458759
6.211996
6.653666
6.937981
7.208586
7.863641
9.856820
9.938478
11.480451
11.866689
12.046695
13.357997
13.568997
13.306737
13.469458
13.958812
14.102459
12.833476
14.171600
14.096498
13.125539
13.625622
13.788939
14.646649
14.047623
13.365746
13.107657
12.725592
13.517737
13.014674
13.353825
12.540817
12.778640
11.769533
12.882948
12.169480
11.610985
12.377501
12.913942
13.553500
13.533831
14.719963
14.588833
15.053749
14.388561
14.414787
12.881756
11.442900
11.055470
10.197759
9.953976
9.016991
8.341670
7.784963
8.202791
7.610917
6.877780
6.908774
6.174445
5.956888
6.447434
6.353855
6.620884
6.037951
6.372929
5.920529
##ZVALUE=235
25.560856
27.522445
70.268512
122.307539
209.600925
287.370682
379.663706
422.358513
435.031652
406.277776
326.106548
255.097747
186.785460
121.470690
93.642473
85.727572
86.781979
93.410611
97.955465
92.752576
82.327724
70.261955
47.388673
34.578443
20.650625
13.796687
8.984804
6.666780
4.953742
5.100965
5.267859
5.420446
6.020665
6.469488
6.849766
7.312894
7.564425
8.798838
8.850694
9.013414
9.907484
10.503531
10.588765
11.392832
11.611581
11.070967
11.700988
10.983944
11.563897
11.112690
12.024641
11.523962
11.404753
12.301803
10.718703
10.574460
10.677576
10.507703
10.200739
11.084676
10.549426
10.942817
10.718703
9.810925
10.236502
10.221601
10.472536
10.896921
11.215806
11.772513
11.635423
11.887550
12.484789
12.587905
12.122989
11.546612
11.523962
10.236502
9.902716
9.126663
8.140802
7.783771
8.010864
7.257462
6.867647
7.140636
6.355643
6.643534
6.771684
6.323457
5.586743
6.505847
6.270409
5.454421
5.787611
5.875826
##ZVALUE=240
2.031922
2.313852
6.085634
24.361610
52.701831
115.958452
191.542506
311.115980
399.463773
489.782691
519.706607
487.518907
422.810912
324.161649
243.692994
173.984766
113.805532
92.402697
87.793469
93.972683
101.924539
107.708573
98.603964
87.854862
68.000555
51.737428
36.867857
23.612976
15.722513
8.974671
7.016659
6.112456
5.927682
6.159544
6.362796
6.554723
7.170439
7.078648
7.243752
7.688999
8.350611
8.780956
9.002686
8.216500
8.990765
9.657741
8.722544
9.064674
9.581447
9.126663
9.313822
9.203553
9.284616
8.334517
8.357763
8.229613
8.161664
8.512735
7.855892
8.407831
8.138418
8.079410
8.030534
7.794499
7.200837
7.915497
8.050799
8.371472
8.436441
9.459853
9.934902
9.965897
10.828972
10.537505
10.165572
9.137988
9.141564
8.477569
7.406473
7.374883
7.318854
6.625652
6.294847
6.254911
6.234646
6.142855
5.854964
6.054640
5.610585
5.750656
5.394816
5.638599
5.492568
5.632639
5.499721
5.244613
##ZVALUE=245
1.534820
1.472831
1.553893
1.372695
3.303885
14.198422
34.087896
92.460513
166.271925
252.115726
398.054719
490.456820
563.690662
572.229624
517.691970
437.057018
311.089754
228.180885
161.351562
101.142526
83.846450
85.473657
98.358989
108.965635
110.041499
103.415847
91.508627
73.811412
58.830976
40.300488
28.189421
15.874505
11.481643
7.722974
6.795526
6.796718
6.690621
6.798506
7.570982
7.252693
7.586479
7.521510
7.497668
8.247495
8.273721
7.967949
8.140802
7.798672
8.074641
7.670522
7.552505
7.733703
7.950664
7.390976
7.108450
7.338524
6.861687
6.893873
6.743670
6.370544
6.364584
6.172657
5.926490
6.539822
6.458759
6.770492
6.307960
6.625652
7.055998
7.464886
7.579923
8.262992
7.826686
8.175969
7.891655
7.851720
7.640719
6.750822
6.601810
6.036758
5.578995
5.949736
5.597472
4.990697
4.939437
4.879832
4.720688
4.770756
4.716516
4.750490
4.432797
4.896522
4.866719
4.595518
4.725456
4.731417
##ZVALUE=250
1.211762
1.166463
1.261830
1.392961
1.465678
1.516938
2.013445
8.058548
22.949576
64.989924
123.901963
246.732831
353.493690
489.489436
561.043620
612.937808
593.123436
508.249998
416.613817
278.674960
192.137957
128.575563
81.146955
75.205564
87.071657
98.315477
111.497641
114.980936
108.105540
97.047687
78.322887
62.453747
45.230985
28.682947
19.589663
11.513829
8.873940
7.304549
7.327795
7.457733
7.726550
8.176565
7.777810
8.218884
8.064508
7.417798
8.040667
7.586479
8.190870
7.628798
7.538795
7.453561
7.230639
7.327795
6.687641
6.578565
6.456971
6.212592
6.150603
5.887747
5.643964
5.959868
6.055832
5.485415
5.636811
5.553961
5.935431
5.421638
6.136894
6.411672
6.484985
6.605983
6.780624
7.204413
6.399751
6.103516
6.221533
5.591512
5.137920
5.007982
4.880428
4.654527
4.970431
4.293919
4.172921
4.188418
4.133582
4.036427
3.951788
4.130602
4.203916
3.840923
3.987551
4.058480
4.112720
3.969669
##ZVALUE=255
1.033545
1.119971
1.283884
1.322627
1.199841
1.432896
1.315475
1.467466
1.779795
3.535748
16.783476
42.756796
87.221861
190.206766
294.000506
448.414683
549.980998
638.269782
661.839843
610.297918
516.065955
403.591990
250.663757
158.584714
90.080500
70.307851
70.773959
82.403421
101.005435
112.325549
118.179917
115.176439
104.167461
83.029866
65.417886
43.848753
31.813979
19.553900
13.648868
9.890795
8.787513
8.612871
8.641481
8.530617
8.647442
8.600950
8.546710
8.364916
8.288622
8.464456
7.966757
8.127689
7.478595
7.292628
7.179976
6.891489
6.542802
6.273985
6.126761
6.008744
5.841851
5.654693
5.069971
5.573630
5.377531
5.324483
5.461574
5.732775
5.753636
5.682707
5.965829
5.805492
5.970597
5.767941
5.179644
5.513430
5.314946
5.123615
4.721880
4.185438
4.092455
3.893971
3.761649
3.573895
3.624558
3.548861
3.524423
3.714561
3.578663
3.684759
3.586411
3.238916
3.208518
3.722906
3.504753
3.472567
##ZVALUE=260
1.006722
1.139641
1.048446
1.213551
1.016855
1.402497
1.186728
1.089573
1.295805
1.310706
1.371503
1.959801
6.475449
27.393699
61.786771
142.201781
236.347914
392.406583
517.650843
657.348633
716.653466
712.200999
621.654987
503.294468
334.744453
227.534771
129.576921
83.934665
60.355663
64.289570
83.450675
101.540685
113.955736
122.784972
119.369626
105.263591
89.751482
67.684650
51.126480
33.769608
23.479462
15.746951
12.235641
10.557771
10.176897
10.261536
9.989738
9.751916
9.664893
9.284616
9.465814
8.912683
8.900762
8.634925
8.118749
7.856488
7.545948
7.262826
7.117987
6.487966
6.534457
5.965829
6.173849
5.714893
5.547404
5.620718
5.447865
5.424619
5.338788
5.608797
5.385876
5.645752
5.573630
5.242825
5.200505
4.828572
4.795790
4.605651
4.016757
3.950000
4.034638
3.821850
3.587604
3.613830
3.295541
3.549457
3.351569
3.491640
3.123879
3.079772
3.423691
2.879500
3.130436
3.114939
3.112555
2.878904
##ZVALUE=265
0.978708
0.855923
1.026988
0.989437
0.964999
0.897646
1.192689
0.964999
1.118779
1.051426
1.327991
1.369715
1.486540
1.489520
3.699660
13.394952
47.449470
95.349550
138.048530
328.644514
471.953750
647.094846
740.260482
772.475600
720.144510
583.582520
462.941527
294.033885
190.321803
101.443529
65.739751
54.439902
62.637925
85.669756
101.454854
119.073987
123.057961
119.600892
109.281540
88.462830
72.656870
50.401688
37.134886
24.413466
17.779469
13.804436
12.423992
11.463761
11.096597
11.017919
10.937452
11.119843
10.770559
10.305643
10.019541
9.467602
8.899570
8.229613
8.203983
7.587671
7.322431
7.200837
6.915927
6.270409
6.286502
6.126761
6.046891
5.994439
6.167889
5.537868
5.781651
5.799532
5.822778
5.622506
5.462766
5.016923
4.567504
4.174709
4.029870
4.070997
3.602505
3.293753
3.484488
3.597736
3.554821
3.220439
3.102422
2.958775
3.094673
3.070831
3.000498
3.095865
2.918839
2.990961
3.099442
3.292561
##ZVALUE=270
0.824928
0.869632
0.787973
0.987649
0.868440
1.003742
1.006722
1.013875
0.919700
1.046658
1.049638
1.277924
1.194477
1.314878
1.353621
1.554489
1.781583
7.077456
20.782948
69.385767
138.409734
244.292021
429.976583
579.425693
731.295943
790.866017
774.174929
706.380010
554.725528
416.839719
288.846493
151.247978
86.652637
47.854781
46.118498
63.623786
81.271529
103.653669
115.479827
126.185417
122.630000
110.947490
95.763803
73.885918
56.577921
37.260652
28.580427
19.617677
16.129613
13.813972
12.768507
12.099743
11.831522
11.336803
10.949969
10.474920
10.212660
9.556413
9.215474
8.837581
8.281469
8.134842
7.448792
7.220507
6.666780
6.616712
6.160736
6.218553
6.161928
6.067753
6.064773
5.884767
6.096959
5.657673
5.470514
4.930496
4.775524
4.667640
4.093647
3.937483
3.409982
3.531575
3.242493
3.282428
3.225803
3.124475
3.009439
2.784729
3.156662
3.019571
2.961755
2.746582
2.805591
2.930760
3.080964
2.939701
##ZVALUE=275
0.751615
0.637770
0.699759
0.761747
0.753999
0.715852
0.866652
0.787973
0.931621
0.792742
0.965595
0.869632
0.897646
1.167655
0.909567
1.092553
0.993609
1.134872
1.283884
2.919436
11.643767
35.036802
106.131434
198.519826
372.364521
507.471561
668.512583
764.874816
809.933543
772.540569
686.112642
510.993600
366.930962
198.595524
114.842653
54.459572
39.183497
45.308471
58.862567
82.527995
99.501610
116.551518
123.896003
122.548938
112.402439
92.218518
76.887608
55.333972
41.402578
28.441548
20.996928
15.757680
13.294816
11.888742
11.432767
10.694861
10.464787
10.019541
9.370446
9.044409
8.574724
8.127689
7.551908
7.339716
7.176995
6.763935
6.679893
6.106496
5.939603
5.976558
6.181598
5.845428
5.631447
5.554557
5.267859
4.906654
4.707575
4.188418
4.160404
3.853440
3.547668
3.293753
3.460646
3.272891
3.106594
3.105998
3.143549
3.133416
2.881885
2.868772
2.899766
2.680421
2.654791
2.746582
2.815723
2.736449
##ZVALUE=280
0.740886
0.756979
0.937581
0.825524
0.895858
0.876784
0.875592
0.863671
0.779629
0.794530
0.808835
0.891685
0.901818
0.921488
0.917912
0.870824
1.140833
1.117587
1.210570
1.436472
1.454949
1.705885
7.020831
23.683906
79.057813
148.464441
285.423994
422.146916
605.715513
731.317997
810.043812
821.965933
751.422644
584.736466
437.217951
254.414678
154.528618
70.341825
31.960607
32.195449
43.726563
57.889819
81.042647
96.531510
114.390850
121.039748
118.189454
108.656883
91.567636
74.865818
53.498745
38.692951
24.898648
18.719435
13.317466
11.269450
9.447932
9.301901
8.847713
8.260608
7.998943
7.428527
7.538795
6.989837
6.737709
6.600618
6.230474
5.917549
6.100535
5.926490
5.950928
5.812645
5.049706
5.129576
4.899502
4.965663
4.787445
4.409552
3.966689
3.846884
3.664494
3.675818
3.247857
3.050566
3.186464
3.076792
3.005862
2.917647
3.286600
2.858639
2.999902
3.012419
2.897978
2.854466
2.773404
2.716780
##ZVALUE=285
0.712872
0.821948
0.837445
0.722408
0.843406
0.675917
0.900626
0.927448
0.878572
0.901818
0.932813
0.918508
0.937581
0.913739
1.054406
1.014471
1.145601
1.116991
0.972748
1.167655
1.211762
1.451969
1.458526
1.572967
3.149509
11.117458
40.645599
90.857744
202.919841
321.725011
507.286787
656.942725
775.683522
848.492980
819.512010
685.716867
546.523929
347.139835
220.471621
106.418729
56.186914
28.084517
26.256442
38.223863
51.927567
74.031949
88.616610
104.912519
112.645626
113.154650
105.694532
89.699626
74.509978
52.491426
37.645698
23.387671
16.204715
10.594726
8.202791
7.117987
6.624460
6.485581
6.345510
5.956888
6.046891
5.689859
5.460978
5.406737
5.137920
5.268455
5.206466
5.248785
4.908442
4.928708
4.656911
4.310608
4.003644
3.959537
3.590584
3.577471
3.497601
3.308654
3.325939
3.180504
3.201962
3.123879
3.098845
2.920628
3.058910
2.989769
2.899766
2.818704
2.733469
2.686977
2.556443
2.752542
##ZVALUE=290
0.818968
0.772476
0.695586
0.885725
0.715852
0.545979
0.645518
0.732541
0.851750
0.803471
0.811815
0.854731
0.791550
0.816584
0.737906
1.138449
0.866652
0.893474
1.077652
1.107454
0.850558
1.023412
1.229644
1.355410
1.332760
1.418591
1.744628
4.183650
20.762682
53.121448
109.222531
238.840580
378.350616
590.223670
730.895996
851.149559
864.638686
769.065619
642.602444
444.543958
298.399925
152.855515
81.092715
31.636953
20.038486
23.004413
31.151772
47.930479
62.645674
83.283782
95.879436
106.825829
107.256770
99.427700
86.924434
65.825582
50.240755
32.780766
22.505522
13.094544
8.940697
6.109476
5.223751
4.818439
4.685521
4.518628
4.623532
4.464984
4.576445
4.526973
4.553795
4.624724
4.527569
4.280806
4.032850
3.807545
3.756881
3.565550
3.423691
3.296733
3.146529
3.065467
3.006458
2.831817
2.799630
2.826452
2.743602
2.848506
2.837777
2.811551
2.725720
2.677441
2.597570
2.417564
2.818704
2.704859
##ZVALUE=295
0.681877
0.748634
0.743866
0.605583
0.757575
0.721812
0.773668
0.771880
0.747442
0.684857
0.715852
0.741482
0.895858
0.676513
0.868440
0.820756
0.723600
0.881553
0.869632
0.827909
0.945926
0.921488
0.974536
0.999570
1.064539
1.098514
1.219511
1.417994
1.449585
2.007484
6.288886
30.086637
71.638823
181.936622
304.942727
507.578850
661.796927
823.453665
879.313946
842.924714
740.703940
548.972487
392.520428
212.497711
116.773844
43.541789
21.299720
14.087558
17.740726
29.101968
40.367842
59.628487
73.758960
90.325475
99.148750
101.064444
94.527602
80.367923
66.520572
47.300458
33.826828
19.904971
13.122559
7.687807
5.624890
4.167557
3.942847
3.956556
3.707409
3.880858
3.611445
3.823638
3.924966
3.715754
3.538728
3.556609
3.409982
3.116727
3.326535
3.115535
2.875924
2.891421
2.916455
2.728701
2.568960
2.723932
2.535582
2.492666
2.603531
2.613664
2.474785
2.436638
2.512932
2.564788
2.804995
2.637506
##ZVALUE=300
0.600815
0.656843
0.737906
0.831485
0.874996
0.598431
0.686646
0.744462
0.747442
0.730753
0.824928
0.744462
0.723600
0.714660
0.701547
0.854731
0.804663
0.960827
0.802875
0.803471
0.757575
0.917912
1.008511
1.014471
1.075864
0.983477
1.180768
1.152754
1.263618
1.367927
1.310706
1.548529
2.867579
16.782880
44.979453
123.584867
221.464634
407.229662
567.409992
762.463808
863.512754
893.460512
831.954479
657.336712
498.081446
290.201902
175.906420
77.724457
35.771728
13.665557
11.152625
16.234517
23.237467
37.314892
51.351786
71.000457
84.375739
93.615651
95.173717
89.937449
80.204606
63.097477
48.940778
32.603741
21.692514
12.330413
8.001924
4.935861
3.953576
3.667474
3.550649
3.426671
3.465414
3.275871
3.243685
3.103614
3.028512
2.910495
2.788901
2.672672
2.898574
2.853870
2.662539
2.760887
2.725720
2.551675
2.565980
2.656579
2.445579
2.250671
2.537966
2.359748
2.561808
2.369881
2.402663
2.369881
##ZVALUE=305
0.621676
0.639558
0.749826
0.629425
0.725985
0.729561
0.636578
0.762939
0.631809
0.600815
0.559688
0.669956
0.775456
0.688434
0.913739
0.670552
0.660419
0.755787
0.832677
0.606775
0.821948
0.922680
0.899434
0.880957
0.886917
0.848770
1.054406
0.989437
1.067519
1.099706
1.250505
1.235604
1.191497
1.523495
2.010465
9.233952
27.779937
85.201859
163.222551
320.792794
470.935702
675.162673
804.880857
886.390805
859.200954
719.852448
580.889583
382.136703
248.295665
116.898417
57.722926
19.304752
9.874701
10.181665
14.124513
23.451447
34.677982
51.481724
64.702630
79.535842
87.768435
90.329647
86.520910
75.597763
62.929988
44.297576
32.695532
19.693971
12.576580
7.035732
5.052686
3.779531
3.469586
3.250837
3.149509
2.716780
2.776980
2.631545
2.656579
2.596974
2.558827
2.561808
2.485514
2.597570
2.466440
2.613664
2.448559
2.546906
2.541542
2.521873
2.365708
2.372861
2.475977
2.320409
2.437830
2.286434
##ZVALUE=310
0.584722
0.653863
0.557899
0.578761
0.656843
0.725985
0.576973
0.489950
0.655651
0.599623
0.690818
0.796914
0.784993
0.636578
0.727773
0.637770
0.674725
0.730753
0.700951
0.761747
0.814795
0.834465
0.770688
0.825524
0.827909
0.811815
0.773668
0.877976
0.818968
0.999570
0.976920
0.968575
1.195669
1.145601
1.338720
1.455545
1.516938
3.911853
13.015866
48.781633
103.356838
227.466822
361.130834
565.741658
716.062784
851.711035
874.551535
803.625584
688.927770
485.990644
337.136984
175.602436
94.839931
33.938885
13.655424
7.706881
8.605719
13.114810
18.983483
30.161738
41.765571
58.276653
70.028901
81.135631
85.160732
82.374811
74.445605
60.600638
47.302842
30.554533
21.400452
12.702942
8.252859
4.712939
3.791451
2.875924
2.899766
2.818704
2.453923
2.458692
2.482533
2.341866
2.500415
2.444983
2.396703
2.455711
2.458692
2.482533
2.413988
2.312660
2.226830
2.442598
2.224445
2.422929
2.272725
2.220869
##ZVALUE=315
0.525713
0.581741
0.658631
0.641942
0.543594
0.663996
0.482798
0.613928
0.629425
0.494719
0.586510
0.644922
0.575781
0.542998
0.581741
0.592470
0.607967
0.537634
0.668764
0.582933
0.829697
0.693798
0.716448
0.848770
0.772476
0.704527
0.805855
0.785589
0.840425
0.844598
0.924468
0.814795
0.832677
1.071692
1.052618
0.996590
1.220703
1.164675
1.356602
1.858473
6.214976
29.074550
68.206787
168.548822
289.300680
495.732427
639.562011
794.117451
858.475566
843.671560
756.126642
575.618744
425.521731
238.128901
134.728551
50.806999
20.712614
7.682443
6.558895
7.795691
10.743737
18.244982
25.752783
39.115548
51.672459
67.733526
75.277686
80.124736
78.582764
68.841577
58.988929
44.179559
32.365918
19.242764
12.727976
6.932616
4.877448
3.088713
2.721548
2.597570
2.603531
2.415776
2.293587
2.441406
2.425909
2.182722
2.334714
2.272725
2.198815
2.195835
2.199411
2.243519
2.277493
2.275705
2.360940
2.379417
##ZVALUE=320
0.528693
0.526905
0.535846
0.613928
0.701547
0.660419
0.727773
0.539422
0.534654
0.477433
0.657439
0.600815
0.708699
0.477433
0.551939
0.545979
0.512600
0.625849
0.678897
0.627637
0.766516
0.681877
0.499487
0.783801
0.619888
0.650883
0.756979
0.810623
0.821948
0.801682
0.736713
0.848770
0.953674
0.911951
0.926852
0.885725
1.030564
1.040697
1.018643
1.038909
1.254678
1.355410
3.018975
15.734434
42.836666
119.751692
210.146904
379.499793
528.493524
715.602636
816.614628
854.745507
804.200768
650.848746
496.842861
292.905569
174.500942
75.586438
34.039617
10.690689
6.424785
5.802512
6.860495
10.020733
14.446974
24.517775
34.192801
48.591495
59.909821
71.608424
75.351596
74.442625
67.729950
53.939819
43.221712
28.340816
19.705892
11.357665
7.448792
4.367828
3.237724
2.819896
2.464652
2.332926
2.195835
2.146959
2.194643
2.337694
2.374649
2.130866
2.275705
2.098680
2.165437
2.212524
2.216697
2.241731
##ZVALUE=325
0.586510
0.578761
0.615716
0.549555
0.483990
0.524521
0.502467
0.606775
0.421405
0.550747
0.588894
0.591874
0.614524
0.539422
0.600815
0.522733
0.526905
0.811815
0.604987
0.744462
0.681877
0.661612
0.717640
0.536442
0.654459
0.695586
0.545979
0.793934
0.785589
0.719428
0.647902
0.643730
0.820756
0.777841
0.804663
0.948906
0.891685
0.829697
0.941753
1.015663
1.079440
1.049638
1.253486
1.380444
1.846552
9.222627
26.421547
78.201890
151.007771
305.651426
448.926687
646.400452
763.302445
842.438936
822.891593
690.181851
546.527505
350.672007
221.962929
101.259947
49.701929
15.233755
7.142425
5.334616
5.306602
6.567836
8.930564
15.135407
22.344589
34.778714
44.980645
58.621764
66.198707
70.831776
68.987608
60.440898
51.658750
37.888885
28.077960
17.327666
11.213422
6.286502
4.243851
2.961755
2.663732
2.434850
2.257824
2.239943
2.185702
2.288818
2.159476
2.254844
2.262592
2.074838
2.106428
2.103448
##ZVALUE=330
0.452995
0.601411
0.369549
0.473857
0.558496
0.382662
0.606775
0.544786
0.577569
0.508428
0.374913
0.513792
0.413656
0.684857
0.657439
0.676513
0.563860
0.730753
0.608563
0.579953
0.509620
0.753999
0.700951
0.782609
0.529885
0.680685
0.650883
0.698566
0.706911
0.639558
0.615716
0.783801
0.629425
0.865459
0.711679
0.639558
0.806451
0.895858
0.884533
0.637770
0.840425
0.792742
0.875592
0.967979
1.153946
1.233816
1.529455
3.997684
12.962818
49.481988
104.654431
228.939652
358.925462
557.894707
698.250532
820.544958
830.866694
737.228990
615.850687
424.089432
284.829736
138.995647
72.273612
25.221705
10.185838
5.124807
4.638433
5.158782
5.993843
8.869767
13.212562
21.306872
30.217767
43.441653
52.819848
62.272549
65.359473
63.856840
58.791637
47.096610
36.991835
24.660826
17.539859
10.674000
7.135868
4.534721
3.213882
2.583861
2.325773
2.297759
2.174973
2.036691
2.235770
2.023578
2.023578
2.112985
##ZVALUE=335
0.439882
0.558496
0.460744
0.598431
0.533462
0.578761
0.594854
0.509620
0.593662
0.571609
0.529885
0.536442
0.681877
0.448823
0.553727
0.546575
0.604987
0.454783
0.646710
0.552535
0.546575
0.611544
0.559688
0.628829
0.548959
0.620484
0.768900
0.763535
0.571609
0.572801
0.576973
0.499487
0.632405
0.657439
0.746846
0.790954
0.761747
0.597835
0.837445
0.838637
0.771880
0.951886
0.884533
0.904799
0.874996
1.060963
1.173615
1.108646
1.353621
1.680851
8.540750
26.320815
83.972812
160.331726
317.966938
470.672846
671.371818
775.160789
832.827687
801.873803
665.681958
526.234508
330.967903
206.715465
90.950727
42.907596
13.206601
6.128550
4.955530
4.677773
4.828572
5.737543
8.364916
12.177825
20.000935
27.965903
39.232969
49.267411
58.012605
61.240792
59.435964
54.753423
45.216680
37.328601
25.542974
18.430948
11.133552
7.285476
4.385710
3.222823
2.658963
2.403855
2.192855
2.252460
2.039671
2.053976
##ZVALUE=340
0.539422
0.426769
0.497699
0.443459
0.537634
0.462532
0.406504
0.437498
0.574589
0.584722
0.497699
0.492930
0.443459
0.630617
0.392795
0.461936
0.515580
0.618696
0.449419
0.466704
0.695586
0.503659
0.548959
0.637770
0.440478
0.573993
0.766516
0.502467
0.581741
0.626445
0.730753
0.567436
0.560880
0.799894
0.666976
0.508428
0.631809
0.655651
0.667572
0.845790
0.645518
0.852942
0.839829
0.813603
0.831485
0.974536
0.891685
1.208782
1.083612
1.156926
1.217723
1.390576
3.959537
14.131665
54.863691
120.402575
269.833803
407.992601
603.034496
728.963614
828.562975
825.889707
721.192956
591.368675
390.609503
253.805518
120.918751
58.751702
17.099977
7.221699
5.036592
4.511476
4.319549
4.462600
5.543828
7.244945
12.030602
17.722845
27.880669
36.640763
47.964454
53.911805
57.131648
56.582689
51.405430
44.777989
34.285784
26.194453
16.863942
11.694431
6.982684
4.597902
3.066659
2.440810
2.323985
2.208948
##ZVALUE=345
0.489950
0.537634
0.513792
0.383854
0.494719
0.520945
0.515580
0.413656
0.446439
0.598431
0.428557
0.441670
0.459552
0.358820
0.549555
0.604987
0.575781
0.524521
0.533462
0.603795
0.587702
0.486970
0.669956
0.650883
0.550747
0.579953
0.539422
0.512600
0.472665
0.571609
0.655651
0.667572
0.708699
0.626445
0.634789
0.446439
0.349879
0.479817
0.712872
0.663996
0.827909
0.733733
0.877976
0.809431
0.639558
0.981688
0.698566
0.859499
0.817776
0.979900
1.031756
1.207590
1.129508
1.278520
2.017617
6.880760
33.307672
77.379942
185.438991
307.215452
509.265661
657.811761
802.688003
837.373734
774.578452
660.410523
466.332436
316.371918
152.669549
76.565742
25.155544
10.475516
5.197525
4.793406
4.272461
4.077554
4.094839
4.657507
7.076859
10.325909
17.500520
24.279952
33.887625
40.997863
48.875809
52.581429
52.373409
49.730539
41.731000
34.417510
24.975538
18.091798
11.183619
7.436872
4.651546
3.509521
##ZVALUE=350
0.529885
0.492930
0.510812
0.408888
0.578761
0.499487
0.506639
0.578761
0.465512
0.543594
0.495911
0.423789
0.393987
0.504851
0.471473
0.758767
0.577569
0.636578
0.608563
0.704527
0.428557
0.634789
0.539422
0.531673
0.462532
0.600815
0.456572
0.399947
0.781417
0.506639
0.463724
0.544786
0.683665
0.705719
0.617504
0.664592
0.734925
0.674725
0.636578
0.655651
0.673532
0.632405
0.622869
0.744462
0.826716
0.922680
0.872612
0.823736
0.862479
0.766516
0.838637
1.014471
0.977516
1.119971
1.189709
1.109838
1.364946
4.701614
16.468763
59.376955
123.482943
268.532634
412.193537
614.984632
744.343996
841.763020
827.533603
699.080825
552.905798
353.507996
220.567584
100.606680
46.410561
13.144612
6.060600
4.460812
3.883839
3.666878
3.450513
3.693700
4.316568
6.681681
9.484887
15.160441
20.852685
29.763579
36.706924
44.160485
47.708750
48.516989
45.539737
39.048791
32.960773
24.450421
17.896891
11.725426
##ZVALUE=355
0.491738
0.355840
0.597835
0.422597
0.456572
0.497699
0.421405
0.466704
0.450611
0.492930
0.471473
0.471473
0.494719
0.475645
0.624657
0.477433
0.525713
0.534654
0.489950
0.590682
0.493526
0.632405
0.612736
0.581741
0.603795
0.716448
0.613928
0.629425
0.591874
0.689626
0.604987
0.564456
0.586510
0.632405
0.548959
0.574589
0.534654
0.458956
0.537634
0.647902
0.604987
0.723600
0.701547
0.748634
0.729561
0.639558
0.715852
0.735521
0.798702
0.877976
0.889897
0.956655
0.946522
0.866652
0.923872
1.141429
1.087785
1.224875
1.260638
2.524853
7.736683
34.457445
78.753829
188.519955
320.875049
537.405610
686.669946
817.846656
847.202539
752.717853
625.280738
430.544615
278.531909
127.012730
61.947703
18.767715
7.626414
4.540682
3.768802
3.567934
3.178716
3.289580
3.382564
4.270673
5.216599
8.334517
11.920929
18.845797
24.605989
32.525659
38.434863
43.088794
44.486523
42.466521
37.964582
31.115413
##ZVALUE=360
0.515580
0.474453
0.549555
0.492930
0.604987
0.567436
0.398755
0.291467
0.546575
0.482798
0.591874
0.439882
0.558496
0.589490
0.550747
0.429749
0.552535
0.577569
0.659823
0.532866
0.526905
0.532866
0.536442
0.597835
0.585914
0.583529
0.579953
0.733733
0.588894
0.664592
0.618696
0.579953
0.609756
0.612736
0.621676
0.764728
0.617504
0.632405
0.703931
0.608563
0.613928
0.752807
0.774860
0.641942
0.636578
0.697970
0.725985
0.634789
0.739694
0.739694
0.827909
0.798702
0.882745
0.857711
0.953674
0.935793
1.070499
1.014471
1.161695
1.302958
1.278520
1.650453
3.483891
16.047955
44.784546
129.103661
233.936906
419.967771
586.807728
765.846968
829.121470
807.362795
708.729625
506.287813
350.635648
178.136826
94.753504
33.778548
12.721419
4.646778
4.024506
3.572702
3.307462
3.190637
3.124475
3.227592
3.257990
4.491806
6.099939
9.824634
14.240742
21.201968
27.201772
34.146905
38.036704
40.529966
##ZVALUE=365
0.542998
0.394583
0.539422
0.436902
0.529885
0.631809
0.660419
0.575781
0.477433
0.565648
0.431538
0.511408
0.589490
0.487566
0.447631
0.539422
0.593662
0.381470
0.496507
0.462532
0.566840
0.498891
0.587702
0.483990
0.448823
0.556707
0.619888
0.602603
0.519753
0.582933
0.481606
0.599623
0.619888
0.526905
0.505447
0.661612
0.516772
0.540614
0.572801
0.611544
0.681877
0.539422
0.732541
0.837445
0.760555
0.690818
0.726581
0.654459
0.640750
0.839829
0.660419
0.595450
0.872612
0.980496
0.769496
0.844598
0.700951
0.831485
1.081824
1.096725
1.017451
1.222491
1.296997
1.515746
2.021790
8.411407
25.021434
78.195930
161.088705
333.243012
480.403900
666.934848
776.535869
810.727477
745.998025
577.154756
426.869988
246.238708
137.257576
50.196648
19.908547
5.631447
3.893971
3.560781
3.368855
2.976656
3.061891
2.706647
2.718568
3.060699
3.643632
5.498528
8.000731
12.879968
17.385483
24.212599
##ZVALUE=370
0.453591
0.481606
0.413656
0.445843
0.531673
0.585914
0.445843
0.414848
0.473857
0.475645
0.542998
0.627637
0.603795
0.444651
0.568628
0.582933
0.514984
0.483990
0.368953
0.561476
0.445843
0.501871
0.423789
0.533462
0.422597
0.576973
0.575781
0.635982
0.562668
0.500679
0.401735
0.659823
0.548959
0.712872
0.635982
0.480413
0.518560
0.730753
0.732541
0.572801
0.760555
0.751615
0.634789
0.639558
0.682473
0.569820
0.669956
0.590682
0.705719
0.577569
0.530481
0.687838
0.680685
0.762939
0.679493
0.605583
0.678897
0.727773
0.906587
0.792742
0.946522
0.979900
0.877976
1.064539
1.075864
1.231432
1.474619
4.282594
14.634728
54.865479
113.382936
242.109895
384.914875
592.229962
716.518760
792.172551
762.581825
635.349751
493.554473
300.213695
177.948475
73.946714
33.076406
9.594560
4.592538
3.294945
3.133416
2.901554
2.834797
2.492666
2.584457
2.563000
2.563596
3.249645
4.404783
7.103682
##ZVALUE=375
0.571609
0.448823
0.551939
0.424981
0.413656
0.467896
0.345707
0.530481
0.582933
0.472665
0.464916
0.448823
0.456572
0.489950
0.448823
0.560880
0.524521
0.445843
0.506639
0.433922
0.476837
0.536442
0.580549
0.462532
0.351667
0.603795
0.665784
0.494719
0.439882
0.596642
0.420809
0.506639
0.442863
0.472665
0.655651
0.584722
0.578761
0.688434
0.666976
0.540614
0.558496
0.518560
0.658631
0.703931
0.588894
0.607967
0.598431
0.595450
0.615716
0.625849
0.730753
0.757575
0.638962
0.539422
0.677705
0.678897
0.602603
0.722408
0.600815
0.703931
0.808835
0.836849
0.868440
0.929832
0.876784
0.898838
1.036525
1.251698
1.396537
2.413988
7.389784
29.465556
71.522593
182.438493
305.668712
501.978993
638.482571
753.966570
771.451592
680.577755
551.393628
356.021523
235.005021
118.357539
60.793757
19.341707
7.202625
3.415942
3.188848
2.730489
2.743602
2.447963
2.397895
2.265573
2.404451
2.501607
##ZVALUE=380
0.479817
0.448823
0.423789
0.333786
0.323653
0.567436
0.505447
0.451803
0.454783
0.259876
0.485778
0.460744
0.421405
0.364780
0.600815
0.357628
0.533462
0.371933
0.414848
0.523925
0.365973
0.585914
0.594854
0.675917
0.587702
0.617504
0.675917
0.577569
0.667572
0.574589
0.692606
0.726581
0.743866
0.647902
0.543594
0.603795
0.641942
0.478625
0.556707
0.612736
0.613928
0.677705
0.594854
0.608563
0.572801
0.630617
0.502467
0.518560
0.624657
0.627637
0.637770
0.695586
0.557899
0.568628
0.601411
0.644922
0.612736
0.573993
0.545979
0.604987
0.642538
0.754595
0.737906
0.840425
0.762939
0.910759
0.881553
1.053810
1.101494
1.193881
1.339912
1.644492
3.910661
20.332932
51.870942
135.215521
236.190557
407.511592
553.545952
707.231760
754.976869
705.651641
610.305667
448.344946
313.932896
162.316561
85.523725
29.965639
11.637807
3.930926
3.112555
2.799630
2.681613
2.526641
2.465844
2.285838
##ZVALUE=385
0.338554
0.412464
0.348687
0.438690
0.493526
0.426769
0.496507
0.438690
0.406504
0.453591
0.402927
0.554919
0.462532
0.385642
0.397563
0.481606
0.450611
0.474453
0.640750
0.437498
0.437498
0.523925
0.507832
0.565648
0.456572
0.495911
0.585914
0.514984
0.600815
0.603795
0.631809
0.674725
0.650883
0.717640
0.683665
0.619888
0.566840
0.692606
0.714660
0.535846
0.637770
0.616908
0.652671
0.575781
0.657439
0.481606
0.552535
0.573993
0.458956
0.753999
0.576973
0.547767
0.655651
0.534654
0.539422
0.570416
0.646710
0.561476
0.657439
0.593662
0.528693
0.624657
0.575781
0.668764
0.744462
0.794530
0.813603
0.903606
1.150966
1.056790
1.100898
1.067519
1.205802
1.242757
2.039671
10.628700
31.127930
89.180470
168.288946
324.384570
465.906858
637.618899
721.990466
737.856030
682.095885
538.861752
403.136611
233.835578
138.475895
58.090687
22.990704
5.849600
3.141761
2.831817
2.606511
2.723932
##ZVALUE=390
0.554919
0.421405
0.345707
0.405908
0.347495
0.438690
0.386834
0.411868
0.470877
0.408888
0.331998
0.368953
0.451803
0.423789
0.534654
0.480413
0.441670
0.518560
0.496507
0.486970
0.482798
0.512600
0.424981
0.477433
0.499487
0.583529
0.491738
0.567436
0.523925
0.660419
0.614524
0.604987
0.757575
0.626445
0.609756
0.714660
0.631809
0.675917
0.629425
0.692606
0.682473
0.825524
0.661612
0.674725
0.783801
0.727773
0.510812
0.622869
0.542998
0.678897
0.623465
0.569820
0.681877
0.690818
0.608563
0.706911
0.616908
0.651479
0.634789
0.645518
0.663996
0.681877
0.693798
0.692606
0.736713
0.668764
0.891685
0.891685
0.895858
1.041889
1.022816
1.016855
1.031756
1.030564
1.111627
1.184940
1.347661
5.001426
17.272830
63.136816
129.754543
269.830823
392.294526
554.086566
660.609007
736.721754
721.544027
613.346696
491.314530
318.608880
194.933414
84.386468
38.832426
10.422468
4.323721
2.886653
##ZVALUE=395
0.365973
0.365973
0.403523
0.304580
0.355840
0.229478
0.262856
0.486970
0.402927
0.343919
0.401735
0.463724
0.355840
0.374913
0.317693
0.278950
0.326633
0.421405
0.171661
0.335574
0.332594
0.474453
0.435710
0.381470
0.367761
0.412464
0.559688
0.444651
0.594854
0.604987
0.539422
0.670552
0.480413
0.404716
0.589490
0.582933
0.630617
0.581741
0.620484
0.602603
0.575781
0.522733
0.811815
0.541806
0.646710
0.598431
0.637770
0.577569
0.653863
0.620484
0.542998
0.699759
0.636578
0.549555
0.503659
0.385642
0.633597
0.587702
0.526905
0.556707
0.620484
0.693798
0.719428
0.569820
0.652671
0.750422
0.780821
0.926852
0.778437
0.933409
0.858903
0.928640
0.790954
0.806451
0.777841
0.913739
0.945926
0.842810
1.079440
2.885461
10.004640
41.047931
87.687969
186.817646
298.822522
477.870703
604.803562
717.120767
737.347603
669.178963
554.499626
370.807648
243.663788
114.323497
56.785941
19.124746
##ZVALUE=400
0.605583
0.605583
0.523925
0.579953
0.354648
0.417829
0.419617
0.362992
0.348687
0.419617
0.435710
0.421405
0.257492
0.427961
0.381470
0.359416
0.428557
0.421405
0.374913
0.360608
0.491738
0.437498
0.272989
0.533462
0.679493
0.621676
0.524521
0.588894
0.578761
0.539422
0.548959
0.785589
0.624657
0.697970
0.722408
0.810623
0.793934
0.612736
0.696778
0.734925
0.641942
0.699759
0.757575
0.640750
0.714660
0.546575
0.791550
0.593662
0.695586
0.702739
0.834465
0.623465
0.631809
0.722408
0.754595
0.561476
0.620484
0.709891
0.638962
0.594854
0.681877
0.882745
0.685453
0.742674
0.732541
0.721812
0.823736
0.817776
0.920892
0.816584
1.022816
0.771880
0.800490
0.885725
1.032948
0.847578
0.862479
0.928640
0.970960
1.067519
1.056790
1.942515
5.027652
21.041632
51.239729
130.927563
227.073431
385.983586
511.114597
644.331574
698.527694
669.521689
583.711863
418.061614
292.909741
157.310963
##END
