##TITLE=C102_R1
##FORMAT=SPECTACLE-ASCII V-1.2
##DATA TYPE=ULTRAVIOLET SPECTRUM
##SECOND TYPE=ULTRAVIOLET SPECTRUM
##DATE=05/28/18
##TIME=12:21:28
##SPECTROMETER/DATA SYSTEM=SPECTACLE
##XUNITS=NM EM
##YUNITS=ENERGY
##YFACTOR=1
##FIRSTX=220
##LASTX=410
##NPOINTS=96
##3DDATA=Equidistant
##ZUNITS=NM EX
##FIRSTZ=210
##LASTZ=400
##ZPOINTS=39
##XYDATA=(Y..Y)
##ZVALUE=210
40.588975
42.865872
33.400655
25.333762
25.171638
20.935535
19.305944
16.996861
12.840629
10.368824
7.342696
6.841421
5.314946
5.862713
6.092787
6.972551
6.982684
6.441474
7.253885
6.727576
8.380413
8.741617
11.667609
13.043880
15.046597
17.604828
21.310449
24.191737
25.792718
27.536750
28.720498
29.567480
30.781627
31.011701
30.103922
31.595826
29.915571
30.562878
27.907491
27.239919
26.741624
26.152730
25.535822
26.041865
24.885535
24.888515
24.383664
24.658442
23.025870
23.330450
22.531748
24.568439
22.113919
21.634698
20.794868
21.401644
20.060539
21.197796
22.560954
20.667911
19.514561
19.767880
18.743873
19.322634
21.342635
23.417473
24.488568
27.779937
32.110810
36.707520
40.108562
44.669509
49.993992
51.407814
52.626729
50.499439
48.840642
46.354532
40.601492
37.223697
31.972528
26.435852
23.628473
21.475554
18.751621
15.474558
14.991760
16.169548
19.053817
22.196770
33.281446
47.647953
65.705776
84.952712
117.512941
141.620636
##ZVALUE=215
148.448944
134.988427
108.100772
76.166987
57.751536
46.031475
40.097833
36.153793
32.210946
28.928518
23.750663
17.869473
11.955500
9.597540
7.790923
7.545948
6.745458
6.702542
7.328987
6.775856
7.898808
9.557605
10.396838
12.314916
14.806986
18.912554
18.879771
23.104548
24.562478
26.618838
27.777553
29.587746
31.311512
30.152798
30.783415
30.490756
28.894544
31.889677
29.334426
29.981732
29.497743
28.248429
26.887655
26.448965
26.748776
25.467873
28.785467
25.312901
25.833845
24.656653
26.205778
24.386644
24.086833
22.043586
24.203658
23.118854
22.225976
23.173690
24.235845
21.890998
21.354556
21.114945
20.607710
21.613836
21.872520
23.239851
23.257732
27.452707
30.084848
32.359958
35.166740
39.506555
40.284991
42.844415
41.114688
39.711595
39.397478
35.219789
33.329725
27.606487
26.484728
20.794868
19.022822
18.499494
16.579628
14.756918
15.417933
14.603734
13.149977
13.206601
13.457537
13.373494
15.683770
19.979477
26.685596
42.780638
##ZVALUE=220
326.892734
316.433907
302.547812
239.688754
195.188522
132.298470
98.301768
68.667531
58.248639
50.469637
47.335625
45.491457
35.835505
31.428933
23.243427
17.178655
12.276769
9.404421
7.995963
7.579923
7.420778
7.261634
9.109974
10.074973
10.604858
12.555718
13.295412
16.064644
17.957687
18.682480
19.710660
20.753741
21.048784
22.501945
23.362637
23.092628
24.712682
24.606586
23.881793
23.770928
25.167465
24.969578
25.075674
26.167631
25.152564
26.581883
26.100874
27.055740
24.760962
26.080608
25.992990
25.274754
24.188757
23.112893
25.043488
23.981929
25.071502
23.653507
22.665858
21.228790
21.314621
21.345615
20.005703
21.646619
21.333694
22.112727
21.703839
24.654865
26.079416
27.715564
30.206442
33.320785
33.333898
34.905672
34.163594
33.768415
30.809641
28.134584
26.978850
24.133921
20.239949
18.739700
16.868711
15.920997
14.408827
12.183785
12.620687
12.798905
12.844801
12.136698
11.333823
12.607574
11.451840
10.756850
11.000633
11.434555
##ZVALUE=225
365.048647
373.180509
437.448621
474.844575
461.196899
398.525000
327.509642
221.459866
153.155923
109.781623
76.649785
67.850947
66.833496
63.205957
57.804585
49.660802
39.831996
29.991865
21.296740
13.986826
10.265708
8.156896
7.534623
7.260442
9.002686
9.110570
9.957552
11.210442
11.426806
12.089610
12.989640
13.106465
14.406443
16.666651
16.582608
17.562509
18.659830
18.894672
21.396875
21.462440
21.838546
21.965504
22.615790
24.254918
24.342537
24.554729
24.230480
24.224520
24.560690
23.910999
23.347735
23.830533
24.293661
24.376512
22.341609
23.259521
22.638440
21.901727
21.674633
21.363497
19.788742
21.112561
20.596981
19.446611
19.408464
20.061731
21.945834
21.885633
22.901893
26.005507
26.836991
28.983951
29.410720
29.839873
29.847622
27.860999
25.373697
24.388433
21.090508
19.793510
18.279552
15.872717
14.445782
12.627840
12.903810
12.102723
11.302829
11.333823
10.999441
10.807514
11.451840
11.216998
10.585785
10.291934
10.293722
11.276603
##ZVALUE=230
198.538899
222.928524
329.522491
496.059656
596.788526
674.723983
675.552487
616.364479
512.018800
386.888981
242.315531
163.480639
106.087923
90.633631
85.482597
82.803965
80.200434
74.157715
64.980984
49.342513
35.822988
22.259951
16.182661
10.919571
9.163618
8.287430
7.985830
8.707643
8.424520
9.591579
9.382963
10.408759
11.426806
12.199879
13.026595
14.370680
14.160872
16.895533
18.094778
18.401742
18.031597
20.470619
20.857453
20.241737
22.379756
21.527410
21.858811
21.357536
21.195412
21.587610
20.528436
21.540523
20.894408
20.105839
19.273758
20.241737
18.336773
19.718409
19.448996
18.024445
17.543435
17.844439
17.974973
16.478896
17.413497
17.499924
18.038750
19.069910
20.398498
22.972822
24.524927
24.965405
25.879741
25.786757
24.876595
24.443865
22.824407
19.360781
19.797683
16.710758
15.458465
14.690757
12.950897
11.938810
11.019707
11.251569
11.319518
10.632873
11.009574
10.603666
10.500550
10.206699
10.385513
10.155439
10.594726
9.220839
##ZVALUE=235
42.143464
45.477748
119.379759
211.472511
385.411978
534.851551
733.661652
841.683745
899.229646
850.498676
694.280863
540.691018
394.989848
236.711502
160.761476
107.889771
96.836686
101.226568
104.774833
98.853707
90.301633
76.133609
53.204894
39.251447
24.564862
18.328428
12.067556
9.525418
8.387566
8.111596
8.936524
9.222627
9.358525
9.825826
11.210442
12.020469
12.023449
13.110638
14.115572
15.833974
15.993714
16.068816
17.076731
16.766787
17.399788
17.907619
18.182993
18.181801
19.174814
17.830729
17.771721
17.407537
17.120838
15.897751
16.264915
15.647411
15.384555
16.216636
16.348958
14.565587
15.258789
13.801455
14.969707
14.910698
14.136434
14.438629
16.318560
15.728474
18.203855
18.521547
20.488501
23.023486
21.016598
21.538734
22.709966
20.197630
19.075871
17.251968
17.404556
15.426874
12.767911
13.265610
12.421608
10.916591
10.895729
10.233521
10.349751
10.149479
9.543896
9.758472
9.701848
9.704828
9.311438
9.623766
9.251833
9.432435
##ZVALUE=240
2.774596
3.072619
12.123585
34.441948
99.798441
187.562704
373.449922
561.468005
810.405016
958.323479
1015.870571
1013.776660
916.528702
704.910755
526.242852
316.712856
212.254524
131.255984
107.658505
102.159977
110.132694
113.533735
106.686950
93.771815
73.032975
57.735443
39.404631
28.710961
17.599463
13.293624
11.193752
10.065436
9.959936
9.596944
9.781718
10.594726
11.477470
11.524558
12.006760
12.295842
13.041496
12.890697
13.278723
13.906956
14.189482
14.800429
14.144778
14.469624
13.685822
14.039874
13.784766
13.748407
13.523698
13.624430
12.992620
12.027621
12.627840
12.863874
11.838675
12.446642
11.846423
12.151599
11.203885
11.123419
11.632442
11.942983
12.648702
13.230443
14.530420
16.388893
16.780496
17.484426
17.949939
18.916726
18.154979
16.509891
16.245842
14.977455
13.415813
12.570620
11.865497
10.728836
10.228753
9.563565
9.393692
9.615421
8.900762
9.038448
8.876920
8.697510
8.438826
8.136630
8.685589
8.423924
8.019805
8.281469
##ZVALUE=245
2.045631
1.911521
2.251863
2.267957
5.637407
18.484592
67.136884
143.372416
326.572657
507.656932
795.317888
988.019705
1015.870571
1015.870571
1015.870571
903.312564
718.379617
461.750627
306.198001
167.124867
114.286542
98.041892
103.980899
114.771724
116.148591
109.788775
97.560883
82.007647
61.992407
47.317743
33.968687
21.339655
15.615821
11.947751
10.611415
10.349751
11.110902
10.971427
10.822415
12.166500
11.616945
11.762977
11.956692
12.175441
11.523962
12.165904
12.395978
11.975765
11.902452
11.850595
11.451840
10.835528
11.287928
10.945797
10.922551
10.429621
10.514855
10.032654
9.515882
9.991527
9.380579
9.547472
9.007454
9.393692
9.960532
9.667873
9.706616
11.215806
11.782646
12.511611
13.959408
13.928413
15.057921
14.285445
14.270544
13.550520
12.654662
11.438727
11.309981
9.838939
8.949637
8.632541
8.065701
7.632971
7.556677
7.488728
7.052422
7.031560
7.259846
7.107854
7.213950
6.868839
7.312894
7.209778
6.748438
6.738901
##ZVALUE=250
1.884699
1.738667
2.035499
2.014637
2.195835
2.221465
3.058910
13.453960
38.985610
92.164874
242.958665
427.601933
721.354485
930.535793
1015.870571
1015.870571
1015.870571
1015.870571
948.249698
643.591881
429.029465
223.377943
138.541460
92.858672
91.439486
108.524561
117.750764
123.020411
117.272735
107.217431
87.674856
69.330931
47.914982
33.639669
21.549463
16.996861
12.663603
11.834502
10.533929
10.829568
11.127591
11.166930
10.809898
11.056662
11.557937
12.035966
11.672974
10.925531
10.649562
10.814667
10.969639
10.332465
9.990931
10.616779
9.682775
9.817481
9.037852
9.074807
8.922815
8.167624
8.860826
8.704662
7.949471
8.148551
8.372664
8.225441
8.581877
8.573532
10.441542
10.601878
11.380911
10.803938
12.212992
11.691451
11.556745
11.556745
10.016561
9.651780
8.713603
8.157492
7.290840
7.248521
6.454587
6.129742
6.136894
5.729795
5.660653
5.795956
5.909801
5.722642
6.193519
5.903840
5.669594
5.989671
5.609989
5.488992
##ZVALUE=255
1.598597
1.700521
1.714826
1.681447
1.672506
1.710653
1.674891
1.852512
2.329946
5.450845
28.812885
77.571869
163.492560
361.444950
569.079518
898.074508
1015.870571
1015.870571
1015.870571
1015.870571
1015.870571
895.085931
552.036762
344.789624
170.831680
107.310414
82.363486
89.926720
107.194781
119.241476
124.357939
121.522546
111.999512
90.453625
73.517561
50.824881
37.812591
23.763776
17.878413
13.787746
12.510419
12.833476
12.603998
12.623668
12.229681
11.957884
11.917949
12.175441
11.335611
11.596680
11.071563
10.767579
10.566711
10.606647
9.820461
10.075569
9.383559
9.402633
8.861423
8.561611
9.403825
8.205771
8.306503
7.995963
7.965565
8.165836
7.793903
8.451939
8.932948
8.955598
9.569526
9.978414
9.740591
10.395646
10.342598
8.984804
8.687973
8.142591
7.346869
6.543994
6.330609
6.015897
5.684495
5.505681
5.685687
5.141497
5.305409
5.026460
4.908442
5.069971
4.886985
4.903674
5.010962
5.107522
4.905462
5.040765
##ZVALUE=260
1.291633
1.342893
1.269579
1.530647
1.460910
1.578927
1.650453
1.763701
1.769662
1.802444
2.071857
2.677441
9.600520
45.442581
106.663704
271.182656
457.332730
773.129463
1005.604863
1015.778780
1015.778780
1015.778780
1015.778780
1015.778780
751.775503
508.973598
279.095769
163.105726
87.687969
74.290633
83.522797
106.484890
120.551586
130.104423
126.909614
113.208890
97.602606
73.757768
57.357550
38.273931
27.956963
19.929409
16.153455
15.127659
14.596581
13.679862
13.669729
13.088584
13.249516
13.033748
12.441874
12.603998
12.319684
11.339784
11.019707
10.888577
9.960532
9.883642
9.607673
9.041429
8.829832
8.436441
8.258820
8.095503
8.175969
8.185506
7.917881
7.910728
8.398890
8.825660
9.395480
9.125471
8.972883
9.039640
8.787513
8.237958
7.709861
6.964803
6.456971
5.575418
5.494952
5.443692
5.536675
5.411506
4.867911
4.603863
4.696846
4.976988
4.593730
4.711747
4.366636
4.428625
4.837513
4.646778
4.510880
4.378557
##ZVALUE=265
1.441836
1.326799
1.285672
1.377463
1.332760
1.372695
1.452565
1.545548
1.680851
1.800656
1.981854
2.137423
2.372861
2.819896
5.178452
28.504729
77.124834
205.628872
370.788574
711.003542
987.082720
1015.870571
1015.870571
1015.870571
1015.870571
1015.870571
981.611013
720.176101
402.657986
232.404470
128.650665
70.439577
67.884922
92.006922
108.268857
126.840472
133.195519
128.347874
118.503571
97.213984
81.124902
56.587458
43.415427
29.556751
22.210479
18.138885
17.609596
16.517639
16.309619
15.267730
14.858842
15.047789
14.283657
13.986826
13.215542
12.573600
12.207627
11.639595
10.548830
10.421872
10.122657
9.025931
9.264946
8.822680
8.488894
8.508563
8.728504
8.720756
9.048581
9.402633
9.381771
9.233952
9.441972
8.739829
8.537769
7.911921
7.428527
6.844997
6.638765
5.851984
5.524755
5.426407
5.110502
4.740953
4.607439
4.626513
4.677773
4.541874
4.807711
4.427433
4.367828
4.352927
4.503727
4.389882
4.228950
4.401803
##ZVALUE=270
1.348853
1.144409
1.174808
1.162887
1.225471
1.359582
1.399517
1.526475
1.618862
1.588464
1.655817
1.759529
1.649857
2.150536
2.082586
2.135634
2.972484
12.722611
40.267706
138.984919
285.155773
510.816574
916.833878
1015.870571
1015.870571
1015.870571
1015.870571
1015.870571
1015.870571
964.285731
670.928955
350.725651
192.106962
80.034733
57.221651
69.292784
87.758899
111.685991
125.764608
135.504603
132.866502
120.174885
105.463862
81.386566
63.983798
43.610930
33.353567
25.285482
20.755529
18.719435
17.675757
17.304420
16.406775
15.516877
15.152693
14.518499
14.124513
13.148785
12.301803
11.803508
11.393428
10.550618
10.332465
9.965897
9.381771
9.073615
9.205937
9.128451
9.196997
9.025931
9.280443
9.586811
9.534955
8.866787
8.679628
7.944703
7.572770
6.727576
6.381869
5.572438
5.743504
5.205870
5.100965
5.071759
4.797578
4.655719
4.396439
4.498959
4.537702
4.624724
4.486442
4.372597
4.279613
4.218817
4.352927
4.405975
##ZVALUE=275
1.193881
1.086593
1.256466
1.068711
1.091957
1.303554
1.100898
1.206994
1.305938
1.384616
1.286864
1.460910
1.476407
1.668930
1.691580
1.913905
2.044439
2.169609
2.366900
5.476475
21.518469
67.519546
215.324759
415.723920
796.056986
1015.870571
1015.870571
1015.870571
1015.870571
1015.870571
1015.870571
1015.870571
879.507661
477.841496
272.766948
112.461448
62.583685
51.597953
65.538883
89.899898
107.075572
126.432776
133.210421
131.178498
123.201609
100.857615
84.221959
63.307881
48.330426
33.910871
26.487708
20.319819
18.071532
17.004609
15.762448
14.680624
14.638901
13.979673
13.397932
12.041926
12.004972
11.183619
11.062622
10.398626
10.201931
9.514689
9.420514
9.276867
9.188652
9.715557
9.591579
9.345412
9.728670
9.100437
8.862615
7.754564
7.802844
6.991625
6.750822
6.101727
6.053448
5.510449
5.252957
5.038977
4.857779
4.854798
4.824996
4.646778
4.618764
4.560947
4.389882
4.230738
4.145503
4.197955
4.178882
4.195571
##ZVALUE=280
1.203418
1.192689
1.369715
1.289845
1.229644
1.389980
1.172423
1.332760
1.684427
1.338720
1.351833
1.564622
1.489520
1.741648
1.753569
1.774430
1.697540
2.038479
1.830459
2.298951
2.625585
2.963543
12.467504
45.294762
158.783793
308.815837
604.299903
918.583870
1015.990973
1015.990973
1015.990973
1015.990973
1015.990973
1015.990973
1008.497477
624.565482
375.332832
165.824890
81.610680
43.962598
47.543645
67.064762
85.873604
107.420683
120.318532
130.054951
128.043890
117.655993
102.171898
79.184771
63.350797
42.962432
32.459497
22.504926
17.842650
14.597774
13.149977
12.633801
12.492537
11.667609
11.104941
10.552406
10.387897
10.055900
9.579659
9.305477
9.138584
9.160638
9.024739
8.841753
8.969903
8.620620
8.805990
8.488894
7.823706
7.432699
7.340908
6.652474
6.165504
5.784631
5.796552
5.411506
5.296469
5.285740
5.043745
4.911423
4.836917
4.844666
4.742742
4.836917
4.661679
4.539490
4.365444
4.606843
4.392862
4.442930
##ZVALUE=285
0.971556
1.004934
1.092553
1.071692
1.050830
1.130700
1.183748
1.069903
1.033545
1.066923
1.171827
1.410842
1.412630
1.471639
1.540780
1.473427
1.338720
1.579523
1.710653
1.669526
1.962781
2.114773
2.144575
2.613664
5.872846
20.541549
81.375837
181.103945
420.611501
700.029731
995.671749
1015.865803
1015.865803
1015.865803
1015.865803
1015.865803
1015.865803
845.632553
539.792776
256.072879
127.106905
47.814846
32.605529
42.926669
57.154894
80.279708
96.145868
111.915469
119.883418
120.109916
112.934709
95.890760
80.448985
57.208538
42.540431
26.245713
18.857718
13.214946
11.161566
9.498596
8.989573
8.647442
8.339882
8.290410
7.926822
7.770658
7.705688
7.823706
7.903576
7.940531
8.069873
7.935762
7.794499
7.634759
7.208586
6.884933
6.462932
6.179810
5.661845
5.550981
5.236864
5.274415
4.981756
4.940629
4.797578
4.970431
4.660487
4.665852
4.607439
4.514456
4.295707
4.406571
4.311800
4.363656
4.237890
4.380941
##ZVALUE=290
1.009703
0.958443
0.897646
1.095533
0.921488
0.956655
1.047850
1.110435
1.149774
1.012683
1.063943
1.087785
1.423955
1.062751
1.348853
1.430511
1.250505
1.394749
1.477599
1.683831
1.629591
1.803637
1.888871
1.885891
2.251863
2.396703
3.096461
8.034706
41.114688
108.044744
231.439471
524.232388
851.505995
1015.877724
1015.877724
1015.877724
1015.877724
1015.877724
1015.877724
1008.281708
719.494820
365.515947
190.232992
67.379475
29.878616
26.576519
34.885406
51.148534
67.223907
87.893605
101.456642
112.650990
113.971829
105.815530
93.338490
71.511865
54.692626
36.603808
25.895834
15.703440
11.128783
8.165836
7.382631
6.669760
6.742477
6.624460
6.509423
6.732941
6.566644
6.692410
7.144809
7.440448
7.220507
7.028580
6.662607
6.278753
6.013513
5.715489
5.420446
5.052686
5.151629
5.032420
4.828572
4.793406
4.672408
4.689693
4.764795
4.446507
4.524589
4.381537
4.721880
4.365444
4.321933
4.456639
4.407763
4.119873
##ZVALUE=295
0.925660
0.981688
0.986457
0.953674
0.955462
1.030564
1.059771
0.903606
0.942945
1.030564
1.013875
1.018643
1.098514
1.140833
1.122952
1.312494
1.216531
1.382828
1.390576
1.274943
1.471639
1.688600
1.659989
1.773834
1.839995
1.824498
2.102852
2.137423
2.606511
3.868937
19.954443
63.866973
159.043670
410.582423
701.423883
1015.870571
1015.870571
1015.870571
1015.870571
1015.870571
1015.870571
1015.870571
906.071663
480.976701
266.079903
98.455548
40.868521
18.318892
20.721555
31.749606
43.723583
62.953830
77.657700
95.438957
104.317665
106.438994
100.300908
85.403919
70.271492
50.638914
37.231445
22.509694
15.264750
9.723902
7.407665
6.213784
5.675554
5.868673
6.045699
6.125569
6.390810
6.579757
6.564856
6.237626
6.111860
5.698800
5.357862
5.395412
5.115867
4.964471
4.724860
4.728436
4.646778
4.431605
4.399419
4.490614
4.480481
4.491806
4.266500
4.330873
4.480481
4.097819
4.224777
4.101992
4.310608
4.145503
##ZVALUE=300
0.951886
0.912547
0.805855
0.939965
1.110435
0.915527
0.967979
1.038909
1.028776
1.030564
0.877976
1.065731
1.184940
1.043677
0.965595
1.143813
1.118779
1.122952
1.234412
1.269579
1.397729
1.545548
1.544952
1.635551
1.699924
1.703501
1.911521
1.920462
2.137423
2.261996
2.364516
2.802610
10.773540
41.507483
146.532655
295.148492
619.104505
960.629582
1015.871763
1015.871763
1015.871763
1015.871763
1015.871763
1015.871763
1015.871763
733.748674
372.480750
193.914771
63.634515
24.609566
14.494658
17.893910
27.333498
38.377643
56.357980
71.752667
90.291500
97.466707
100.707412
97.530484
83.788633
69.729686
50.865412
37.696958
23.332834
16.059875
9.997487
7.241964
6.373525
6.083846
6.201863
6.252527
6.171465
5.958676
5.695820
5.275607
5.211830
5.080700
4.775524
4.726648
4.583597
4.631877
4.573464
4.493594
4.618764
4.246831
4.456639
4.220605
4.403591
4.133582
4.395843
4.187822
4.254580
4.147887
4.018545
4.200935
##ZVALUE=305
0.877976
0.975728
0.933409
1.007915
0.873804
0.855923
0.912547
0.835657
1.006722
1.073480
0.919700
0.876784
0.922680
1.125932
1.151562
1.094937
1.086593
1.120567
1.253486
1.300573
1.058578
1.226664
1.291633
1.479983
1.533628
1.561642
1.595616
1.728535
1.751781
1.992583
2.119541
2.248883
2.480745
2.656579
4.123449
33.115745
104.988813
294.947028
512.223840
925.408602
1015.870571
1015.870571
1015.870571
1015.870571
1015.870571
1015.870571
1015.870571
907.116532
570.914745
256.057978
121.263862
35.138726
14.287829
13.066530
16.326904
25.970936
36.705732
53.797960
67.671537
83.980560
92.024803
95.266700
91.796517
80.060959
67.397952
49.289465
36.241412
22.541881
15.537739
9.598732
7.642508
6.685853
6.044507
5.593896
5.433559
5.189776
5.060434
4.646778
4.592538
4.494786
4.411936
4.302859
4.290938
4.347563
4.022717
4.140735
4.079938
4.257560
4.255772
4.142523
4.058480
4.303455
4.215837
4.080534
3.978610
4.130602
##ZVALUE=310
0.852942
0.875592
0.910759
0.718832
0.866652
0.915527
0.888705
0.903606
0.939965
1.014471
1.024604
1.056790
0.986457
0.973940
0.835657
1.023412
1.045465
0.954866
0.886917
1.020432
1.187921
1.189709
1.004934
1.280904
1.388788
1.365542
1.325607
1.460910
1.590848
1.588464
1.549721
1.778603
2.077818
2.173781
2.320409
2.393723
2.864599
7.853508
28.520823
112.851858
249.294639
574.419498
926.300883
1015.870571
1015.870571
1015.870571
1015.870571
1015.870571
1015.870571
1015.870571
810.843706
409.313440
214.701891
69.963932
24.592876
10.324717
10.965466
15.243888
21.341443
33.185482
44.420958
62.178969
74.098706
85.997581
90.726614
86.996555
80.124736
64.865947
51.074624
34.648776
24.634600
15.597939
10.930896
7.083416
6.086826
5.080700
4.746914
4.650950
4.169941
4.092455
4.049540
3.789663
4.110932
4.012585
3.920794
4.025698
3.986955
3.907681
4.112720
3.980994
4.225969
4.030466
4.110932
3.898740
4.070997
4.204512
##ZVALUE=315
0.861883
0.892878
0.693798
1.100898
0.848770
0.830889
0.817776
0.826716
0.832677
0.813603
0.951886
0.808835
0.877976
1.001954
0.985861
1.011491
0.875592
1.012683
1.178980
0.936985
1.074672
0.995994
1.142621
1.041889
1.203418
1.245737
1.205802
1.350641
1.443624
1.430511
1.356602
1.572967
1.469851
1.827478
1.885891
1.927614
2.064705
2.357960
2.571940
4.092455
13.052821
66.128969
164.063573
417.481661
733.587742
1015.869975
1015.869975
1015.869975
1015.869975
1015.869975
1015.869975
1015.869975
997.281671
571.357012
313.599706
110.530853
40.861964
11.753440
8.867979
10.225773
12.931824
20.451546
28.183460
42.277575
55.029988
71.204901
79.932809
84.818602
83.150864
73.865652
62.797666
48.063993
36.434531
22.050738
15.037656
9.014606
6.355643
4.719496
4.354715
4.158616
3.911853
3.917813
3.701448
3.767610
3.719926
3.675818
3.890991
3.867745
3.894567
3.702641
3.807545
3.924966
3.889799
3.996491
3.960729
3.817677
##ZVALUE=320
0.807643
0.718832
0.873804
0.753999
0.844598
0.778437
0.794530
0.786781
0.966787
0.702739
0.793934
0.714660
0.831485
0.684857
1.014471
0.778437
0.847578
0.845790
0.888705
1.048446
1.010895
1.097918
1.122952
1.271963
1.273751
1.112819
1.157522
1.146793
1.203418
1.215935
1.223683
1.409650
1.398921
1.548529
1.457930
1.713634
1.827478
1.861453
1.973510
2.201796
2.393723
2.723932
5.866885
34.211874
96.544623
287.120938
526.947975
968.082547
1015.870571
1015.870571
1015.870571
1015.870571
1015.870571
1015.870571
1015.870571
732.657909
428.887010
179.196596
76.747537
19.975901
9.122491
7.719994
8.944869
12.107491
16.422868
26.350617
36.931634
52.787662
63.919425
75.257421
79.817772
78.538656
72.679520
58.680773
46.179891
31.205416
21.994710
13.204813
8.934736
5.722642
4.589558
3.943443
3.794432
3.786683
3.490448
3.398657
3.558993
3.475547
3.477931
3.594756
3.624558
3.582835
3.766418
3.822446
3.849864
3.761649
##ZVALUE=325
0.466704
0.651479
0.650883
0.622869
0.569820
0.590682
0.471473
0.707507
0.556707
0.574589
0.599623
0.510812
0.639558
0.610948
0.668764
0.587702
0.817776
0.697970
0.730753
0.803471
0.753999
0.826716
0.973940
0.966787
0.712872
0.898838
0.967979
0.905991
0.985861
1.053810
0.930429
1.066923
1.214743
1.264811
1.294613
1.153946
1.298785
1.423955
1.320839
1.690984
1.689792
1.861453
2.019405
2.466440
3.380775
20.015836
61.223507
186.542869
367.778540
762.195587
1015.682817
1015.682817
1015.682817
1015.682817
1015.682817
1015.682817
1015.682817
902.841091
558.456779
247.823000
114.390850
29.805899
10.789633
7.226467
7.307529
8.180737
10.810494
16.717911
24.591684
37.622452
48.104525
61.144829
69.883466
74.549913
72.849989
64.786673
55.231452
41.266680
30.423999
18.797517
12.656450
7.255673
5.412698
4.103780
3.620982
3.459454
3.407598
3.177524
3.316998
3.421903
3.321767
3.429651
3.408790
3.195405
3.418922
3.579855
##ZVALUE=330
0.669956
0.717640
0.774860
0.807643
0.760555
0.647902
0.652671
0.761747
0.717640
0.709891
0.767708
0.789762
0.870824
0.790954
0.916719
0.763535
0.779629
0.867844
0.729561
0.955462
0.840425
1.067519
0.902414
1.100898
0.919700
0.899434
1.023412
0.897646
1.076460
1.042485
1.064539
0.863671
1.154542
1.135468
1.292825
1.303554
1.261830
1.373887
1.453757
1.485944
1.524687
1.708865
1.887679
2.086759
2.125502
2.477765
2.750754
8.310676
29.219985
115.079880
246.751904
556.373000
885.123014
1015.870571
1015.870571
1015.870571
1015.870571
1015.870571
1015.870571
1015.870571
732.885003
350.793004
177.037716
56.648850
18.756986
7.660985
6.788969
6.988645
8.074641
11.244416
15.340447
23.486614
32.628775
46.068430
55.887699
65.801740
69.733858
68.142414
61.729550
50.255656
40.080547
26.976466
19.456744
12.037754
8.430481
5.281568
4.299879
3.673434
3.602505
3.493428
3.428459
3.372431
3.418922
3.506541
3.450513
3.549457
##ZVALUE=335
0.619888
0.638962
0.714660
0.741482
0.779629
0.764728
0.622869
0.651479
0.660419
0.654459
0.650883
0.659823
0.676513
0.820756
0.701547
0.898838
0.871420
0.864863
0.743866
0.885725
0.734925
0.774860
0.895858
0.812411
0.854731
0.922680
0.959635
0.989437
1.058578
0.936985
1.080632
0.807643
1.131892
1.082420
1.197457
1.083612
1.102686
1.237988
1.316667
1.446605
1.449585
1.419783
1.508594
1.613498
1.681447
1.831651
2.131462
2.188683
2.488494
3.428459
17.512441
55.337548
182.538629
359.227061
732.390881
1015.870571
1015.870571
1015.870571
1015.870571
1015.870571
1015.870571
1015.870571
868.880749
539.138913
232.480764
103.669763
26.733875
9.850860
7.074475
6.626844
6.884933
7.478595
10.144711
13.873577
21.693707
29.522777
41.342974
51.321983
60.729980
64.093471
62.651634
57.495832
48.646927
39.685965
27.793646
20.313859
12.599826
8.702874
5.741715
4.418492
3.837943
3.682971
3.540516
3.484488
3.764629
3.688931
##ZVALUE=340
0.620484
0.664592
0.566840
0.634789
0.526905
0.718832
0.753999
0.697970
0.782609
0.697970
0.725985
0.742674
0.786781
0.707507
0.688434
0.828505
0.780821
0.784993
0.826716
0.862479
0.740886
0.823736
0.692606
0.946522
0.757575
0.846982
0.810623
0.877976
0.851750
0.937581
0.880957
1.033545
0.902414
1.059771
0.936985
0.972748
0.930429
1.196861
1.197457
1.092553
1.351833
1.302958
1.481771
1.323819
1.338720
1.360774
1.679659
1.834631
1.839995
1.973510
2.295971
3.019571
6.419420
36.711693
104.554892
299.829841
546.070933
968.906879
1015.870571
1015.870571
1015.870571
1015.870571
1015.870571
1015.870571
1007.688642
585.223436
330.354571
129.497647
46.908855
11.000633
7.401705
6.563663
6.489754
6.546974
7.001758
9.228587
12.984872
20.277500
28.225780
40.301681
48.902631
57.226419
60.231686
58.883429
54.965615
46.090484
37.591457
27.063489
19.887686
12.678504
8.797646
5.687475
4.497766
3.795624
3.762841
3.616810
##ZVALUE=345
0.681877
0.721812
0.613928
0.525713
0.658631
0.618696
0.687838
0.647902
0.697970
0.689626
0.839829
0.592470
0.721812
0.696778
0.612736
0.675917
0.796914
0.796914
0.736713
0.713468
0.778437
0.658631
0.663996
0.796914
0.681877
0.896454
0.796914
0.792742
0.799894
0.853539
0.982881
0.908971
0.966787
0.892878
1.038909
0.994802
1.067519
1.055598
1.020432
1.105666
1.129508
1.186728
1.253486
1.316667
1.248717
1.282692
1.431704
1.288652
1.503825
1.695752
1.857877
2.089739
2.187490
2.242923
3.993511
15.033484
75.075626
171.598792
409.075618
682.605505
1015.871763
1015.871763
1015.871763
1015.871763
1015.871763
1015.871763
1015.871763
801.873803
382.003784
187.198520
56.234002
20.031929
8.109808
7.138848
6.149411
5.707741
5.373955
5.868673
8.215904
11.443496
18.586516
25.817752
35.338998
43.309927
51.364899
55.083632
55.330992
51.817894
44.209957
37.037730
26.869774
19.732714
13.021827
8.811951
5.835891
4.812479
##ZVALUE=350
0.589490
0.586510
0.572801
0.591874
0.705719
0.634789
0.648499
0.704527
0.652671
0.677705
0.714660
0.619888
0.746846
0.834465
0.570416
0.770688
0.757575
0.771880
0.786781
0.649691
0.749826
0.649691
0.933409
0.813603
0.808835
0.839829
0.797510
0.859499
0.746846
0.831485
0.927448
0.925660
0.851750
0.909567
0.849962
0.849962
0.960827
0.868440
0.943542
0.922680
1.102686
1.131892
1.176596
0.961423
1.086593
1.158714
1.222491
1.248717
1.269579
1.293421
1.730919
1.573563
1.661777
2.074838
2.167821
2.038479
2.802610
7.218719
38.934946
102.009773
285.547972
517.162681
945.439935
1015.844941
1015.844941
1015.844941
1015.844941
1015.844941
1015.844941
903.194547
470.952988
261.269808
96.174479
33.670664
8.934736
6.493926
5.445480
5.002618
4.693866
4.720688
5.545616
7.139444
10.644794
15.007854
22.864938
29.846430
39.360523
45.091510
50.006509
51.000714
47.725439
42.772889
33.867955
27.149916
18.384457
13.735890
##ZVALUE=355
0.702739
0.686646
0.671744
0.855923
0.600815
0.584722
0.789762
0.708699
0.717640
0.610948
0.758767
0.780821
0.791550
0.730753
0.772476
0.512600
0.853539
0.735521
0.812411
0.840425
0.703931
0.989437
0.932813
0.846982
0.775456
0.859499
0.880957
0.966787
0.930429
0.844598
0.873804
0.972748
0.889897
0.753999
1.032948
0.974536
1.039505
1.030564
1.088977
0.990629
1.039505
1.161695
1.046658
1.146793
1.158714
1.223683
1.279712
1.264811
1.278520
1.281500
1.405478
1.376867
1.502633
1.561642
1.587868
1.854897
2.058744
2.309680
2.601743
4.578829
16.893744
78.642964
179.239511
417.503715
693.541765
1015.870571
1015.870571
1015.870571
1015.870571
1015.870571
1015.870571
997.657776
679.765940
309.275985
147.862434
40.663481
12.911558
6.161928
5.598664
4.924536
4.672408
4.540682
4.444718
5.106926
6.409883
9.631515
13.202429
19.937754
25.860667
34.169555
40.164590
45.628548
47.090650
44.613481
40.711761
33.366680
##ZVALUE=360
0.660419
0.581741
0.694990
0.668764
0.515580
0.777841
0.763535
0.823736
0.710487
0.827909
0.899434
0.780821
0.709891
0.751615
0.700951
0.850558
0.697970
0.775456
0.719428
0.849962
0.784993
0.714660
0.822544
0.826716
0.661612
0.920892
0.831485
0.836849
0.935793
0.777841
0.851750
0.869632
0.944734
0.868440
0.892878
0.955462
0.925660
0.947714
1.134872
1.061559
1.117587
1.020432
0.986457
1.079440
1.242757
1.261830
1.173615
1.091957
1.136661
1.299977
1.273751
1.216531
1.441836
1.478791
1.538992
1.574755
1.797676
1.857877
1.862645
2.233982
2.345443
3.177524
7.117987
36.015511
102.293491
292.300582
520.381927
922.896862
1015.871763
1015.871763
1015.871763
1015.871763
1015.871763
1015.871763
850.553513
430.592895
224.641562
78.005791
26.342869
7.031560
5.692840
4.975796
4.707575
4.527569
4.252791
4.151464
4.364848
5.465746
7.174611
11.018515
15.403628
22.854805
28.772950
36.118627
40.509701
42.867661
##ZVALUE=365
0.689626
0.597835
0.605583
0.793934
0.679493
0.712872
0.699759
0.666976
0.640750
0.805855
0.677705
0.658631
0.669956
0.842810
0.688434
0.882745
0.697970
0.728965
0.673532
0.654459
0.757575
0.825524
0.697970
0.784993
0.872612
0.854731
0.817776
0.852942
0.959635
0.756979
0.761747
0.969768
0.835657
0.826716
0.958443
0.956655
0.973940
0.883937
0.984669
0.861883
1.015663
0.950694
0.929832
1.021624
1.046658
1.131892
1.243949
1.087785
1.063943
1.154542
1.276731
1.235604
1.279712
1.246929
1.442432
1.521707
1.551509
1.656413
1.691580
1.817942
1.905560
2.145767
2.395511
2.643466
3.630519
16.442537
55.573583
183.899999
368.623734
735.547543
1015.870571
1015.870571
1015.870571
1015.870571
1015.870571
1015.870571
993.379951
590.704679
328.918695
120.479465
44.815540
9.766817
5.510449
4.927516
4.505515
4.073977
3.911853
3.842711
3.810525
4.118681
4.692674
6.697774
8.996725
13.760924
18.220544
24.994612
##ZVALUE=370
0.600815
0.738502
0.579953
0.604987
0.646710
0.782609
0.770688
0.695586
0.716448
0.671744
0.767708
0.739694
0.658631
0.652671
0.696778
0.776649
0.607967
0.841618
0.723600
0.768900
0.675917
0.616908
0.791550
0.722408
1.006722
0.743866
0.808835
0.780821
0.785589
0.909567
0.759959
0.792742
0.866652
0.788569
0.892878
0.930429
0.967979
0.945926
1.033545
0.850558
0.908971
0.969768
1.047850
0.861883
0.918508
0.966787
0.986457
0.907779
0.901818
1.087785
1.019835
1.194477
1.181960
0.998974
1.037717
1.172423
1.314878
1.260638
1.356602
1.464486
1.574755
1.793504
1.694560
1.969934
1.961589
2.419949
2.630949
8.475780
31.410456
124.447942
259.910822
551.526546
878.313780
1015.870571
1015.870571
1015.870571
1015.870571
1015.870571
1015.870571
697.636008
407.586694
163.615942
71.977973
19.893646
7.083416
4.817843
4.247427
3.991723
3.884435
3.566742
3.704429
3.767610
3.927946
4.624724
5.775690
8.176565
##ZVALUE=375
0.652671
0.581741
0.549555
0.669956
0.775456
0.658631
0.544786
0.685453
0.667572
0.642538
0.704527
0.582933
0.590682
0.694990
0.639558
0.825524
0.812411
0.684857
0.762939
0.541806
0.576973
0.759959
0.766516
0.738502
0.823736
0.676513
0.785589
0.717640
0.695586
0.721812
0.861883
0.813603
0.784993
0.716448
0.798702
0.672936
0.838637
0.935793
0.959635
0.891685
0.870824
0.880957
0.867844
0.943542
0.829697
0.844598
0.799894
0.968575
0.888705
0.821948
0.932813
0.939965
1.006722
1.126528
1.071692
1.263618
0.957847
1.084805
1.172423
1.166463
1.307726
1.248717
1.325607
1.480579
1.437664
1.611710
1.965761
2.156496
2.471805
4.881620
15.730858
67.830682
165.542960
418.846011
700.717568
1015.870571
1015.870571
1015.870571
1015.870571
1015.870571
1015.870571
871.621966
575.393438
292.051435
144.427419
41.162968
12.844801
4.878640
4.523993
4.222989
3.926754
3.745556
3.788471
3.569722
3.743768
3.703833
##ZVALUE=380
0.561476
0.441670
0.550747
0.616908
0.542998
0.478625
0.507832
0.573993
0.486970
0.587702
0.505447
0.596642
0.617504
0.574589
0.512600
0.667572
0.523925
0.570416
0.651479
0.624657
0.451803
0.530481
0.517964
0.795722
0.748634
0.860691
0.631809
0.663996
0.745654
0.698566
0.803471
0.753999
0.770688
0.902414
0.816584
0.807643
0.868440
0.939965
0.718832
0.986457
0.774860
0.830889
0.718832
0.720620
0.650883
0.740886
0.945926
0.690818
0.783801
0.855923
0.777841
0.883937
0.878572
0.981688
0.893474
0.915527
0.961423
0.895858
0.912547
0.953674
0.981688
1.006722
1.008511
1.206994
1.428723
1.436472
1.648664
1.868606
2.141595
2.371669
2.530813
3.071427
8.098483
44.974685
117.824674
315.489769
554.480553
955.280662
1015.840769
1015.840769
1015.840769
1015.840769
1015.840769
1015.840769
773.440599
406.387448
215.838552
73.050857
25.507808
6.546974
4.490614
3.975630
4.061460
4.000664
3.690720
3.775954
##ZVALUE=385
0.550747
0.629425
0.502467
0.548959
0.542998
0.573993
0.557899
0.546575
0.487566
0.552535
0.604987
0.531673
0.594854
0.561476
0.627637
0.581741
0.574589
0.644922
0.584722
0.671744
0.740886
0.590682
0.696778
0.691414
0.670552
0.752807
0.763535
0.593662
0.880957
0.802875
0.883937
0.838637
0.788569
0.941753
0.923872
0.875592
0.839829
0.981688
0.862479
0.904799
1.027584
0.855923
0.804663
0.934601
0.817776
0.733733
0.899434
0.835657
0.876784
0.833869
0.953674
1.040697
0.919700
0.976920
0.866652
1.060963
1.044869
0.951886
1.084805
1.077652
1.225471
1.139641
1.057982
1.168847
1.269579
1.294613
1.390576
1.734495
1.824498
1.971722
1.962781
2.111793
2.174973
2.367496
4.068613
22.223592
68.131685
203.696489
395.774841
781.087875
1015.874743
1015.874743
1015.874743
1015.874743
1015.874743
1015.874743
976.709723
587.517619
349.211693
147.187710
57.540536
11.573434
5.273819
4.431605
4.246831
4.004836
##ZVALUE=390
0.530481
0.599623
0.488758
0.750422
0.714660
0.537634
0.520945
0.492930
0.542998
0.766516
0.615716
0.575781
0.414848
0.485778
0.681877
0.461936
0.567436
0.578761
0.552535
0.684857
0.661612
0.544786
0.695586
0.611544
0.671744
0.729561
0.837445
0.686646
0.741482
0.986457
0.923872
0.973940
1.003742
0.838637
1.085997
1.006722
0.913739
1.001954
0.927448
0.820756
0.867844
0.864863
0.951886
0.972748
0.892878
1.031756
1.057982
0.918508
0.925660
0.850558
0.944734
0.981688
0.868440
0.907779
0.870824
0.944734
0.946522
0.831485
1.002550
0.960827
1.022816
1.059771
0.994802
1.127720
1.345873
1.369715
1.342893
1.597404
1.623631
1.785755
1.938939
2.027750
1.849532
1.822710
1.904964
2.015829
2.563596
10.344982
38.744807
145.684481
304.517746
638.632774
936.196446
1015.885472
1015.885472
1015.885472
1015.885472
1015.885472
1015.885472
806.725621
500.656962
217.210650
98.487735
23.086667
7.445812
4.455447
##ZVALUE=395
0.605583
0.546575
0.594854
0.546575
0.454783
0.460744
0.641942
0.481606
0.676513
0.566840
0.643730
0.454783
0.527501
0.534654
0.549555
0.695586
0.634789
0.463724
0.461936
0.532866
0.604987
0.678897
0.638962
0.709891
0.661612
0.764728
0.844598
0.784993
0.885725
0.818968
0.784993
0.887513
0.872612
0.916719
1.002550
1.035929
0.973940
1.024604
0.898838
1.036525
0.893474
0.900626
1.049638
0.961423
1.078844
1.033545
0.918508
1.046658
1.022816
0.937581
1.052618
0.919700
0.993609
0.850558
1.035929
1.022816
0.967979
0.908971
1.094937
1.081824
1.089573
1.034737
1.037717
1.184940
1.265407
1.215935
1.434684
1.472831
1.530647
1.739860
1.774430
1.696944
1.806617
1.729727
1.652837
1.714826
1.699924
1.893640
2.315640
5.711913
22.959709
97.219944
206.503868
441.358685
711.761713
1015.870571
1015.870571
1015.870571
1015.870571
1015.870571
1015.870571
949.870944
628.698468
298.354626
148.440599
45.730472
##ZVALUE=400
0.694990
0.719428
0.485778
0.622869
0.339746
0.509620
0.455976
0.591874
0.625849
0.613928
0.674725
0.614524
0.487566
0.563860
0.565648
0.474453
0.651479
0.452995
0.655651
0.715852
0.519753
0.644922
0.773668
0.697970
0.611544
0.806451
0.702739
0.795722
0.886917
0.912547
0.869632
0.912547
0.913739
0.865459
0.963807
1.063943
1.076460
0.987649
0.965595
0.977516
0.905991
1.036525
1.050830
0.978708
1.098514
0.952482
0.915527
1.158714
1.032948
0.953674
1.052618
0.988841
1.040697
1.030564
0.892878
0.926852
1.064539
0.962615
0.997782
0.890493
0.844598
1.038909
1.164675
1.022816
1.174808
1.344681
1.308918
1.314878
1.584888
1.520514
1.500845
1.623631
1.434684
1.450777
1.432896
1.564622
1.457930
1.537800
1.614690
1.774430
2.133846
3.311634
10.850430
48.826933
121.368766
317.278504
553.051829
954.433680
1015.870571
1015.870571
1015.870571
1015.870571
1015.870571
1015.870571
762.974024
414.827466
##END
