##TITLE=C106_R2
##FORMAT=SPECTACLE-ASCII V-1.2
##DATA TYPE=ULTRAVIOLET SPECTRUM
##SECOND TYPE=ULTRAVIOLET SPECTRUM
##DATE=05/28/18
##TIME=15:02:00
##SPECTROMETER/DATA SYSTEM=SPECTACLE
##XUNITS=NM EM
##YUNITS=ENERGY
##YFACTOR=1
##FIRSTX=220
##LASTX=410
##NPOINTS=96
##3DDATA=Equidistant
##ZUNITS=NM EX
##FIRSTZ=210
##LASTZ=400
##ZPOINTS=39
##XYDATA=(Y..Y)
##ZVALUE=210
341.786742
300.985575
195.631981
95.623732
66.597462
51.891804
56.002736
61.299801
68.795681
72.813630
75.665712
79.002976
86.335540
86.288452
88.838935
91.312528
99.564791
102.079511
107.749701
119.427443
132.054687
143.345594
150.918961
169.683695
180.847645
198.266506
212.872624
238.075852
249.883533
273.165703
295.488834
318.854451
354.377627
383.703709
426.068902
457.447767
500.837564
534.489751
581.216812
612.195730
646.926761
688.808560
725.162029
755.224824
782.762766
818.398595
832.065940
866.115689
900.794864
903.540850
924.080610
933.162570
956.853032
951.609015
974.719524
962.792635
968.892574
979.036689
968.719721
949.896574
955.055952
953.486562
937.631726
960.624814
992.857814
1016.005874
1016.005874
1016.005874
1016.005874
1016.005874
1016.005874
1016.005874
1016.005874
1016.005874
1016.005874
1016.005874
1016.005874
1016.005874
1016.005874
1016.005874
1016.005874
1016.005874
903.821588
788.135529
669.517517
607.101917
563.803911
523.953438
507.185459
508.338809
529.363751
575.639606
663.615465
762.656927
933.243036
1016.005874
##ZVALUE=215
1016.005874
1016.005874
1016.005874
944.257975
592.852831
298.796892
168.944001
99.108815
90.569854
96.869469
99.467635
99.437833
95.521808
98.795891
99.681616
101.139545
108.501911
109.653473
119.119883
124.874711
137.726665
142.351985
157.691836
175.717473
189.885497
208.203793
221.634507
243.718624
261.563659
286.293626
302.219987
338.290930
373.623967
417.219996
456.396937
508.344769
562.037826
640.171766
681.868792
738.601685
798.829794
850.299597
901.260972
956.027508
1002.124548
1016.005874
1016.005874
1016.005874
1016.005874
1016.005874
1016.005874
1016.005874
1016.005874
1016.005874
1016.005874
1016.005874
1016.005874
1016.005874
1016.005874
1016.005874
1016.005874
1016.005874
1016.005874
1016.005874
1016.005874
1016.005874
1016.005874
1016.005874
1016.005874
1016.005874
1016.005874
1016.005874
1016.005874
1016.005874
1016.005874
1016.005874
1016.005874
1016.005874
1016.005874
1016.005874
1016.005874
1003.972888
895.575881
786.672831
713.016987
637.615919
607.490540
560.424924
545.871854
524.358749
509.755015
486.626625
480.967760
492.908955
529.379845
616.215467
##ZVALUE=220
1016.005874
1016.005874
1016.005874
1016.005874
1016.005874
1016.005874
1016.005874
812.611580
417.519808
208.660960
125.054717
117.983818
112.889409
110.983849
107.023716
104.555488
107.979774
107.762814
115.275979
116.550922
122.744441
131.340623
143.890977
156.572461
167.717934
183.357000
198.222995
214.053988
227.946639
254.176855
278.044939
310.931802
342.047811
401.461720
452.027917
532.960892
595.120788
692.953467
750.406981
841.064453
911.752582
1004.621983
1016.005874
1016.005874
1016.005874
1016.005874
1016.005874
1016.005874
1016.005874
1016.005874
1016.005874
1016.005874
1016.005874
1016.005874
1016.005874
1016.005874
1016.005874
1016.005874
1016.005874
1016.005874
1016.005874
1016.005874
1016.005874
1016.005874
1016.005874
1016.005874
1016.005874
1016.005874
1016.005874
1016.005874
1016.005874
1016.005874
1016.005874
1016.005874
1016.005874
1016.005874
1016.005874
1016.005874
1016.005874
1016.005874
1016.005874
999.033451
911.586881
799.986720
738.324523
672.808886
640.320778
595.168471
568.636656
535.620451
517.334938
492.639542
478.533506
448.739529
442.621708
435.042977
##ZVALUE=225
1016.005874
1016.005874
1016.005874
1016.005874
1016.005874
1016.005874
1016.005874
1016.005874
1016.005874
1016.005874
904.843807
380.210876
164.426565
145.903826
138.319731
133.715868
122.599602
120.891929
117.287636
114.523768
118.760467
127.586722
135.205984
145.119429
149.401426
164.738894
176.233649
191.325545
204.138756
221.618414
243.580937
283.435583
329.691768
402.698517
465.492606
564.322472
656.172633
776.553750
872.415900
998.567939
1016.005874
1016.005874
1016.005874
1016.005874
1016.005874
1016.005874
1016.005874
1016.005874
1016.005874
1016.005874
1016.005874
1016.005874
1016.005874
1016.005874
1016.005874
1016.005874
1016.005874
1016.005874
1016.005874
1016.005874
1016.005874
1016.005874
1016.005874
1016.005874
1016.005874
1016.005874
1016.005874
1016.005874
1016.005874
1016.005874
1016.005874
1016.005874
1016.005874
1016.005874
1016.005874
1016.005874
1016.005874
1016.005874
1016.005874
1016.005874
1016.005874
1013.960838
936.311483
850.852728
792.717934
722.215772
679.648519
632.762909
609.620810
566.830635
543.378592
515.599847
490.532517
479.239821
454.282761
443.226695
##ZVALUE=230
1016.005874
1016.005874
1016.005874
1016.005874
1016.005874
1016.005874
1016.005874
1016.005874
1016.005874
1016.005874
1016.005874
1016.005874
1016.005874
790.485740
275.352001
176.459551
166.238546
161.870718
152.365565
146.064758
142.285824
138.078928
133.873820
139.440894
142.683983
154.086947
158.982873
175.228715
183.392763
198.369622
227.512717
252.947807
307.926536
377.815962
482.978821
563.031435
687.359571
789.341927
938.639641
1016.005874
1016.005874
1016.005874
1016.005874
1016.005874
1016.005874
1016.005874
1016.005874
1016.005874
1016.005874
1016.005874
1016.005874
1016.005874
1016.005874
1016.005874
1016.005874
1016.005874
1016.005874
1016.005874
1016.005874
1016.005874
1016.005874
1016.005874
1016.005874
1016.005874
1016.005874
1016.005874
1016.005874
1016.005874
1016.005874
1016.005874
1016.005874
1016.005874
1016.005874
1016.005874
1016.005874
1016.005874
1016.005874
1016.005874
1016.005874
1016.005874
1016.005874
1008.768678
917.931795
850.508809
776.292682
732.661486
674.433708
643.778443
598.733425
571.769476
534.460545
512.745976
486.055613
472.728610
448.451638
437.068939
##ZVALUE=235
870.039463
973.346829
1016.005874
1016.005874
1016.005874
1016.005874
1016.005874
1016.005874
1016.005874
1016.005874
1016.005874
1016.005874
1016.005874
1016.005874
1016.005874
1016.005874
447.181463
230.198503
198.752880
192.277431
187.069774
175.705552
167.129636
157.620907
155.911446
154.347420
157.300830
165.614486
168.562531
186.851621
202.251673
233.859420
271.936655
330.756903
388.879776
482.173562
557.145476
662.861466
742.125511
857.090950
948.475003
1016.005874
1016.005874
1016.005874
1016.005874
1016.005874
1016.005874
1016.005874
1016.005874
1016.005874
1016.005874
1016.005874
1016.005874
1016.005874
1016.005874
1016.005874
1016.005874
1016.005874
1016.005874
1016.005874
1016.005874
1016.005874
1016.005874
1016.005874
1016.005874
1016.005874
1016.005874
1016.005874
1016.005874
1016.005874
1016.005874
1016.005874
1016.005874
1016.005874
1016.005874
1016.005874
1016.005874
1016.005874
1016.005874
981.068015
897.674561
796.637535
735.839009
669.853687
627.977848
586.356521
558.539629
531.217456
502.050519
474.850535
453.509688
435.083508
423.380733
404.513478
394.213796
377.467871
##ZVALUE=240
39.258599
52.109361
199.206471
930.745602
1016.005874
1016.005874
1016.005874
1016.005874
1016.005874
1016.005874
1016.005874
1016.005874
1016.005874
1016.005874
1016.005874
1016.005874
1016.005874
1016.005874
990.284085
331.625938
219.362974
216.107965
210.069418
200.444460
191.184878
176.211596
173.148513
167.698860
170.243979
174.432993
181.432962
201.876760
219.284892
257.372856
282.631516
332.549810
373.089910
431.291461
474.770665
539.648533
587.253571
653.855801
689.824820
759.368539
802.675486
864.360929
910.352468
966.522694
997.857451
1016.005874
1016.005874
1016.005874
1016.005874
1016.005874
1016.005874
1016.005874
1016.005874
1016.005874
1016.005874
1016.005874
1016.005874
1016.005874
1016.005874
1016.005874
1016.005874
1016.005874
1016.005874
1016.005874
1016.005874
1016.005874
1016.005874
1016.005874
1016.005874
1016.005874
1016.005874
998.340845
921.557546
834.586620
758.377910
670.595765
609.710813
541.094542
503.730774
463.522673
436.678529
416.588783
397.986770
377.863646
369.883776
352.139473
342.735648
336.273909
329.437852
320.114493
314.592719
309.632421
##ZVALUE=245
25.870800
24.610758
29.369593
34.881830
139.417648
501.828790
1016.005874
1016.005874
1016.005874
1016.005874
1016.005874
1016.005874
1016.005874
1016.005874
1016.005874
1016.005874
1016.005874
1016.005874
1016.005874
1016.005874
1016.005874
612.499714
236.461759
223.119855
223.429799
223.254561
213.819742
203.429461
192.747712
187.105536
181.712508
182.895660
191.655755
201.758742
218.139887
244.762897
260.681510
291.645527
314.688683
345.429778
373.461843
406.458974
437.370539
470.826626
499.159694
537.537932
565.735698
602.836013
623.203516
658.576488
682.269931
705.325007
720.961690
741.145611
749.553442
757.948756
761.275887
760.256648
758.157969
748.213530
740.164518
724.954009
714.075565
705.116987
698.069930
693.907738
705.786943
723.697543
735.474825
770.822763
785.591006
810.230970
806.525946
792.570710
761.063695
706.296563
662.396550
593.515635
541.972518
473.834872
436.190963
388.345718
364.881754
340.983868
325.381756
310.151577
302.540660
291.199684
285.566449
277.884007
272.578597
266.342759
267.219543
260.621905
257.927775
255.628824
##ZVALUE=250
20.348430
20.856857
22.503734
25.677681
27.483702
33.773780
52.888393
313.325524
942.223668
1016.005874
1016.005874
1016.005874
1016.005874
1016.005874
1016.005874
1016.005874
1016.005874
1016.005874
1016.005874
1016.005874
1016.005874
1016.005874
1016.005874
849.601030
321.282744
223.736763
228.771567
232.560635
230.515003
225.349665
216.619968
206.286907
202.791691
204.780698
210.340619
221.557617
238.208771
260.000825
281.753540
310.246944
334.689617
364.735723
391.027927
423.526764
448.942780
491.379499
515.756011
550.227761
576.167703
613.467693
631.800890
654.572845
672.142506
690.261722
699.481964
709.439516
711.043477
715.529919
712.902546
704.971552
699.090958
682.837963
673.793554
661.334991
654.183626
653.208494
652.642846
661.499500
674.101710
694.025755
712.083578
718.179941
714.100003
695.270896
673.222542
620.186925
579.609871
519.923568
473.536849
416.741967
384.386778
345.878005
326.440930
301.702619
291.363597
276.054740
267.748833
259.171724
252.403617
247.488618
245.227814
238.564610
234.185457
231.698751
229.069591
228.078961
##ZVALUE=255
17.580986
18.338561
18.616915
21.242499
23.735762
25.742650
29.001832
34.330487
44.489503
110.140443
693.804026
1015.985608
1015.985608
1015.985608
1015.985608
1015.985608
1015.985608
1015.985608
1015.985608
1015.985608
1015.985608
1015.985608
1015.985608
1015.985608
1015.985608
1015.985608
587.675571
267.743468
235.025883
241.937637
247.665644
252.004862
250.743628
251.908898
253.650546
258.798003
270.409584
291.444659
311.893821
348.036885
374.173522
416.833758
447.498560
498.802662
529.313684
587.428808
615.641475
657.878518
691.133738
735.395551
765.437484
799.287558
820.927620
845.548511
854.860544
863.958597
873.066783
869.472027
868.328810
858.886838
849.278569
829.832554
815.610886
796.540976
780.508518
765.028000
756.952763
750.633478
755.998492
760.571957
760.048032
758.693814
742.785931
711.280704
681.188703
624.647737
580.307841
524.775982
483.027697
430.908799
395.945907
360.529423
339.781642
317.063928
304.292440
286.502838
274.791718
263.899565
254.681706
245.491862
239.089727
233.917832
228.423476
223.963857
222.881436
222.007632
##ZVALUE=260
16.993880
17.101765
18.065572
19.377470
20.684600
23.075938
24.243593
27.797818
30.469894
34.990907
39.504766
68.743825
252.315998
1012.879014
1016.004682
1016.004682
1016.004682
1016.004682
1016.004682
1016.004682
1016.004682
1016.004682
1016.004682
1016.004682
1016.004682
1016.004682
1016.004682
1016.004682
1016.004682
429.348946
253.031850
259.088874
281.804800
304.723978
321.713686
345.512629
363.053679
386.970639
410.856009
446.426868
481.392741
534.723997
577.343702
642.398000
690.719485
764.342546
811.804533
869.965553
917.248726
979.869962
1015.974879
1016.004682
1016.004682
1016.004682
1016.004682
1016.004682
1016.004682
1016.004682
1016.004682
1016.004682
1016.004682
1016.004682
1016.004682
1016.004682
1016.004682
995.419621
977.249742
958.840847
942.134857
929.797888
916.818976
889.616013
866.128802
817.960501
776.796937
714.772940
666.453838
601.925850
551.038980
498.844981
463.133454
422.426462
397.996902
367.078781
349.860787
325.170755
311.762691
293.089747
282.101631
268.599987
256.515741
245.960951
241.894722
233.442783
229.334831
225.017667
##ZVALUE=265
17.072558
17.067790
17.674565
18.709898
19.764900
21.153688
23.396611
24.574995
27.304888
29.085875
32.698512
35.574436
39.318800
48.115849
105.300546
648.871660
1016.005874
1016.005874
1016.005874
1016.005874
1016.005874
1016.005874
1016.005874
1016.005874
1016.005874
1016.005874
1016.005874
1016.005874
1016.005874
1016.005874
1016.005874
884.661674
361.649990
313.028693
350.709558
410.014987
454.486012
511.898994
554.208755
606.220961
652.660728
712.304711
768.174529
841.664672
906.034708
991.388559
1016.005874
1016.005874
1016.005874
1016.005874
1016.005874
1016.005874
1016.005874
1016.005874
1016.005874
1016.005874
1016.005874
1016.005874
1016.005874
1016.005874
1016.005874
1016.005874
1016.005874
1016.005874
1016.005874
1016.005874
1016.005874
1016.005874
1016.005874
1016.005874
1016.005874
1016.005874
1016.005874
983.393788
933.502913
851.261020
789.944530
717.871785
662.532449
596.990585
552.685857
502.699614
471.030474
437.595844
411.362648
383.283496
363.992453
337.835550
321.776867
301.072001
289.006829
273.499489
262.622833
251.999497
245.599747
239.863992
##ZVALUE=270
17.105937
17.230511
17.703772
18.147826
19.361973
20.443797
21.815896
23.003817
24.929643
25.454760
28.805733
30.278563
32.690763
37.149787
40.596724
46.758652
58.388710
264.729857
882.822871
1016.005874
1016.005874
1016.005874
1016.005874
1016.005874
1016.005874
1016.005874
1016.005874
1016.005874
1016.005874
1016.005874
1016.005874
1016.005874
1016.005874
1016.005874
737.339854
448.651910
501.533747
597.733855
672.556758
773.877501
848.972797
944.947004
1008.874774
1016.005874
1016.005874
1016.005874
1016.005874
1016.005874
1016.005874
1016.005874
1016.005874
1016.005874
1016.005874
1016.005874
1016.005874
1016.005874
1016.005874
1016.005874
1016.005874
1016.005874
1016.005874
1016.005874
1016.005874
1016.005874
1016.005874
1016.005874
1016.005874
1016.005874
1016.005874
1016.005874
1016.005874
1016.005874
1016.005874
1016.005874
1016.005874
999.718904
934.159756
850.507617
785.290003
706.403852
655.730963
592.812896
560.586452
516.566634
486.121774
447.357893
421.959758
391.483903
369.854569
344.587564
324.175954
305.498838
291.464925
275.450945
268.285871
256.587863
##ZVALUE=275
17.595887
17.317533
17.840862
18.698573
19.465685
19.860864
21.218657
22.604465
23.371577
25.000572
26.363730
27.992725
30.477643
32.262802
34.386516
36.857724
41.446686
45.968890
51.924586
104.093552
450.865030
1016.005874
1016.005874
1016.005874
1016.005874
1016.005874
1016.005874
1016.005874
1016.005874
1016.005874
1016.005874
1016.005874
1016.005874
1016.005874
1016.005874
1016.005874
1016.005874
720.889568
727.037787
849.436522
948.969722
1016.005874
1016.005874
1016.005874
1016.005874
1016.005874
1016.005874
1016.005874
1016.005874
1016.005874
1016.005874
1016.005874
1016.005874
1016.005874
1016.005874
1016.005874
1016.005874
1016.005874
1016.005874
1016.005874
1016.005874
1016.005874
1016.005874
1016.005874
1016.005874
1016.005874
1016.005874
1016.005874
1016.005874
1016.005874
1016.005874
1016.005874
1016.005874
1016.005874
1016.005874
1016.005874
1016.005874
952.453613
882.152915
796.148777
740.844607
672.588944
626.835823
574.271679
539.286733
496.816635
467.741489
433.771610
408.611894
375.442505
354.518890
328.685641
313.615799
299.266577
287.254453
273.925662
##ZVALUE=280
17.947555
17.675757
18.323660
19.058585
19.677877
20.313859
21.378994
22.265911
23.495555
24.570823
25.834441
26.604533
27.995706
29.709935
31.248927
33.241510
35.001636
39.218664
41.614771
48.420429
55.077672
66.756606
322.522521
1016.005874
1016.005874
1016.005874
1016.005874
1016.005874
1016.005874
1016.005874
1016.005874
1016.005874
1016.005874
1016.005874
1016.005874
1016.005874
1016.005874
1016.005874
1016.005874
1016.005874
951.905847
1016.005874
1016.005874
1016.005874
1016.005874
1016.005874
1016.005874
1016.005874
1016.005874
1016.005874
1016.005874
1016.005874
1016.005874
1016.005874
1016.005874
1016.005874
1016.005874
1016.005874
1016.005874
1016.005874
1016.005874
1016.005874
1016.005874
1016.005874
1016.005874
1016.005874
1016.005874
1016.005874
1016.005874
1016.005874
1016.005874
1016.005874
1016.005874
1016.005874
1016.005874
1016.005874
1016.005874
971.800685
908.694863
821.673870
764.596462
692.414641
653.582811
603.718758
564.322472
518.323779
483.414531
447.357893
418.902636
387.290716
363.522768
338.127017
321.178436
302.518606
290.570855
277.451873
##ZVALUE=285
18.676519
18.485785
19.097924
19.324422
19.515753
20.958781
20.975471
22.405982
22.807717
23.609996
24.675727
25.792718
27.087927
27.681589
29.996634
30.945539
32.824874
34.867525
36.890507
41.061640
43.421984
50.713420
56.786537
69.052577
131.343603
821.983814
1016.005874
1016.005874
1016.005874
1016.005874
1016.005874
1016.005874
1016.005874
1016.005874
1016.005874
1016.005874
1016.005874
1016.005874
1016.005874
1016.005874
1016.005874
1016.005874
1016.005874
1016.005874
1016.005874
1016.005874
1016.005874
1016.005874
1016.005874
1016.005874
1016.005874
1016.005874
1016.005874
1016.005874
1016.005874
1016.005874
1016.005874
1016.005874
1016.005874
1016.005874
1016.005874
1016.005874
1016.005874
1016.005874
1016.005874
1016.005874
1016.005874
1016.005874
1016.005874
1016.005874
1016.005874
1016.005874
1016.005874
1016.005874
1016.005874
1016.005874
983.530879
898.339748
837.259889
763.313770
713.281631
651.283860
605.563521
559.270978
524.590015
482.643843
451.471806
419.473648
393.442512
362.179875
340.371728
316.057801
299.807787
284.382701
270.060897
259.617567
##ZVALUE=290
18.543601
18.875599
18.873811
19.301772
20.065904
20.475984
21.131635
21.981001
22.412539
23.584962
24.633408
24.753809
26.032925
26.601553
27.653575
29.692650
30.391812
32.679439
33.685565
36.096573
39.172769
42.491555
47.053695
51.805973
60.147643
67.554712
88.694692
241.403580
1016.004682
1016.004682
1016.004682
1016.004682
1016.004682
1016.004682
1016.004682
1016.004682
1016.004682
1016.004682
1016.004682
1016.004682
1016.004682
1016.004682
1016.004682
1016.004682
1016.004682
1012.778878
1016.004682
1016.004682
1016.004682
1016.004682
1016.004682
1016.004682
1016.004682
1016.004682
1016.004682
1016.004682
1016.004682
1016.004682
1016.004682
1016.004682
1016.004682
1016.004682
1016.004682
1016.004682
1016.004682
1016.004682
1016.004682
1016.004682
1016.004682
1016.004682
1016.004682
1016.004682
1016.004682
965.507627
907.308459
831.012726
776.883960
714.119673
664.152503
602.963567
563.704967
516.520739
484.263897
449.498892
423.273444
389.589667
367.342830
339.644551
320.961475
297.733545
282.006860
263.028741
250.996947
237.039924
229.525566
217.216611
##ZVALUE=295
18.236637
18.675923
18.764734
19.310713
19.474626
19.922853
20.956993
21.105409
21.441579
23.050904
23.452640
23.929477
25.006533
25.702715
26.402473
27.174950
28.272867
29.805899
31.290650
32.364726
35.210848
37.583709
41.135550
44.063926
49.771667
53.997636
59.402585
69.575906
79.157948
140.891671
549.774766
1016.005874
1016.005874
1016.005874
1016.005874
1016.005874
1016.005874
1016.005874
1016.005874
1016.005874
1016.005874
1016.005874
1016.005874
1016.005874
1016.005874
1016.005874
1016.005874
875.604749
780.168772
829.261541
876.538754
938.917994
981.997848
1016.005874
1016.005874
1016.005874
1016.005874
1016.005874
1016.005874
1016.005874
1007.869840
971.618891
946.295857
914.747715
884.962678
850.113034
831.672549
801.972747
781.839490
751.350522
732.272863
699.481964
670.581460
621.874928
586.892962
536.180735
499.584675
456.646681
426.159501
389.682651
365.912914
339.049697
319.520831
298.300982
283.489823
264.512897
251.159668
235.635638
224.259496
211.476684
203.520656
192.819834
185.454488
178.497434
171.993971
168.890953
##ZVALUE=300
17.400980
17.327666
17.734766
18.186569
18.788576
18.928647
19.634962
20.383000
20.309687
20.827651
21.736622
22.352934
22.603869
23.910999
24.516582
25.442839
26.349425
27.156472
28.429627
30.000806
30.983686
33.369660
35.578609
37.613511
41.178465
44.365525
49.474835
53.637624
61.480999
67.798495
79.513788
93.233585
306.415558
1005.892754
1016.005874
1016.005874
1016.005874
1016.005874
1016.005874
1016.005874
1016.005874
1016.005874
1016.005874
1016.005874
1016.005874
1016.005874
1016.005874
1016.005874
1016.005874
999.590755
502.232909
479.426980
492.889881
507.937670
527.976751
547.198057
567.080975
575.208664
577.595830
568.203926
549.125671
528.129935
497.781038
474.751592
446.957946
430.851579
414.198637
406.808853
400.079489
397.585630
392.642617
384.678841
367.617011
348.964930
322.790742
300.570726
274.522901
253.356695
231.256485
218.080878
202.503800
194.664001
182.947516
176.494718
166.857839
159.039497
154.336691
148.965716
144.086480
139.700770
135.689974
132.378936
129.172802
127.526522
124.776959
125.216842
##ZVALUE=305
16.551614
16.348958
16.622543
17.171502
17.583966
17.966628
18.394589
18.470883
19.274950
19.726753
20.604730
20.881891
21.698475
21.727681
22.155643
23.134947
23.932457
24.714470
25.512576
27.192831
28.268695
29.248595
31.448603
33.207536
35.779476
37.751794
41.210651
44.189692
48.319697
53.637624
58.529973
68.493485
76.815486
93.512535
137.198567
832.611918
1015.991569
1015.991569
1015.991569
1015.991569
1015.991569
1015.991569
1015.991569
1015.991569
1015.991569
1015.991569
1015.991569
1015.991569
1015.991569
1015.991569
1015.991569
1015.991569
519.941449
293.559432
285.183787
283.030868
287.097692
296.788812
307.320952
317.004919
322.678685
320.147872
313.148499
294.186473
277.102590
254.746675
242.216587
232.197642
227.946639
228.297710
229.494572
228.882432
222.496986
208.624005
195.650458
176.104903
162.047744
146.907568
138.150454
128.662586
122.434497
118.036866
114.550591
110.879540
109.519958
105.975866
103.764534
101.611614
101.026893
99.722743
98.710656
97.633600
96.822977
97.673535
97.390413
97.453594
##ZVALUE=310
15.232563
15.077591
15.257597
16.227961
16.035438
16.774535
17.055869
17.213821
17.960668
18.500686
19.310713
19.167662
19.903779
19.911528
20.757914
21.494627
22.049546
22.396445
23.122430
24.245977
25.512576
26.499629
28.072000
29.447675
30.732751
33.394694
35.064816
37.419796
40.500760
43.960810
47.852993
53.930879
58.575869
67.594647
75.672865
89.876652
105.080605
342.245102
1016.005874
1016.005874
1016.005874
1016.005874
1016.005874
1016.005874
1016.005874
1016.005874
1016.005874
1016.005874
1016.005874
1016.005874
1016.005874
1016.005874
1016.005874
1016.005874
909.193754
238.257647
198.572874
186.629891
182.907581
184.232593
189.301968
201.074481
207.587481
215.713978
218.147635
215.049982
209.151506
198.455453
191.212893
184.674859
179.115534
171.947479
165.509582
151.781440
140.898824
124.174953
113.701820
102.474689
95.857978
90.307593
87.670684
84.810853
84.181428
82.613826
82.262754
80.220699
80.484748
79.841614
79.387426
79.369545
79.147816
78.926682
79.656839
79.625845
80.258846
80.302954
##ZVALUE=315
14.395714
14.089942
14.778972
15.106797
15.047789
15.763640
15.909672
16.275644
16.705990
17.191768
17.170906
17.669797
17.773509
18.556714
19.146800
19.237995
20.263791
20.565987
21.282434
22.186637
22.962689
23.448467
25.024414
26.115775
28.062463
28.867722
30.661821
33.265948
34.663677
37.586689
40.201545
44.134855
47.789812
53.879619
58.604479
67.013502
74.300766
87.745786
99.593997
161.792040
594.148636
1016.005874
1016.005874
1016.005874
1016.005874
1016.005874
1016.005874
1016.005874
1016.005874
1016.005874
1016.005874
1016.005874
1016.005874
1016.005874
1016.005874
1016.005874
1016.005874
340.994596
181.659460
159.237981
151.207447
145.862699
147.002935
155.059695
164.483786
177.997947
190.015435
200.332999
205.538869
206.226707
200.374722
185.974836
171.808004
148.923993
131.761432
112.747550
100.579858
89.007616
83.653927
78.475475
76.072812
73.875785
73.838830
72.931647
72.292686
72.203875
72.225928
71.917772
71.985722
71.534514
71.562529
71.656704
71.856976
71.616769
71.938634
72.839856
##ZVALUE=320
13.514757
13.350844
13.541579
13.869405
14.180541
14.566779
14.993548
15.160441
15.558600
15.531778
16.039610
16.340613
16.507506
17.180443
17.655492
18.086433
18.472672
18.834472
19.175410
20.010471
20.863414
21.611452
22.417903
23.162961
24.651885
25.775433
27.085543
29.214621
30.054450
32.207966
34.057498
37.108660
39.853454
44.288635
47.696829
52.886605
57.571530
65.755844
72.134733
82.473755
92.737675
114.927292
246.105790
1016.005874
1016.005874
1016.005874
1016.005874
1016.005874
1016.005874
1016.005874
1016.005874
1016.005874
1016.005874
1016.005874
1016.005874
1016.005874
1016.005874
1016.005874
1016.005874
745.433569
220.775008
153.257847
141.690969
133.213997
130.578876
135.966539
145.318508
165.224671
182.020664
202.736855
212.101936
212.472677
203.383565
179.402828
157.250762
128.988624
109.972954
91.800690
83.193779
76.096654
73.439479
71.159601
70.492625
69.503784
69.351792
69.111586
68.791509
68.886876
69.038868
68.733692
68.977475
68.687797
68.711638
68.852901
69.668889
70.026517
##ZVALUE=325
12.867451
12.636781
12.723804
13.160706
13.222694
13.452768
13.541579
13.967752
14.444590
14.451742
14.945865
15.297532
16.178489
15.976429
16.135573
16.396642
16.799569
17.244816
17.872453
18.388629
18.548965
19.502640
20.728707
21.012425
22.235513
23.548603
24.314523
25.177598
26.887655
28.628707
29.480457
31.889677
33.982992
37.403703
39.852858
43.840408
46.990514
52.550435
56.442618
63.280463
69.077611
78.728795
87.306499
102.812648
149.269104
860.517025
1016.005874
1016.005874
1016.005874
1016.005874
1016.005874
1016.005874
1016.005874
1016.005874
1016.005874
1016.005874
1016.005874
1016.005874
1016.005874
1016.005874
1016.005874
994.969010
325.728655
155.846477
141.706467
132.027864
130.356550
136.558414
147.268772
166.041851
180.972815
193.302631
199.728608
194.580555
183.425546
162.124634
142.812729
120.647550
103.798509
88.341832
80.721974
73.246956
70.895553
68.935752
67.915916
68.031549
67.659616
67.640543
67.359805
67.459941
67.476630
67.674518
68.009496
68.386793
68.431497
69.579482
##ZVALUE=330
11.855960
11.935830
11.963844
11.850595
12.212992
12.535453
12.859702
12.934804
13.249516
13.617873
13.892651
13.989806
14.352798
14.491677
15.150905
15.311837
15.781522
15.977621
16.394854
16.812682
17.077923
17.857552
18.208623
19.379854
20.039678
20.772815
21.730661
22.917986
23.899674
25.340915
26.400685
27.771592
29.944777
31.773448
34.648776
36.658645
40.040612
42.917728
46.871901
50.249696
54.368973
60.276985
66.422820
73.693991
81.924796
94.987750
110.735893
340.668559
1016.005874
1016.005874
1016.005874
1016.005874
1016.005874
1016.005874
1016.005874
1016.005874
1016.005874
1016.005874
1016.005874
1016.005874
1016.005874
1016.005874
1016.005874
1016.005874
541.809797
183.194876
147.560835
142.075419
141.885877
145.887733
152.424574
157.043934
163.489580
165.308714
165.228844
162.466764
155.519843
148.292780
134.285688
122.831464
106.605887
95.505714
84.514618
77.645779
71.920753
69.920421
67.544580
67.366958
66.483617
66.945553
67.555904
67.156553
67.977905
67.932606
69.667697
69.904923
##ZVALUE=335
11.014938
11.109710
11.260509
11.300445
11.559725
11.852980
11.803508
11.874437
12.421608
12.547970
12.938976
13.049841
13.391972
13.644695
13.860464
13.911724
14.506578
14.589429
15.056729
15.542507
15.805960
16.377568
16.813874
17.447472
18.451810
19.010901
19.791722
20.489693
21.586418
22.702813
23.341775
25.004745
26.499629
28.268695
30.295849
31.801462
34.083724
36.930442
39.387941
42.314529
45.023561
49.089789
52.643418
57.458878
62.627792
70.286989
76.590776
86.666942
97.211599
168.885589
608.129501
1016.005874
1016.005874
1016.005874
1016.005874
1016.005874
1016.005874
1016.005874
1016.005874
1016.005874
1016.005874
1016.005874
1016.005874
1016.005874
1016.005874
1016.005874
1016.005874
230.793953
162.338614
155.464411
152.090788
148.476958
143.457651
135.308504
130.488873
127.024651
127.428770
131.324530
134.409666
135.600567
132.965446
125.261545
115.630627
103.068948
93.963742
82.732439
77.289939
71.130991
69.586635
68.040490
66.857934
67.433715
67.863464
68.958998
69.843531
70.988536
##ZVALUE=340
10.536909
10.656714
10.811687
10.968447
10.973811
11.379719
11.255741
11.434555
11.606812
11.994839
12.340546
12.287498
12.656450
12.730956
12.985468
13.152957
13.594627
13.409853
13.964772
14.440417
14.598966
15.330911
15.483499
16.428828
16.973615
17.693639
17.937422
18.669963
19.559860
20.531416
21.376610
22.622943
23.829937
25.501847
26.812553
28.719902
29.947758
31.893849
34.033656
36.455989
38.427711
41.188002
43.772459
47.203898
50.101876
55.734515
58.977604
66.030622
72.034597
80.356598
89.151859
114.814639
277.811885
1016.005874
1016.005874
1016.005874
1016.005874
1016.005874
1016.005874
1016.005874
1016.005874
1016.005874
1016.005874
1016.005874
1016.005874
1016.005874
1016.005874
1016.005874
1016.005874
370.315909
187.049508
169.190764
159.568787
142.552853
127.941966
112.414956
104.493499
101.812482
104.283690
111.551881
118.300915
125.483871
128.220916
125.652552
121.337771
112.217665
103.829503
93.069673
85.609555
77.655911
73.517561
70.570707
70.524812
71.132779
71.577430
73.616505
##ZVALUE=345
10.682940
10.783672
10.682940
10.879636
11.147857
11.255741
11.409521
11.534691
11.451840
12.097955
11.899471
12.515783
12.261868
12.679696
12.877584
13.039708
12.989640
13.256669
13.635755
13.881922
14.338493
14.645457
15.170574
16.038418
15.949607
16.488433
17.204881
17.847419
18.498898
19.053817
19.936562
20.944476
21.647811
23.222566
24.244785
25.896430
26.998520
28.530955
30.228496
32.166839
33.586621
35.878420
37.373900
40.260553
42.146444
45.730472
49.013495
52.586794
56.457520
61.482787
67.094564
74.992776
82.374811
96.434355
144.046545
845.480561
1016.005874
1016.005874
1016.005874
1016.005874
1016.005874
1016.005874
1016.005874
1016.005874
1016.005874
1016.005874
1016.005874
1016.005874
1016.005874
1016.005874
1016.005874
767.834783
260.103941
189.017653
166.784525
136.916637
118.062496
101.028681
93.255639
89.903474
92.025995
99.505782
105.217695
113.950968
119.767785
124.306679
124.819875
119.950771
114.548802
104.848742
97.770691
87.541938
83.258748
79.224706
78.178644
78.128576
##ZVALUE=350
11.622906
11.658669
11.806488
11.878610
11.869669
12.425780
12.565851
12.409687
12.720823
12.999773
13.137460
13.321638
13.342500
13.644695
13.822913
13.880730
14.053583
14.299750
14.388561
14.746785
14.904737
15.435815
15.607476
16.035438
16.699433
17.185807
17.444491
18.325448
18.565655
19.504428
19.992590
21.014810
21.581650
23.038983
23.495555
24.644732
25.879741
27.178526
28.396845
30.177832
31.462908
32.850504
34.395456
35.936832
38.122535
40.402412
42.594671
45.284629
48.140883
51.579475
55.067539
60.182810
64.244866
71.930885
79.043508
89.913607
109.095573
413.418412
1016.005874
1016.005874
1016.005874
1016.005874
1016.005874
1016.005874
1016.005874
1016.005874
1016.005874
1016.005874
1016.005874
1016.005874
1016.005874
1016.005874
1016.005874
957.084298
309.845805
162.088871
137.669444
115.749836
104.192495
93.614459
90.137720
87.263584
88.253617
92.406869
96.497536
104.996562
111.345649
119.134784
122.678876
124.728680
122.402906
116.283894
110.053420
101.975799
97.549558
92.552900
##ZVALUE=355
12.850761
12.991428
12.958646
13.271570
13.340712
13.449788
13.676882
13.914704
13.875961
14.110804
14.350414
14.852881
14.779568
14.766455
15.146732
15.325546
15.625954
15.967488
15.985966
16.274452
16.507506
17.351508
17.180443
17.810464
18.296838
18.917918
19.311905
19.520521
20.352602
20.945668
21.493435
22.167563
22.953749
23.843646
24.556518
25.693774
26.694536
27.593970
29.161572
29.785633
31.048656
32.404661
33.553839
35.276413
36.751628
38.591623
40.250421
42.687654
44.594407
47.034621
49.862862
53.010583
57.228804
60.272813
66.158772
70.980787
78.531504
86.606741
101.819634
158.057809
859.996676
1016.005874
1016.005874
1016.005874
1016.005874
1016.005874
1016.005874
1016.005874
1016.005874
1016.005874
1016.005874
1016.005874
1016.005874
1016.005874
1016.005874
1016.005874
471.632481
171.822906
131.755471
119.406581
106.596947
99.636912
94.343424
91.434717
89.430809
89.551806
93.314648
97.228885
104.293823
111.535788
118.617415
123.550892
125.911832
125.486851
121.227503
117.314458
##ZVALUE=360
13.490915
13.481975
13.723969
13.952851
13.942719
14.145970
14.346838
14.454722
14.698505
15.048981
15.190840
15.331507
15.393496
16.082525
15.811920
15.857816
16.359687
16.709566
17.169714
17.090440
17.675757
17.816424
18.167496
18.767715
19.433498
19.597411
19.978881
20.459890
21.475554
21.905899
22.588968
23.426414
23.664832
25.077462
25.805831
26.861429
27.557611
28.593540
29.467940
30.516982
31.412840
32.873750
33.750534
35.041571
36.297441
37.808418
38.693547
40.674806
42.240620
44.375658
46.501756
49.791932
52.020550
55.274963
58.124661
62.636733
66.054463
72.503686
79.475641
90.753436
101.051927
131.784678
310.485959
1016.005874
1016.005874
1016.005874
1016.005874
1016.005874
1016.005874
1016.005874
1016.005874
1016.005874
1016.005874
1016.005874
1016.005874
1016.005874
1016.005874
1016.005874
955.227613
206.104517
140.974522
121.544003
111.622810
102.621913
97.290874
91.955662
88.695884
86.963773
87.023973
89.858770
93.267560
100.358725
107.165575
114.872456
119.540691
124.097466
##ZVALUE=365
13.302565
13.277531
13.429523
13.555884
13.594627
14.076829
14.100671
14.114976
14.499426
14.604926
14.987588
15.105605
15.218854
15.250444
15.480518
15.758872
15.781522
16.238689
16.027689
16.550422
16.818643
17.497540
17.739534
17.971992
18.559694
18.632412
18.954873
19.810796
20.265579
20.487905
21.026731
21.964908
22.748709
23.195744
24.190545
25.176406
25.767684
26.514530
27.293563
28.418899
29.387474
30.225515
30.768514
32.052994
32.812953
34.241676
34.781694
36.100745
37.306547
38.786530
40.574670
42.089820
43.725967
46.355724
48.472881
51.649809
54.382682
58.214664
62.149763
69.362521
75.628757
86.969733
96.396804
111.140609
156.861544
802.699924
1016.005874
1016.005874
1016.005874
1016.005874
1016.005874
1016.005874
1016.005874
1016.005874
1016.005874
1016.005874
1016.005874
1016.005874
1016.005874
1016.005874
1016.005874
335.283875
142.111778
116.133690
106.743574
98.127723
92.456937
87.572932
84.229708
82.335472
80.791712
81.154704
82.621574
87.218881
92.220902
100.197792
##ZVALUE=370
12.459755
12.224913
12.552738
12.656450
12.811422
12.693405
12.907982
12.940764
13.263822
13.373494
13.325810
13.283491
13.545752
13.784766
13.897419
13.893843
14.272928
14.379621
14.700890
14.947653
15.106797
15.008450
15.601516
15.764832
16.281605
16.355515
16.868711
17.031431
17.424822
17.695427
18.481612
18.955469
19.482970
20.326972
20.849705
21.444559
22.273660
23.037791
23.687482
24.545789
25.151968
25.748610
26.455522
27.641654
27.711987
28.664470
29.293895
30.204654
30.626655
31.973720
33.048987
34.099817
35.153627
36.849976
38.041472
40.309429
42.431951
44.683814
47.219992
50.810575
54.730773
61.003566
66.593885
74.144602
81.192851
94.668865
114.948750
404.987931
1016.013622
1016.013622
1016.013622
1016.013622
1016.013622
1016.013622
1016.013622
1016.013622
1016.013622
1016.013622
1016.013622
1016.013622
1016.013622
1016.013622
1016.013622
814.504027
217.216611
113.993883
103.637576
94.556808
89.513659
83.456635
80.985427
77.942610
76.263547
76.021552
76.811910
79.846978
##ZVALUE=375
10.716915
10.659695
10.844469
10.739565
10.847449
10.882616
11.135936
11.075735
11.034608
11.255741
11.398792
11.318922
11.414886
11.775494
11.772513
11.885762
11.996627
11.722445
12.149811
12.323856
12.419820
12.625456
12.856722
13.121963
13.359785
13.581514
13.834834
14.291406
14.272928
14.830828
15.290976
16.083717
16.018748
16.840696
17.329454
17.946959
18.449426
19.362569
19.932985
20.449758
20.857453
21.615624
21.935701
22.823811
23.236871
23.721457
23.967624
25.057793
25.740862
26.353598
27.242899
28.145909
28.929710
29.842854
31.222701
32.523870
33.822656
35.596490
37.138462
39.202571
41.707754
45.153499
48.593879
53.425431
58.195591
67.122579
75.678825
90.991855
106.398463
205.391645
730.788708
1016.005874
1016.005874
1016.005874
1016.005874
1016.005874
1016.005874
1016.005874
1016.005874
1016.005874
1016.005874
1016.005874
1016.005874
1016.005874
1016.005874
1016.005874
496.117473
134.733915
106.803775
95.443726
89.362860
83.417892
80.050826
77.271461
75.438619
74.170828
##ZVALUE=380
8.911490
8.962750
8.771420
9.110570
9.197593
9.197593
9.431839
9.465814
9.572506
9.709597
9.426475
9.682775
9.776950
9.846687
9.859800
9.912848
10.125637
10.087490
10.138750
10.551810
10.549426
10.776520
10.769963
11.229515
11.500716
11.625886
11.834502
12.150407
12.460947
12.970567
13.245940
13.581514
14.080405
14.691949
15.243888
15.839934
16.249418
16.860962
17.263889
18.048882
18.293858
19.239783
19.563437
19.852519
20.554662
20.864606
21.579862
22.020936
22.454858
23.539662
23.941994
25.175810
25.537610
26.285648
27.197599
28.166771
29.218793
30.776858
31.569600
33.680797
35.218596
37.770867
40.111542
44.206977
48.104525
55.685639
62.137842
72.868466
82.273483
96.376538
106.392503
134.403706
357.198715
1016.065478
1016.065478
1016.065478
1016.065478
1016.065478
1016.065478
1016.065478
1016.065478
1016.065478
1016.065478
1016.065478
1016.065478
1016.065478
1016.065478
1016.065478
951.885581
201.606750
109.948516
95.186830
88.880658
81.963539
78.667998
75.141788
##ZVALUE=385
7.658601
7.426739
7.830858
7.723570
7.930994
7.873774
7.987618
8.081794
8.284450
8.087754
8.282661
8.319616
8.222461
8.470416
8.557439
8.660555
8.778572
8.837581
9.023547
9.237528
9.460449
9.394884
9.535551
9.938478
10.069609
10.477901
10.606647
11.030436
11.266470
11.868477
11.941791
12.459755
12.772679
13.228655
14.051795
14.493465
15.164614
15.680790
16.023517
16.839504
17.324686
17.578602
18.008947
18.763542
19.127727
19.748807
20.228624
21.002889
21.158457
21.932721
22.331476
23.117661
23.793578
24.660826
25.100708
26.060939
26.883483
27.877688
28.667450
30.287504
31.218529
33.407807
36.021471
39.126873
42.852759
49.631596
55.528879
63.472986
69.761872
77.292919
81.075430
85.547566
88.874698
96.729398
165.792704
907.578468
1016.005874
1016.005874
1016.005874
1016.005874
1016.005874
1016.005874
1016.005874
1016.005874
1016.005874
1016.005874
1016.005874
1016.005874
1016.005874
1016.005874
1016.005874
402.541757
131.369829
97.185969
89.409947
82.057714
##ZVALUE=390
7.125735
7.353425
7.098913
7.255673
7.305741
7.494688
7.457733
7.643700
7.763505
7.678866
8.020997
7.985830
8.196831
7.962584
8.187890
8.146763
8.325577
8.611679
8.610487
8.623600
8.838773
8.976460
9.280443
9.469986
9.722710
9.912848
10.174513
10.249615
10.852814
11.286736
11.647940
11.963844
12.426972
12.938976
13.623834
14.107823
14.821887
15.165806
15.625954
16.481876
17.061830
17.639995
18.084645
18.798709
19.375682
19.893646
20.468831
20.696521
21.257997
22.151470
22.234917
22.934675
23.732781
23.947954
24.991632
25.515556
26.184916
26.891828
27.778745
29.176474
29.957891
31.960607
33.699870
37.595630
40.929914
47.081709
53.294897
60.768723
66.168904
71.049929
73.388815
73.714852
73.649883
74.457526
76.056719
83.194971
104.329586
473.514795
1016.005874
1016.005874
1016.005874
1016.005874
1016.005874
1016.005874
1016.005874
1016.005874
1016.005874
1016.005874
1016.005874
1016.005874
1016.005874
1016.005874
1016.005874
955.619812
270.474553
103.743672
##ZVALUE=395
6.941557
7.026792
6.858706
7.056594
7.146597
7.334948
7.400513
7.582903
7.640719
7.533431
7.654428
7.867813
7.876754
7.917881
7.960796
8.074641
8.177757
8.027554
8.538961
8.511543
8.450747
8.934736
8.919835
9.078979
9.634495
9.657741
9.938478
10.223985
10.446906
10.825992
11.474490
11.528730
12.370944
12.761950
13.340712
14.160872
14.742613
15.402436
16.035438
16.646981
17.280579
17.818809
18.474460
19.319654
19.543767
20.279884
20.800829
21.130443
21.726489
22.314787
22.525787
23.177862
23.728609
24.383664
24.951696
25.350451
25.905967
26.793480
27.665496
28.413534
29.376745
31.167865
33.213496
36.410689
40.350556
46.055913
51.079988
57.080984
60.866475
63.857436
64.775944
63.972473
62.732697
60.778856
61.812997
64.656734
69.051981
76.884627
88.248849
249.030590
922.666788
1016.005874
1016.005874
1016.005874
1016.005874
1016.005874
1016.005874
1016.005874
1016.005874
1016.005874
1016.005874
1016.005874
1016.005874
1016.005874
1016.005874
1016.005874
##ZVALUE=400
6.841421
6.706715
6.714463
6.914735
7.003546
6.973743
7.098913
7.250905
7.377863
7.513762
7.411838
7.677674
7.616878
7.716417
7.729530
7.664561
7.821918
8.049607
8.094907
8.337498
8.488894
8.377433
8.790493
8.974671
9.091496
9.498000
9.935498
10.320544
10.495782
10.572672
10.943413
11.589527
11.740923
12.728572
13.002753
14.064908
14.661551
15.576482
15.986562
16.896725
17.420650
18.100739
18.539429
19.498467
19.748807
20.516515
20.872951
21.673441
21.492839
22.602677
22.639632
23.462772
23.822784
24.459958
24.548769
25.250912
25.899410
26.411414
26.789904
27.810931
28.989911
30.819774
33.004880
36.508441
40.083528
45.162439
49.626827
54.652691
57.189465
58.750510
58.123469
56.575537
54.706931
52.535534
52.085519
53.709745
55.969954
60.454607
65.555573
74.115992
82.223415
135.282874
483.334661
1016.005874
1016.005874
1016.005874
1016.005874
1016.005874
1016.005874
1016.005874
1016.005874
1016.005874
1016.005874
1016.005874
1016.005874
1016.005874
##END
