##TITLE=C5102_R4
##FORMAT=SPECTACLE-ASCII V-1.2
##DATA TYPE=ULTRAVIOLET SPECTRUM
##SECOND TYPE=ULTRAVIOLET SPECTRUM
##DATE=05/28/18
##TIME=12:49:51
##SPECTROMETER/DATA SYSTEM=SPECTACLE
##XUNITS=NM EM
##YUNITS=ENERGY
##YFACTOR=1
##FIRSTX=220
##LASTX=410
##NPOINTS=96
##3DDATA=Equidistant
##ZUNITS=NM EX
##FIRSTZ=210
##LASTZ=400
##ZPOINTS=39
##XYDATA=(Y..Y)
##ZVALUE=210
49.083829
50.333738
36.982894
29.901862
25.831461
22.901893
21.028519
16.097426
14.043450
9.708405
8.907914
6.981492
6.830692
6.917715
7.564425
7.681847
7.683635
7.473826
8.603930
9.349585
8.960962
10.411739
13.481975
15.122890
15.693903
19.679666
22.163987
24.277568
27.417541
27.882457
31.505823
33.244491
34.276843
35.188794
36.104918
36.428571
35.760999
37.644506
34.819841
37.222505
35.347939
37.162900
36.718845
36.402941
34.418702
34.454465
32.793880
35.548806
34.827590
34.467578
33.553839
34.599900
31.667948
33.849478
30.706525
32.666922
32.566786
31.544566
31.712651
32.419562
31.554699
31.964779
32.396913
32.339692
38.274527
40.371418
43.917894
55.556893
67.025423
79.932809
89.978576
98.380446
101.209879
101.572871
100.067854
95.773935
87.834001
82.124472
72.590709
63.834786
53.465962
46.578646
42.899847
35.995841
32.193661
29.646754
28.927922
27.643442
32.186508
35.769939
45.007467
60.282946
83.985925
107.392669
140.134692
176.103711
##ZVALUE=215
173.504949
162.254572
132.504702
89.251995
66.384673
48.458576
43.276548
35.442710
32.383800
30.661821
24.061799
18.107891
13.378859
11.266470
9.425879
7.447600
8.099675
8.707643
8.720756
8.601546
10.027885
12.011528
11.752844
14.326572
16.165972
19.583702
21.158457
23.875833
25.925636
29.840469
31.279922
30.689836
35.442710
37.952662
37.908554
35.776496
38.076639
38.721561
39.395690
38.356781
38.171411
39.009452
38.034916
38.295984
37.996769
40.119886
36.995411
38.263798
36.365986
38.355589
37.474632
38.987994
38.018823
36.832690
35.567880
37.057996
35.143495
36.623478
35.314560
34.685731
33.153892
33.117533
33.898950
34.228563
35.702586
39.691925
44.774413
49.848557
57.919621
69.563985
74.909925
80.910921
83.196759
82.447529
82.376599
75.203776
66.586733
63.390732
57.040453
50.244927
43.865442
38.666725
32.953620
31.452775
28.721690
26.125908
26.109815
26.791692
25.270581
25.100708
23.099780
25.604963
26.075840
30.521750
39.684772
56.733489
##ZVALUE=220
378.311872
372.976661
354.110599
297.471881
230.602622
158.535838
117.427707
76.379776
63.881874
54.543614
49.068928
44.411421
36.020875
32.399893
24.726987
18.671751
12.732744
10.601878
9.273887
8.797646
8.656979
9.312630
9.467602
11.521578
12.029409
14.774799
16.580820
17.393827
21.017790
22.593737
25.827885
26.041865
27.509928
27.904510
31.967759
32.943487
34.474730
36.900640
38.135648
38.408637
39.488673
40.148497
39.572716
41.402578
39.961934
40.406585
39.012432
40.868521
39.865971
40.493608
40.792823
39.150715
38.868785
37.772655
40.081739
39.275885
37.923455
36.005974
37.448406
34.079552
34.878850
36.790967
34.357905
32.773614
35.678744
36.553741
38.892627
44.255853
51.300526
55.416822
61.769485
64.481497
68.033934
65.446496
64.274669
64.249635
55.076480
53.234696
45.905709
41.127801
35.007000
31.874776
30.239820
26.767850
25.884509
23.246408
23.192763
22.933483
22.018552
21.807551
21.690726
21.689534
20.720959
21.181703
20.368695
21.424890
##ZVALUE=225
435.727835
449.007750
526.327491
572.059751
550.857782
474.738479
404.736996
269.654989
193.150640
131.930709
82.584620
70.855618
68.245530
67.578554
57.215691
52.044988
38.769841
30.084848
21.695495
15.941858
12.430549
8.845925
8.811951
10.516644
11.051893
11.530519
12.411475
13.556480
14.740825
16.246438
17.450452
18.887520
21.779537
22.184849
25.106668
27.083755
30.480623
33.817887
34.218431
37.832856
38.338900
37.617683
39.686561
39.952993
39.496422
41.723847
40.920973
39.102435
40.669441
38.284659
40.142536
39.345622
38.570762
39.989948
39.039850
38.678646
36.444664
37.439466
36.832690
36.578774
35.151839
35.665631
35.123825
34.368634
33.308864
34.793615
37.752986
42.170882
44.518709
49.232841
51.882863
56.838989
56.448579
55.701733
56.986809
51.892996
49.692988
42.169690
39.673448
33.726692
31.809807
27.780533
26.903749
24.460554
23.050904
22.361875
20.937920
21.676421
21.589994
21.760464
21.440983
21.248460
20.433664
20.695925
21.096468
19.663572
##ZVALUE=230
241.939425
265.433788
395.311713
593.168736
731.903911
838.006735
841.462016
756.133795
643.356442
500.718951
303.355455
198.799968
118.844509
93.697906
87.548494
84.358454
82.790852
76.028705
66.457987
48.845410
37.625432
23.549795
17.760992
11.666417
10.676980
9.898543
10.196567
11.342764
11.877418
12.857914
14.326572
14.854670
15.573502
19.174814
19.950867
23.219585
25.311708
27.324557
30.063987
32.239556
33.214688
35.212636
37.633777
36.843419
38.160682
38.676858
38.177967
37.570000
39.355755
37.798882
37.256479
37.665963
35.706758
35.975575
35.739541
35.741925
34.446716
33.915639
34.233928
34.762621
33.629537
33.088923
32.708645
32.708645
33.540726
34.450889
36.016703
39.527416
42.303801
49.436688
50.067902
54.451823
55.156946
53.005815
52.844882
48.439503
44.820905
37.922859
37.200451
33.653975
30.446649
27.494431
26.329756
25.033951
24.216771
23.136735
23.021698
22.636652
22.238493
21.749735
22.082925
20.891428
21.427870
21.417737
19.528866
20.419955
##ZVALUE=235
47.598481
56.970716
119.129419
282.453895
444.399714
695.890784
889.024734
1015.870571
1015.870571
1015.870571
923.013091
714.280009
449.138880
301.332474
182.102919
126.082897
99.715590
101.752877
105.752945
102.007985
91.614723
74.032545
57.084560
38.433671
27.034879
18.094778
12.955666
10.981560
10.694861
12.034774
11.462569
12.007952
12.922883
14.508963
16.012788
18.133521
21.282434
23.131967
26.335716
29.600859
30.273795
32.054782
34.624934
35.077929
36.248565
36.246777
36.907792
35.333633
35.973787
36.228895
35.950541
35.815835
33.014417
34.120679
34.457445
33.450723
32.752752
32.436848
31.150579
32.228827
30.834675
31.213760
30.672550
31.288862
31.822920
33.072829
34.796596
40.410757
43.842793
48.778653
53.027868
56.667924
57.445765
56.868792
53.078532
48.083663
44.006705
40.091872
36.512613
32.608509
30.628443
27.235746
27.797818
24.941564
25.081635
23.538470
24.308562
23.917556
22.521615
22.276640
23.234487
21.787882
22.359490
21.408796
21.940470
22.739768
##ZVALUE=240
3.023744
3.857613
11.152625
46.790838
109.227896
254.575610
428.673625
754.987001
1002.425551
1015.870571
1015.870571
1015.870571
1015.870571
989.985466
682.649016
457.554460
248.563886
166.346431
121.654868
106.444955
116.216540
114.256740
109.990835
95.554590
78.212619
56.538582
43.380857
28.251410
21.147728
14.496446
12.493730
11.581779
12.698770
12.621880
14.616847
15.321970
16.728640
17.677546
19.780993
21.627545
24.715662
25.458932
26.109815
26.507974
28.328896
27.784705
27.897954
28.222799
27.971864
27.650595
27.535558
28.099418
27.212501
26.410818
26.652813
26.726723
24.969578
24.590492
24.804473
24.898648
25.852919
24.248958
24.192929
25.176406
24.588704
27.622581
29.816628
32.759905
36.917925
40.528774
43.449998
47.684908
46.782494
46.127439
44.529438
40.225983
37.112832
32.759905
30.233860
28.082728
25.062561
23.671985
22.387505
21.847486
20.323992
19.624829
21.027923
20.351410
20.504594
19.760728
19.677877
20.345449
19.454956
18.132925
19.487739
18.798709
##ZVALUE=245
2.180934
2.510548
2.511740
2.719760
5.054474
26.756525
74.527860
205.714703
377.227664
685.599446
967.735648
1015.870571
1015.870571
1015.870571
1015.870571
1015.870571
945.225954
609.852672
398.351550
206.015706
132.078528
101.919770
107.445717
116.922855
119.166970
114.616752
100.146532
86.897612
62.087774
48.230886
33.002496
24.297833
16.885996
13.364553
13.076663
12.267828
13.588667
14.052987
14.970899
16.252995
16.764998
17.571449
17.529726
18.144846
18.334985
19.234419
18.758774
18.800497
18.947721
18.377900
18.296838
18.081665
18.139482
17.852783
18.191934
17.498732
16.918778
17.467737
17.276406
16.854405
17.255545
16.891956
17.191768
16.455650
17.298460
17.334819
18.442869
19.659996
22.157431
23.717880
26.164651
26.469827
28.747916
27.228594
25.926828
25.513768
22.489429
20.995736
18.858910
17.154813
16.384721
14.995933
15.174747
13.972521
13.737679
13.756752
14.260411
13.891459
12.930632
12.767911
12.606978
12.579560
13.357997
12.618899
12.568831
12.727976
##ZVALUE=250
1.742840
1.628995
1.762509
2.013445
2.118945
2.439618
3.990531
13.215542
59.958696
138.011575
348.219872
585.675836
866.274834
1015.768647
1015.768647
1015.768647
1015.768647
1015.768647
1015.768647
831.961036
551.297665
338.989496
161.079764
105.448961
94.978809
106.756687
119.451880
124.717951
117.750764
106.571913
93.199611
69.263577
53.594708
34.612417
25.162697
17.676950
15.030503
13.453960
13.907552
13.857484
14.048815
14.223456
14.187694
13.794899
14.475584
14.761686
13.994575
14.751554
15.368462
14.518499
15.035868
13.807416
14.624000
14.184713
14.114976
13.378859
13.605952
13.350844
13.171434
13.271570
13.316870
13.432503
13.100505
13.196468
13.103485
13.448000
14.487505
14.922619
15.544891
16.836524
18.036962
18.927455
20.187497
18.742681
19.385815
18.263459
16.819835
15.906692
14.044642
13.070703
12.312531
10.814667
11.080503
11.036992
10.738969
9.999871
10.313988
10.520816
10.126829
10.159612
10.274649
10.528564
10.344982
9.938478
9.643435
10.215640
##ZVALUE=255
1.461506
1.640916
1.594424
1.795888
1.635551
1.852512
2.376437
2.071857
2.823472
6.084442
37.481785
96.467733
210.821033
467.549562
744.887590
1015.707850
1015.707850
1015.707850
1015.707850
1015.707850
1015.707850
1015.707850
742.971897
463.511944
217.812657
131.500959
88.615417
88.102818
107.843876
119.608641
127.649903
122.565627
112.664700
93.469620
76.407790
53.016543
38.777590
25.934577
20.402670
15.974641
15.393496
15.307665
15.560985
14.951825
15.215874
14.849901
15.003681
15.690923
14.678836
14.614463
15.237927
14.675856
14.517903
14.347434
13.344884
13.639927
13.243556
13.450980
12.879968
13.019443
12.557507
12.249947
12.488961
12.157559
12.569427
12.434721
12.864470
13.710856
14.624596
14.983416
16.036630
16.643405
16.980767
16.427636
15.959740
15.173554
13.986826
13.177991
12.785792
11.361837
10.390878
10.104775
9.686947
9.447932
8.772612
8.927584
8.841753
8.918643
8.701682
8.915663
8.929968
8.751750
9.100437
9.151697
9.164810
9.261966
##ZVALUE=260
1.538992
1.613498
1.722574
1.508594
2.031922
1.917481
1.914501
1.948476
2.054572
2.439618
2.670884
3.553629
12.231469
59.096813
141.822696
359.694958
608.004928
994.634628
1015.870571
1015.870571
1015.870571
1015.870571
1015.870571
1015.870571
969.705582
663.769841
359.135866
203.798413
100.256801
79.277754
87.261796
108.497739
122.635961
132.728815
129.687786
116.857886
101.083517
77.550411
60.261488
41.697621
31.632781
23.458600
20.502806
18.357635
17.761588
17.893910
17.480850
17.571449
17.205477
17.192960
16.495585
16.680956
16.554594
16.003847
15.643835
15.249848
14.062524
13.921857
13.984442
14.363527
13.551712
12.945533
13.250709
13.227463
12.794733
12.783408
12.585521
12.991428
14.075637
14.691949
15.112758
15.340447
15.523434
15.177727
14.586449
13.639927
13.129711
12.475848
11.282563
10.334849
10.074973
9.656549
9.277463
9.025931
8.637905
8.325577
8.500814
8.252859
8.650422
8.044839
8.160472
8.228421
8.500814
8.451939
8.089542
8.284450
##ZVALUE=265
1.610518
1.542568
1.540780
1.561642
1.769662
1.795888
1.698732
1.866817
1.986623
1.873970
2.255440
2.440810
2.430677
2.852678
6.619692
36.790967
98.593831
267.024040
487.068892
944.435596
1015.870571
1015.870571
1015.870571
1015.870571
1015.870571
1015.870571
1015.870571
953.019857
518.001914
293.543935
156.420469
76.802969
71.436763
94.031692
112.639666
132.068992
135.405660
132.505894
122.619867
101.857781
83.666444
62.314868
47.303438
34.082532
27.805567
23.026466
21.269917
20.831823
20.451546
20.119548
19.922853
19.101501
18.507838
18.641949
18.290877
17.873645
17.130971
16.687512
15.993714
16.343594
15.788674
14.976859
14.736652
14.265776
14.572740
13.726950
14.503598
14.766455
14.751554
15.715957
15.642643
16.161799
16.213655
15.687943
15.375614
14.105439
13.648868
12.621880
11.419654
10.307431
10.074973
9.716749
9.460449
8.567572
8.378625
8.667707
8.878708
8.454919
8.518696
8.420944
8.402467
8.559823
8.363724
8.690953
8.137822
8.254647
##ZVALUE=270
1.344681
1.312494
1.421571
1.626611
1.570582
1.464486
1.589656
1.742840
1.750588
1.809597
1.964569
2.141595
2.204776
2.364516
2.602935
2.947450
3.783703
14.995933
49.465895
175.816417
369.666815
674.425960
1015.938520
1015.938520
1015.938520
1015.938520
1015.938520
1015.938520
1015.938520
1015.938520
898.239613
457.511544
243.426561
98.252892
65.125823
73.606968
92.067719
117.129683
130.204558
140.077472
138.401985
126.526952
109.912753
87.398887
69.889426
49.391985
39.809942
30.843616
27.261972
24.101734
23.609996
23.014545
22.106767
20.986795
21.847486
20.322800
19.833446
19.040704
18.141866
18.087626
17.528534
16.533732
16.755462
15.759468
15.188456
15.416741
15.506744
15.731454
15.248656
16.029477
16.511679
16.609430
16.490817
16.080737
15.490651
14.340878
13.453960
13.078451
12.122989
10.613799
10.376573
10.051727
9.219646
9.121895
9.136796
9.135604
8.681417
8.491874
8.026958
8.341670
8.399487
8.216500
8.606911
8.071661
8.678436
7.786751
##ZVALUE=275
1.279712
1.327991
1.291633
1.160502
1.471639
1.402497
1.559854
1.552701
1.607537
1.646876
1.957417
1.755953
1.950860
1.922846
2.272725
2.472997
2.527833
2.773404
3.321767
6.240606
27.731657
125.368834
279.858708
643.497705
996.367931
1015.870571
1015.870571
1015.870571
1015.870571
1015.870571
1015.870571
1015.870571
1015.870571
636.278987
361.230969
149.045587
76.669455
58.241487
71.813464
95.959902
112.818480
132.354498
139.282942
138.879418
130.235553
108.367801
91.074705
69.165826
54.692626
40.943623
33.354759
27.064681
24.953485
22.821426
22.596717
21.713972
21.121502
20.142794
20.021796
19.018650
18.675923
18.383861
17.680526
17.172694
16.622543
16.408563
16.709566
16.803741
16.532540
16.859770
16.760826
17.291903
16.973615
16.630888
15.714765
14.421940
13.900995
12.795925
12.205839
11.372566
10.948777
10.598898
9.916425
9.690523
9.189844
9.006858
8.959770
9.088516
8.669496
8.496642
8.144975
8.473992
8.358955
8.484721
8.729696
8.535981
##ZVALUE=280
1.277924
1.249909
1.152754
1.221895
1.395941
1.370907
1.381636
1.600981
1.728535
1.629591
1.563430
1.666546
1.869798
1.866817
1.919866
1.906753
2.113581
2.255440
2.459884
2.922416
3.047585
3.836751
19.370914
78.856945
274.775624
516.880751
965.719819
1015.871763
1015.871763
1015.871763
1015.871763
1015.871763
1015.871763
1015.871763
1015.871763
850.403905
509.341955
220.304728
105.680823
51.862597
53.941607
73.968768
90.129972
113.926530
127.877593
136.635900
135.125518
123.137832
109.053850
85.985661
70.268512
50.195456
39.816499
29.630661
25.343895
22.090673
21.036863
20.292997
19.596815
19.281507
19.296408
18.507838
18.378496
17.569661
17.881989
17.162561
17.572641
17.599463
17.909408
18.094778
18.605590
18.802881
19.229650
18.574595
18.041730
16.574860
15.509725
14.576912
13.856888
12.809634
12.560487
11.668801
11.165738
10.971427
11.328459
10.768771
10.588765
10.354519
10.174513
9.922981
10.188818
10.012984
9.698868
9.681582
9.861588
9.832978
##ZVALUE=285
1.253486
1.377463
1.383424
1.298785
1.466870
1.433492
1.367927
1.371503
1.517534
1.274943
1.592636
1.547933
1.354814
1.706481
1.982450
1.789927
1.787543
1.953840
1.984835
2.452731
2.541542
2.851486
3.136992
3.581643
8.146763
30.843616
135.117769
317.801833
745.814443
1015.870571
1015.870571
1015.870571
1015.870571
1015.870571
1015.870571
1015.870571
1015.870571
1015.870571
750.955939
350.720882
172.944665
61.547756
39.786696
48.948526
62.817931
86.504817
101.867914
118.697882
126.277804
127.699971
120.272636
102.628469
86.841583
64.199567
49.463511
34.355521
26.560426
20.815730
18.677711
17.545819
16.651750
16.448498
16.683936
16.280413
15.702844
16.417503
16.821623
17.319918
17.311573
17.820597
18.683672
18.977523
18.919706
18.397570
17.947555
16.656518
15.731454
14.355779
13.923645
13.184547
12.534857
12.046695
11.656880
11.271834
11.411905
11.018515
10.767579
10.742545
10.370612
10.179877
10.183454
10.408759
10.141730
9.948611
9.570718
9.738803
##ZVALUE=290
1.250505
1.193881
1.177788
1.243949
1.334548
1.238585
1.357794
1.454949
1.413822
1.457930
1.544952
1.473427
1.641512
1.549721
1.579523
1.753569
1.862645
1.784563
1.915693
1.933575
2.144575
2.349615
2.662539
2.821684
3.147721
3.521442
4.402995
11.777878
66.004395
174.540877
484.243631
895.321965
1015.870571
1015.870571
1015.870571
1015.870571
1015.870571
1015.870571
1015.870571
1015.870571
959.833860
586.972833
255.171657
120.842457
47.855973
40.607452
51.853657
64.072609
85.336566
101.744533
118.972659
126.617551
128.614902
122.191906
106.189847
90.766549
66.682696
53.351521
38.738847
31.400919
24.747849
22.326708
21.430850
20.285845
20.012856
20.309687
19.892454
20.111799
20.828843
21.422505
21.858811
22.339821
21.487474
20.675659
20.050406
18.956661
17.136931
16.427636
15.366673
15.178919
14.672875
13.907552
13.377666
12.904406
12.858510
12.860894
12.326837
12.284517
11.980534
11.716485
11.810660
11.301637
11.231899
10.797977
11.020899
11.105537
##ZVALUE=295
1.143813
1.134872
1.340508
1.208782
1.149774
1.294613
1.365542
1.215935
1.395941
1.483560
1.321435
1.580715
1.435876
1.536608
1.601577
1.487732
1.690984
1.702905
1.830459
1.874566
2.071857
2.043843
2.248883
2.528429
2.856851
2.798438
3.155470
3.568530
4.032850
5.647540
26.008487
79.615712
264.014602
562.695861
1015.870571
1015.870571
1015.870571
1015.870571
1015.870571
1015.870571
1015.870571
1015.870571
1015.870571
842.287540
367.057920
168.919563
53.336620
26.223660
26.754737
35.394430
51.656961
65.516829
86.551905
99.975467
111.034513
113.735795
105.253458
94.288588
76.307654
61.348677
42.507648
31.602979
21.364689
17.013550
13.689995
12.865663
12.849569
13.523698
14.342666
14.683604
15.381575
15.727878
15.529990
15.132427
14.129877
13.696551
12.932420
12.032986
11.350513
11.282563
10.958910
10.870695
10.439754
10.234714
10.000467
10.084510
9.941459
9.429455
9.966493
9.654760
9.536743
9.540915
9.305477
9.196997
9.422898
9.414554
##ZVALUE=300
1.246929
1.260638
1.230836
1.241565
1.338720
1.327991
1.286864
1.305938
1.464486
1.472831
1.379848
1.439452
1.390576
1.632571
1.577735
1.647472
1.632571
1.825690
1.815557
1.873970
1.865625
1.955628
2.261996
2.430677
2.571940
2.672672
2.964735
3.091693
3.297925
3.691912
3.931522
4.385710
11.550784
42.487979
164.930820
351.718664
829.806924
1015.870571
1015.870571
1015.870571
1015.870571
1015.870571
1015.870571
1015.870571
1015.870571
1015.870571
726.467967
345.652699
104.416609
38.120747
19.839406
23.317933
32.481551
42.554736
60.566664
76.809525
93.953609
103.003979
106.785893
102.118850
88.975430
76.510906
56.526661
43.457747
29.197931
21.696687
15.967488
13.608932
12.861490
12.967587
13.276935
13.650656
13.620853
13.560653
12.853742
12.254715
11.789799
10.896921
10.548830
10.086894
10.019541
9.893775
9.873509
9.720922
9.522438
9.651780
9.369850
9.288788
9.297729
9.231567
9.254813
8.975863
8.924603
9.016991
8.898973
8.829832
##ZVALUE=305
1.196861
1.322627
1.303554
1.250505
1.247525
1.426935
1.432896
1.352429
1.479983
1.355410
1.430511
1.499653
1.567602
1.515746
1.474619
1.650453
1.764894
1.617670
1.880527
1.814961
1.885891
2.023578
2.174973
2.371669
2.501607
2.383590
2.532601
2.836585
3.070831
3.201962
3.216863
3.745556
4.163980
4.832745
5.987883
30.974746
94.381571
292.413831
558.217764
1015.876532
1015.876532
1015.876532
1015.876532
1015.876532
1015.876532
1015.876532
1015.876532
1015.876532
1015.876532
773.203373
331.288576
80.298781
25.047660
18.839836
22.015572
31.234622
41.438937
58.182478
72.083473
88.560581
96.457005
100.529790
96.469522
85.045695
72.385669
53.360462
40.977001
28.052926
20.567775
15.670657
13.795495
13.139844
13.021827
12.161732
11.761785
10.851622
10.238886
9.618998
9.261966
9.001493
8.654594
8.931756
8.757710
8.694530
8.789897
8.775592
8.556843
8.415580
8.381605
8.411407
8.221865
8.504987
8.287430
8.278489
8.293986
8.243918
##ZVALUE=310
1.159906
1.192689
1.260638
1.327991
1.248717
1.237988
1.276731
1.186728
1.330972
1.361966
1.210570
1.271963
1.286864
1.365542
1.470447
1.511574
1.465678
1.573563
1.544952
1.578927
1.526475
1.663566
1.838803
2.173781
1.986623
2.005696
2.149940
2.252460
2.381802
2.538562
2.555847
2.900958
2.977848
3.410578
3.538728
4.168749
4.476905
11.393428
41.270852
167.573690
362.254977
805.030465
1015.998721
1015.998721
1015.998721
1015.998721
1015.998721
1015.998721
1015.998721
1015.998721
1015.998721
948.767662
493.272543
140.508413
41.001439
14.945865
14.733672
18.952489
25.015473
36.753416
48.074722
65.434575
77.943802
89.420676
94.085932
91.148615
83.695650
69.544911
56.128502
39.922595
30.188560
21.437407
16.628504
13.002753
11.240840
10.087490
9.287596
8.527637
8.327961
8.248687
7.979870
7.941723
8.031726
8.147955
8.198619
7.934570
7.961988
7.806420
7.974505
7.929802
7.949471
7.679462
8.057952
7.910728
7.804632
7.801652
##ZVALUE=315
1.017451
1.107454
1.084805
1.016855
1.112819
1.113415
1.101494
1.080632
1.131892
1.193881
1.162887
1.044869
1.172423
1.147985
1.296997
1.196861
1.288652
1.331568
1.395941
1.395941
1.377463
1.430511
1.444817
1.719594
1.646876
1.587868
1.644492
1.713634
1.783967
1.783967
1.846552
1.946688
2.212524
2.419949
2.610683
2.772808
3.060699
3.263950
3.759861
5.039573
22.663474
75.829625
263.621807
527.696609
1009.977460
1015.870571
1015.870571
1015.870571
1015.870571
1015.870571
1015.870571
1015.870571
1015.870571
1015.870571
892.415643
424.049497
99.869967
24.782419
12.973547
13.583899
17.024875
22.180676
33.317804
43.265820
59.430599
70.939660
83.643794
87.954998
86.279511
79.113841
65.679550
54.066777
38.668513
28.666854
18.430948
13.933778
9.956956
8.763671
8.018613
7.656813
7.525682
7.353425
7.358789
7.277727
7.314682
7.267594
7.117987
7.446408
7.167459
7.251501
7.442832
7.300973
7.401705
7.464886
7.330775
7.382631
##ZVALUE=320
0.955462
0.791550
0.977516
0.842810
0.842810
0.931621
0.853539
1.007915
1.004934
1.124740
0.974536
0.944734
0.995994
0.884533
0.908971
0.936985
0.970960
1.159906
1.084805
1.174808
1.172423
1.202822
1.171827
1.190901
1.292825
1.409650
1.421571
1.385808
1.582503
1.535416
1.722574
1.755953
1.721978
1.859665
1.800656
2.070665
2.176762
2.329946
2.575517
2.782941
3.258586
3.669858
9.476542
35.477877
151.762366
340.817571
771.203637
1015.870571
1015.870571
1015.870571
1015.870571
1015.870571
1015.870571
1015.870571
1015.870571
1015.870571
776.110888
439.726710
160.852671
56.886673
12.839437
10.594726
11.512637
13.971925
20.116568
27.082562
40.386915
52.249432
68.961978
77.739954
83.466768
82.857609
74.184537
64.342618
48.874617
37.809610
24.810433
17.317533
11.036992
8.776784
7.339716
6.779432
6.773472
6.489754
6.498694
6.549954
6.353855
6.522536
6.406903
6.413460
6.536841
6.763935
6.719828
6.668568
6.984472
6.992817
##ZVALUE=325
0.810623
0.892878
0.863671
0.889897
0.835657
0.807643
0.833869
0.890493
0.848770
1.021624
0.889897
1.070499
0.793934
1.022816
1.080632
1.015663
0.956655
1.047850
1.137853
0.903606
1.014471
1.053810
1.311898
1.214743
1.157522
1.189709
1.247525
1.243949
1.283884
1.457930
1.404881
1.489520
1.573563
1.594424
1.846552
1.810789
1.918674
1.934767
2.013445
2.362728
2.370477
2.753735
2.889633
3.338456
4.881620
26.760697
80.567598
250.407457
493.579507
984.679461
1015.881896
1015.881896
1015.881896
1015.881896
1015.881896
1015.881896
1015.881896
1015.881896
822.116733
379.548669
182.142854
48.519969
15.992522
9.394884
9.184480
10.380745
12.859702
18.581748
26.199818
39.602518
50.632954
64.108968
72.809458
77.951550
76.141953
67.395568
57.781935
43.550730
33.285618
21.687746
15.562773
10.283589
7.930994
6.884933
6.480813
6.087422
6.264448
6.262660
6.268620
6.114841
6.061792
6.424785
6.407499
6.307960
6.584525
6.554723
##ZVALUE=330
0.742674
0.641942
0.788569
0.780821
0.838637
0.723600
0.823736
0.709891
0.837445
0.803471
0.890493
0.802875
0.916719
0.876784
0.892878
0.926852
0.887513
0.969768
0.936985
0.947714
0.889897
0.959635
0.974536
1.022816
1.219511
1.141429
1.009703
1.193881
1.072884
1.302958
1.224875
1.412630
1.337528
1.541972
1.461506
1.608729
1.553893
1.751781
1.693964
1.782775
1.935959
1.973510
2.366900
2.576709
2.883673
2.985597
3.584623
11.043549
40.018559
162.031651
346.270800
776.585937
1015.865803
1015.865803
1015.865803
1015.865803
1015.865803
1015.865803
1015.865803
1015.865803
978.552699
490.694642
249.174833
81.158876
25.179982
9.481907
8.407831
8.726716
9.759665
13.253689
17.260909
25.958419
34.351945
48.162937
57.931542
68.006516
71.271658
70.023537
64.221621
52.214861
41.684508
28.947592
21.599531
14.798641
10.858774
8.184910
6.992817
6.421804
6.220937
5.989671
6.545782
6.416440
6.591678
6.816983
6.983876
6.934404
##ZVALUE=335
0.691414
0.708699
0.671744
0.676513
0.726581
0.670552
0.692606
0.722408
0.749826
0.664592
0.714660
0.805855
0.709891
0.825524
0.836849
0.918508
0.936985
0.625849
0.710487
0.891685
0.934601
0.891685
0.916719
0.996590
0.894666
0.899434
0.931621
1.052618
1.016855
1.043677
1.146793
1.155734
1.029968
1.152754
1.046658
1.377463
1.331568
1.593828
1.517534
1.490712
1.501441
1.775622
1.889467
1.814961
2.205968
2.446771
2.459884
2.787709
2.861619
5.607605
19.998550
97.653866
234.624743
586.186647
971.350670
1015.795469
1015.795469
1015.795469
1015.795469
1015.795469
1015.795469
1015.795469
1015.795469
654.445887
343.088508
111.530423
38.424730
11.228919
8.848906
8.573532
8.530617
9.387732
11.560917
16.800761
22.499561
33.906698
42.819977
54.090619
62.102675
66.525936
65.131783
58.701634
51.556826
40.470958
31.732917
21.765828
15.878677
11.127591
9.129643
8.066893
7.788539
8.214712
8.493662
8.862615
9.323955
9.623766
##ZVALUE=340
0.667572
0.775456
0.482798
0.788569
0.694990
0.654459
0.774860
0.743866
0.735521
0.916719
0.648499
0.679493
0.617504
0.687838
0.790954
0.747442
0.832677
0.851750
0.912547
0.906587
0.807643
0.794530
0.929832
1.017451
1.029968
0.962615
0.886917
1.171827
1.206994
1.234412
1.160502
1.181960
1.188517
1.180768
1.331568
1.435876
1.310706
1.303554
1.305938
1.473427
1.650453
1.654625
1.580715
1.860857
1.852512
1.999736
2.136827
2.339482
2.458692
2.815723
3.068447
3.995895
9.555817
57.973862
165.306926
474.572778
861.535668
1015.870571
1015.870571
1015.870571
1015.870571
1015.870571
1015.870571
1015.870571
1015.870571
850.284696
464.112759
168.100595
61.660409
15.171766
9.577870
8.810759
8.709431
8.578897
9.015799
11.170506
14.746785
22.332668
29.933453
41.353703
50.482750
59.272647
62.444806
61.486959
57.882667
49.065948
41.001439
30.757785
24.482608
18.205643
14.986992
13.195872
13.063550
13.533831
14.265776
14.869571
##ZVALUE=345
0.809431
0.688434
0.833869
0.678897
0.650883
0.786781
0.876784
0.721812
0.728965
0.835657
0.852942
0.890493
0.781417
0.824928
0.873804
0.662804
0.916719
0.955462
0.696778
0.763535
0.781417
0.961423
0.915527
0.863671
0.858903
1.013875
0.846982
1.025796
1.016855
1.031756
1.142621
1.090765
0.978708
1.181960
1.152754
1.158714
1.125932
1.231432
1.279712
1.462698
1.442432
1.493692
1.530647
1.659989
1.676679
1.496673
1.838803
1.907945
2.117753
2.177954
2.431870
2.481937
2.881885
3.429651
4.744530
28.411746
97.076893
314.918756
599.429011
1015.870571
1015.870571
1015.870571
1015.870571
1015.870571
1015.870571
1015.870571
1015.870571
1015.870571
640.955567
252.641439
106.061697
26.920438
11.562705
9.194613
8.373857
7.755756
7.382631
7.916689
9.635687
13.912916
19.654632
29.181838
36.687851
46.322942
53.305626
58.399439
59.175491
55.996776
51.404834
43.988824
37.465692
30.478835
26.910901
24.648905
23.956895
24.088621
##ZVALUE=350
0.776649
0.776649
0.760555
0.705719
0.888705
0.912547
0.669956
0.826716
0.831485
0.744462
0.791550
0.872612
0.873804
0.901818
0.914931
0.892878
0.926852
0.904799
0.891685
0.875592
0.921488
0.975728
0.974536
0.961423
1.011491
1.061559
1.015663
1.070499
1.111627
1.147985
1.172423
1.163483
1.048446
1.176596
1.129508
1.173615
1.177788
1.385808
1.313686
1.188517
1.291633
1.452565
1.474619
1.421571
1.413822
1.526475
1.633763
1.862645
1.681447
1.847744
2.121925
2.256632
2.430677
2.716780
2.823472
3.277659
3.657937
13.373494
49.302578
192.143917
412.070751
933.914781
1015.870571
1015.870571
1015.870571
1015.870571
1015.870571
1015.870571
1015.870571
1015.870571
810.886025
369.493961
164.050460
37.840605
13.271570
8.656979
7.743835
6.915927
6.470680
6.554723
7.392764
9.633899
12.710690
19.036531
24.956465
34.808517
42.761564
51.813722
56.715608
60.108900
60.252547
56.920648
53.054690
47.939420
43.460727
38.818717
##ZVALUE=355
0.888705
0.890493
0.802875
0.909567
0.926852
0.825524
0.893474
0.787973
1.045465
0.934601
0.722408
0.853539
0.843406
0.861883
1.010895
0.808835
0.843406
0.870824
0.902414
0.877976
0.988841
0.939965
0.988841
0.940561
1.047850
0.956655
1.017451
1.034737
1.145601
1.152754
1.048446
1.128912
1.142621
1.259446
1.188517
1.314878
1.332760
1.218915
1.400709
1.350641
1.515746
1.514554
1.509786
1.597404
1.516938
1.601577
1.627803
1.719594
1.789927
1.758933
1.891851
1.964569
2.328753
2.274513
2.371669
2.783537
3.019571
3.176928
3.576875
6.853938
22.962689
114.256740
270.098448
665.185452
1015.870571
1015.870571
1015.870571
1015.870571
1015.870571
1015.870571
1015.870571
1015.870571
996.433496
478.056669
228.793621
68.529844
20.940900
8.862615
7.849932
6.869435
6.766915
6.776452
6.755590
7.801652
8.979440
13.046861
17.514825
26.000738
33.555627
44.238567
53.027868
62.671900
66.796541
69.240928
67.370534
62.833428
##ZVALUE=360
0.815988
0.695586
0.859499
0.817776
0.780821
0.879765
0.766516
0.869632
0.782609
0.815988
0.804663
0.934601
0.994802
0.986457
0.950694
0.841618
0.943542
0.898838
0.996590
0.870824
0.948906
0.861883
1.110435
0.952482
1.009703
1.016855
1.066923
0.948906
1.104474
1.137853
1.134872
1.044869
1.108646
1.169443
1.230836
1.271963
1.170635
1.292825
1.358986
1.282692
1.321435
1.296997
1.229644
1.348853
1.571774
1.466870
1.468658
1.633763
1.677871
1.636744
1.878738
1.822710
1.909733
2.141595
2.240539
2.218485
2.431870
2.640486
2.949834
3.437996
3.548861
4.662871
10.509491
53.862929
151.900649
447.527766
824.014544
1015.783548
1015.783548
1015.783548
1015.783548
1015.783548
1015.783548
1015.783548
1015.783548
749.713778
389.791727
133.168697
42.575598
9.977818
7.845759
7.183552
7.047653
6.821752
6.818771
7.339716
8.359551
10.710955
13.574958
19.373894
26.172996
37.425756
45.470595
56.153536
63.199997
68.702698
##ZVALUE=365
0.874996
0.800490
0.739694
0.879765
0.933409
0.859499
0.709891
0.827909
0.982881
0.958443
0.789762
0.804663
0.837445
0.907779
0.778437
0.829697
0.936985
0.901818
0.906587
0.979900
1.113415
1.059771
0.968575
1.114607
1.134872
1.041889
0.955462
0.963807
1.042485
1.144409
1.145601
1.120567
1.087785
1.015663
1.194477
1.249909
1.242757
1.193881
1.211762
1.129508
1.402497
1.402497
1.301765
1.427531
1.433492
1.378655
1.437664
1.497865
1.551509
1.797676
1.660585
1.668930
1.829863
1.710653
1.878738
2.072453
2.188683
2.155900
2.557635
2.497435
2.762675
3.019571
3.646612
4.063845
5.390644
25.763512
85.459948
286.214948
581.055880
1015.870571
1015.870571
1015.870571
1015.870571
1015.870571
1015.870571
1015.870571
1015.870571
983.007550
581.261516
213.408470
79.057813
15.030503
7.880926
7.140636
6.773472
6.874800
7.049441
7.320642
8.183718
10.052919
12.264848
16.437769
20.380616
27.310848
33.852458
42.039752
##ZVALUE=370
0.776649
0.764728
0.729561
0.780821
0.939965
0.802875
0.766516
0.881553
0.978708
0.728965
0.992417
0.897646
0.656843
0.751615
0.840425
0.656843
0.903606
0.907779
0.692606
0.884533
0.882745
0.867844
1.031756
0.808835
0.918508
0.928640
0.841618
0.979900
0.891685
0.945926
0.933409
1.079440
1.062751
1.209974
1.120567
1.097918
1.050830
1.234412
1.091957
1.228452
1.170635
1.087785
1.220703
0.974536
1.294613
1.342893
1.394749
1.275539
1.257658
1.484752
1.476407
1.465678
1.464486
1.647472
1.540780
1.607537
1.454949
1.748800
1.849532
2.100468
2.091527
2.309680
2.623796
2.751946
2.995729
3.547668
4.045963
13.003945
49.286485
194.559097
407.090783
891.310573
1015.849710
1015.849710
1015.849710
1015.849710
1015.849710
1015.849710
1015.849710
1015.849710
719.406009
285.993814
124.090910
33.086538
11.135936
6.934404
6.847978
7.028580
7.477999
7.949471
9.048581
10.631680
12.020469
14.257431
16.134977
20.147562
##ZVALUE=375
0.645518
0.833869
0.765920
0.759959
0.828505
0.711679
0.708699
0.701547
0.732541
0.785589
0.711679
0.808835
0.828505
0.725985
0.723600
0.815988
0.697970
0.708699
0.916719
0.757575
0.924468
0.814795
0.887513
0.970960
0.854731
0.930429
0.885725
0.805855
0.904799
1.081824
1.048446
1.079440
0.856519
0.974536
1.056790
0.979900
1.017451
1.048446
1.063943
0.944734
1.037717
1.155734
1.174808
1.201630
1.162887
1.173615
1.159906
1.304746
1.183748
1.163483
1.264811
1.330972
1.214743
1.378655
1.345873
1.417994
1.400709
1.530647
1.689792
1.732707
1.827478
1.886487
1.765490
2.011657
2.271533
2.620816
2.926588
3.327727
3.713965
7.290840
22.839904
100.807548
250.647068
652.723908
1015.870571
1015.870571
1015.870571
1015.870571
1015.870571
1015.870571
1015.870571
1015.870571
968.361497
476.771593
237.720609
68.822503
20.328760
7.369518
7.123947
7.170439
7.404685
8.004904
8.665919
9.251833
9.541512
9.996891
##ZVALUE=380
0.602603
0.758767
0.662804
0.692606
0.739694
0.662804
0.676513
0.739694
0.710487
0.680685
0.627637
0.712872
0.577569
0.662804
0.762939
0.834465
0.783801
0.673532
0.784993
0.741482
0.630617
0.739694
0.795722
0.701547
0.792742
0.826716
0.850558
0.860691
0.850558
0.944734
0.964999
0.882745
0.842810
0.965595
0.935793
0.898838
0.926852
0.886917
0.926852
1.037717
1.017451
0.956655
0.950694
0.976920
1.034737
1.034737
1.092553
1.158714
1.077652
1.228452
1.085997
1.125932
1.168847
1.115799
1.398921
1.300573
1.238585
1.234412
1.165867
1.292825
1.545548
1.485944
1.644492
1.618862
1.825690
1.982450
2.216697
2.536774
2.952814
3.139973
3.540516
4.298687
14.704466
51.665902
191.044807
401.288867
873.040557
1015.870571
1015.870571
1015.870571
1015.870571
1015.870571
1015.870571
1015.870571
999.791026
649.004579
274.254680
121.944547
28.478503
9.695888
6.600618
6.706715
6.678700
6.804466
6.661415
6.896853
##ZVALUE=385
0.500679
0.685453
0.620484
0.571609
0.662804
0.618696
0.479817
0.561476
0.674725
0.596642
0.629425
0.709891
0.660419
0.603795
0.624657
0.579953
0.667572
0.676513
0.611544
0.626445
0.605583
0.744462
0.666976
0.717640
0.750422
0.565648
0.919700
0.862479
0.981688
0.892878
1.231432
1.114607
1.025796
0.999570
0.918508
1.047850
0.899434
1.070499
0.997782
1.086593
1.096725
1.058578
0.993609
1.084805
1.115799
1.083612
1.032948
1.145601
1.043677
1.081824
1.132488
1.285672
1.229644
1.160502
1.192689
1.108646
1.073480
1.176596
1.289845
1.347661
1.321435
1.410842
1.562834
1.452565
1.646876
1.700521
2.095699
2.292991
2.436638
2.850890
2.785921
2.947450
3.165603
3.313422
5.512834
32.418966
98.527670
297.003984
592.296720
1015.870571
1015.870571
1015.870571
1015.870571
1015.870571
1015.870571
1015.870571
1015.870571
887.280703
515.596867
212.752819
82.061887
16.984940
7.698536
6.909966
6.649494
6.559491
##ZVALUE=390
0.600815
0.449419
0.569820
0.326633
0.294447
0.391603
0.563860
0.358820
0.532866
0.550747
0.546575
0.488758
0.520945
0.509620
0.613928
0.516772
0.560880
0.557899
0.599623
0.558496
0.523925
0.717640
0.529885
0.650883
0.722408
0.754595
0.822544
0.782609
0.938773
0.825524
0.905991
0.944734
0.830889
0.891685
0.965595
0.927448
1.041889
0.992417
1.123548
1.043677
1.091957
1.006722
0.962615
1.085997
1.080632
1.106858
0.997782
1.115799
1.157522
1.041889
1.068711
1.022816
0.906587
1.066923
1.100898
1.066923
0.993609
1.063943
1.160502
1.247525
1.048446
1.313686
1.371503
1.307726
1.501441
1.705885
1.867414
2.108812
2.342463
2.365708
2.602935
2.653599
2.506971
2.594590
2.717972
2.968907
3.456473
14.790893
56.227446
211.606622
447.939634
949.516892
1015.780568
1015.780568
1015.780568
1015.780568
1015.780568
1015.780568
1015.780568
1015.780568
762.744546
324.857831
144.571662
34.015775
11.143684
6.732941
##ZVALUE=395
0.346899
0.437498
0.343919
0.361800
0.394583
0.426769
0.557899
0.495911
0.367761
0.497699
0.484586
0.444651
0.437498
0.692606
0.544786
0.514984
0.447631
0.587702
0.430942
0.542998
0.507832
0.595450
0.574589
0.603795
0.554919
0.710487
0.585914
0.777841
0.830889
0.730753
0.775456
0.950694
0.849962
0.813603
0.993609
0.879765
0.978708
1.047850
1.095533
1.027584
1.080632
1.230836
1.093745
1.059771
1.098514
1.059771
1.123548
1.108646
1.112819
1.106858
1.063943
1.019835
1.139641
1.077652
0.861883
1.081824
1.151562
0.977516
1.133680
1.024604
0.951886
1.182556
1.345873
1.427531
1.391768
1.739860
1.796484
1.922846
1.944900
2.231598
2.233982
2.157688
2.140999
2.091527
2.164841
2.214909
2.246499
2.476573
3.068447
7.900596
32.294393
143.263936
306.850672
664.027929
1006.632447
1015.763879
1015.763879
1015.763879
1015.763879
1015.763879
1015.763879
1015.763879
974.074602
476.730466
234.803557
71.739554
##ZVALUE=400
0.581741
0.593662
0.705719
0.500679
0.682473
0.526905
0.645518
0.579953
0.575781
0.613928
0.454783
0.499487
0.595450
0.799894
0.657439
0.590682
0.590682
0.698566
0.586510
0.743866
0.520945
0.618696
0.549555
0.645518
0.714660
0.747442
0.859499
0.750422
0.977516
0.938773
0.824928
1.075864
0.941753
1.045465
1.127720
0.916719
1.031756
1.102686
1.085997
1.293421
1.173615
1.167655
1.214743
1.177788
1.208782
1.334548
1.155734
1.060963
1.242757
1.163483
1.214743
1.019835
1.124740
1.079440
1.132488
1.275539
1.131892
1.138449
1.295805
1.070499
1.157522
1.318455
1.177788
1.496673
1.490712
1.670718
2.036691
1.902580
2.026558
2.071857
2.149940
2.039671
2.012849
1.941919
1.832843
2.133846
2.135634
2.174973
2.191663
2.335906
2.795458
4.843473
15.835762
71.643591
180.306435
472.259521
829.419494
1015.868783
1015.868783
1015.868783
1015.868783
1015.868783
1015.868783
1015.868783
1015.868783
656.452775
##END
