##TITLE=FQP00602
##FORMAT=SPECTACLE-ASCII V-1.2
##DATA TYPE=ULTRAVIOLET SPECTRUM
##SECOND TYPE=ULTRAVIOLET SPECTRUM
##DATE=01/11/18
##TIME=19:21:55
##SPECTROMETER/DATA SYSTEM=SPECTACLE
##XUNITS=NM EM
##YUNITS=ENERGY
##YFACTOR=1
##FIRSTX=220
##LASTX=410
##NPOINTS=96
##3DDATA=Equidistant
##ZUNITS=NM EX
##FIRSTZ=210
##LASTZ=400
##ZPOINTS=39
##XYDATA=(Y..Y)
##ZVALUE=210
2.657771
2.744794
3.436804
2.592802
3.081560
2.904534
2.956986
2.834797
2.902746
2.736449
3.311634
3.709793
3.207922
2.784729
3.341436
3.675818
3.833771
3.462434
4.526973
4.639626
4.232526
5.811453
5.235672
4.609823
5.811453
5.505681
5.968809
6.067753
6.255507
8.160472
8.423924
9.231567
8.594990
8.256435
8.415580
9.175539
7.849932
9.282827
8.578897
8.411407
9.786487
8.923411
8.956790
9.257793
7.995963
9.057522
8.562803
8.705854
9.469986
9.232759
8.672476
9.896755
10.041595
9.478927
9.296536
8.700490
9.850860
9.386539
10.463595
9.319782
10.128617
10.130405
9.530783
9.223819
11.020899
10.200739
11.520982
12.934804
13.398528
15.228987
18.057823
21.707416
23.577809
29.860735
32.878518
36.851764
40.372610
42.618513
41.410923
44.149756
42.283535
39.691925
34.430623
31.867623
26.648641
20.061731
16.772747
13.817549
11.914968
9.504557
10.188818
9.322762
9.684563
10.824800
11.279583
10.977983
##ZVALUE=215
8.722544
8.080602
6.814599
6.450415
5.702972
5.492568
5.273819
5.562901
5.845428
5.929470
5.555749
5.342960
4.915595
3.631711
4.104972
3.638864
3.983974
3.567934
4.049540
4.232526
4.954934
4.164577
5.928874
5.545616
6.947517
6.447434
7.124543
7.956624
9.411573
10.050535
10.767579
10.428429
11.765957
11.712909
11.935830
13.020635
12.960434
12.855530
12.709498
12.353659
11.717677
12.171865
11.524558
11.313558
11.412501
11.115670
10.642409
10.223985
10.128617
11.314750
10.053515
11.348724
10.717511
10.721684
10.637641
10.646582
10.399818
10.422468
11.207461
10.263920
10.428429
11.125803
11.054873
11.087656
11.575818
11.133552
10.179877
11.949539
12.617707
14.887452
18.223524
19.721985
22.231936
28.227568
29.853582
35.026670
34.896731
38.015842
35.610795
37.229657
35.665631
32.823682
29.825568
23.976564
22.992492
17.656684
15.332699
13.884902
12.453794
10.321736
10.224581
10.340810
10.253787
10.476708
8.723736
9.661913
##ZVALUE=220
28.667450
27.493834
30.120611
30.330420
28.369427
21.851659
20.270944
14.765859
13.113618
11.486411
13.237596
13.234615
13.516545
12.445450
10.190606
8.650422
6.330609
5.777478
5.074739
5.092621
5.188584
5.257726
6.310940
6.514788
5.907416
7.381439
7.776618
9.858608
12.256503
13.993979
14.507771
15.641451
17.306805
16.480684
17.677546
18.591881
18.036962
18.536448
18.548965
17.566681
17.177463
16.661882
17.413497
15.543699
14.421940
14.693737
13.780594
14.572740
15.625954
13.030767
13.807416
13.244748
11.818409
13.015866
12.239814
12.174845
12.166500
11.917949
11.748672
11.604428
11.638999
11.739731
11.581779
12.430549
11.459589
11.790991
12.755990
12.520552
14.853477
16.583800
16.709566
18.651485
22.926927
25.952458
27.243495
28.535724
30.699968
31.526685
32.260418
30.986667
30.023456
29.159784
25.725961
22.134781
18.823743
17.299652
16.050935
12.940764
11.718869
12.108684
12.295842
10.878444
11.950731
10.992885
11.544824
10.682940
##ZVALUE=225
52.232742
57.300925
76.706409
100.680590
117.516518
120.540857
116.285682
91.699958
68.493485
44.098496
30.713677
26.857853
26.993752
27.161837
28.120875
25.327802
23.196936
17.174482
13.996959
11.159778
7.596612
7.388592
6.927848
6.339550
7.396936
8.276701
10.339618
12.491941
12.952685
15.813708
15.961528
19.780993
20.965934
22.137761
23.546815
21.895766
22.273660
24.119616
23.307800
21.075606
21.911860
21.628737
21.031499
18.961430
19.798875
17.136931
17.671585
17.564893
16.744733
17.514825
16.277432
15.398860
15.813708
15.351772
15.018582
15.774965
14.869571
15.067458
13.903975
13.397932
14.887452
13.770461
13.675690
13.903975
14.254451
14.475584
14.449954
15.936494
15.576482
16.792417
20.160675
21.393895
24.572611
27.352571
27.295947
29.178858
31.275749
30.162930
30.925870
27.134418
26.970506
23.570657
22.174716
20.919442
20.940900
19.444823
17.642975
15.017986
14.786720
15.144944
14.621615
14.410615
15.307665
14.431477
13.221502
15.210509
##ZVALUE=230
55.572987
64.430833
104.902983
187.355876
254.311562
319.387913
353.892446
356.931686
326.702595
275.367498
189.467669
127.208829
74.671507
56.208968
49.591660
50.564408
51.547885
52.202940
45.433640
40.214658
29.862523
19.721985
16.272664
11.420846
10.103583
10.505915
11.645555
12.886524
14.547706
15.611649
17.562509
19.575953
19.922853
23.229718
23.043752
22.791624
23.009777
23.263693
23.696423
23.066998
21.120906
23.035407
20.944476
20.075440
21.355748
19.397736
18.963814
18.556714
19.343495
18.456578
18.653870
15.482903
16.969442
18.066764
18.674731
17.867684
16.998649
18.245578
17.915964
16.761422
17.153621
18.777847
18.351674
19.192696
18.729568
19.025803
20.001531
21.758676
22.691488
23.209453
28.132796
29.792786
32.175779
37.593842
37.546754
40.902495
41.606426
41.623712
38.106441
36.996603
33.828616
32.983422
30.575991
28.660893
26.633739
25.471449
24.478436
22.317767
21.265745
22.103786
22.129416
21.797419
21.510720
20.487905
20.274520
22.609830
##ZVALUE=235
24.311543
28.110743
75.007677
136.532784
260.967612
371.506810
550.790429
662.591457
722.571015
705.474019
584.915876
465.077758
335.834622
197.660923
136.026740
89.124441
76.568723
83.152652
89.194775
87.762475
83.269477
74.937940
55.379868
43.397546
28.230548
21.243691
16.085505
13.930798
13.039708
14.340878
15.613437
15.842915
16.001463
17.190576
18.232465
19.247532
18.498898
19.508600
21.399856
19.767880
20.528436
20.656586
21.123886
21.033883
20.790696
20.100474
18.829703
19.178987
19.089580
19.832850
19.819736
19.326806
20.837784
18.307567
21.962523
19.826889
20.514727
19.955635
22.050738
20.877719
22.521615
22.611618
22.161603
22.331476
21.494627
22.817850
23.072958
25.292635
26.312470
29.433966
31.445622
34.980774
36.935806
40.178895
40.821433
43.911934
44.465661
44.316649
44.258833
42.284727
42.407513
39.331913
40.083528
37.745833
35.431981
32.314658
31.479597
32.205582
29.199719
31.421781
29.510856
30.759573
30.386448
31.281710
31.469464
31.995773
##ZVALUE=240
3.065467
3.274679
15.147924
48.512816
114.585757
248.561502
422.465801
722.222924
957.847834
1015.681624
1015.681624
1015.681624
1010.803580
731.574893
531.342626
298.815966
188.875794
128.672719
107.091665
108.133554
116.995573
126.795769
121.565461
113.899708
88.632703
74.341893
53.100586
36.503673
24.914742
19.340515
15.412569
15.996695
14.617443
14.941692
15.004873
16.086698
15.976429
17.655492
18.043518
18.592477
17.842650
19.221902
20.666718
21.783710
19.912720
20.773411
20.791888
20.292997
20.876527
20.564795
20.104647
20.381808
20.120740
18.353462
20.830631
20.492673
20.348430
21.360517
21.081567
20.184517
21.708608
23.499727
23.121834
23.576617
25.360584
24.066567
27.249455
27.512908
30.065775
33.315420
36.220551
38.831830
40.138960
43.708682
47.152638
46.161413
46.597719
46.287775
46.996474
46.007633
44.278502
41.411519
39.789677
39.537549
41.141510
38.203001
37.421584
37.416816
37.120581
38.838983
37.624836
37.384629
37.799478
38.533807
37.216544
38.385987
##ZVALUE=245
2.885461
2.456903
2.615452
2.994537
8.987784
41.929483
103.579760
275.464654
469.431877
716.145635
1015.681624
1015.681624
1015.681624
1015.681624
1015.681624
1015.681624
812.589526
592.666864
411.581993
240.055919
154.849887
112.894773
120.637417
135.274529
136.668682
133.925676
122.070909
97.610950
81.182718
58.410764
41.995645
29.070973
22.221804
17.573833
17.143488
15.143752
16.917586
18.203855
17.037988
17.520785
18.455982
18.358827
18.367767
19.058585
19.534826
19.774437
20.232797
19.150972
19.608736
19.747615
19.085407
19.449592
19.139647
17.595887
19.667745
18.734932
19.231439
17.840862
17.752647
18.294454
19.835830
20.664930
21.366477
20.815730
20.448565
23.651719
22.303462
23.561716
26.511550
27.915835
32.170415
32.958984
34.841895
39.207935
40.176511
43.658614
43.277740
42.230487
43.155551
43.476820
40.400624
40.118694
37.610531
38.585663
36.703944
39.549470
36.968589
36.927462
37.058592
35.193563
35.147667
36.049485
37.088990
36.499500
36.856532
35.431981
##ZVALUE=250
1.790524
1.937747
1.968741
1.976490
2.028942
2.926588
4.866719
18.417835
78.850985
168.969631
388.268828
616.347790
887.648463
1015.555859
1015.555859
1015.555859
1015.555859
1015.555859
1015.555859
686.330795
450.896621
269.499421
133.327842
102.657676
112.046599
130.410790
147.559643
148.909688
145.091414
134.735703
118.554831
88.015795
71.926713
46.648979
35.720468
26.215911
21.340847
20.157695
21.328926
20.423532
20.538568
19.783974
20.872951
21.431446
21.722913
21.030903
22.052526
20.202994
20.270944
21.135807
20.832419
20.260811
19.483566
18.988848
19.135475
19.893646
18.743873
19.282699
19.459724
18.942952
19.878745
18.339753
20.590425
19.637942
20.955801
20.584464
22.210479
22.489429
24.352670
26.777983
29.198527
32.249689
34.807920
36.305785
38.488507
40.179491
41.654706
40.681958
44.068694
41.655898
41.746497
40.245652
39.496422
37.844777
38.987994
37.509799
35.870671
34.791827
34.516454
36.718845
33.519864
35.637617
36.370754
33.948421
34.081936
34.683943
##ZVALUE=255
1.964569
2.243519
2.022982
2.297759
2.433658
2.306700
2.494454
2.870560
3.130436
5.981922
30.726790
84.422827
271.022916
529.485941
954.065919
1015.681624
1015.681624
1015.681624
1015.681624
1015.681624
1015.681624
915.883780
586.803555
301.256776
172.731876
104.189515
100.278854
115.954876
136.063695
155.190825
161.509514
157.893896
148.116946
120.921731
104.803443
74.718595
55.504441
39.657950
32.585859
28.018951
25.074482
25.225878
23.742914
24.166703
23.248792
22.917986
24.370551
22.605658
22.397637
21.412969
21.123886
20.304918
20.716786
19.464493
19.369721
18.686652
18.472672
18.604994
18.583536
17.744899
17.720461
18.248558
18.364787
18.587708
17.594695
20.202994
20.059943
21.798611
21.400452
23.969412
25.160909
26.815534
28.808713
30.733943
33.783913
31.999946
34.774542
34.123659
34.776926
34.096837
33.746958
34.353733
33.451915
33.244491
31.654835
30.598640
32.517910
31.355619
30.819774
31.528473
31.678677
32.095909
30.107498
31.834841
32.754540
32.985806
##ZVALUE=260
1.702905
1.691580
1.571774
1.809597
1.789927
1.468658
1.675487
1.788735
2.037883
2.252460
2.206564
3.580451
9.411573
43.352842
107.261539
284.410715
479.569435
811.175704
1015.628576
1015.628576
1015.628576
1015.628576
1015.628576
967.064500
614.475012
402.764678
224.293470
137.704611
97.464919
98.998547
115.167499
147.550702
163.760781
175.103545
174.641609
156.634450
137.742758
104.233623
83.918571
59.803724
44.866800
34.427643
30.495524
27.455688
25.494695
24.257898
24.142861
23.149848
22.507906
21.136999
21.162629
21.152496
19.631982
19.368529
18.679500
18.738508
17.168522
17.423630
16.181469
16.896725
16.317964
15.660524
16.234517
16.162992
15.983582
16.866922
16.385913
17.125607
18.665791
18.553734
21.227598
20.707846
20.900965
22.018552
24.230480
23.868680
24.025440
25.134683
25.153756
24.504662
25.691986
25.983453
26.431680
26.106834
27.486682
27.568936
28.140545
27.339458
27.708411
28.909445
28.679967
28.561950
28.085709
28.224587
28.808713
28.363466
##ZVALUE=265
1.420975
1.306534
1.310706
1.268983
1.369715
1.325607
1.576543
1.292825
1.649857
1.778603
1.784563
1.789927
1.816750
2.317429
4.269481
20.642877
49.378872
130.673647
241.372585
453.968644
646.786690
828.987956
1015.681624
1015.681624
1001.103520
873.404741
660.597682
464.066863
260.083675
169.346929
114.149451
91.343522
104.564428
135.614872
159.122944
181.861520
185.139775
178.123713
164.558887
134.383440
112.608671
83.250999
61.664581
44.466853
37.305951
30.081868
27.298927
25.605559
24.722815
23.802519
22.451878
21.338463
20.503998
19.864440
18.722415
18.085837
17.714500
17.827749
17.452836
17.196536
16.634464
16.186833
15.718937
16.377568
16.398430
16.275644
15.997887
17.026663
16.989708
17.903447
18.719435
19.192696
20.090938
20.960569
21.464825
22.505522
22.672415
23.299456
23.417473
23.467541
24.601817
25.171638
24.360418
24.694800
25.513768
25.503635
25.462508
25.493503
26.018620
27.284622
27.050972
26.953816
27.490854
27.090907
26.053786
27.967691
##ZVALUE=270
1.234412
1.151562
1.225471
1.344681
1.302958
1.132488
1.479983
1.152754
1.368523
1.550913
1.598597
1.879930
1.718998
1.842976
1.859665
1.916885
3.093481
8.943677
24.396777
81.589818
175.529718
402.439833
660.620928
977.589488
1015.681624
1015.681624
1015.681624
1015.681624
1015.681624
783.233047
455.714464
272.333622
129.750967
85.417628
88.981986
107.132792
140.638947
161.214471
181.254745
186.610818
180.974603
165.901780
136.187673
111.500621
80.097914
63.048601
43.079853
34.423470
28.501749
24.686456
22.486448
22.024512
20.359755
19.667745
19.253492
18.602610
18.579960
18.139482
16.793609
17.056465
16.416907
16.846657
16.666651
17.424822
16.298890
16.038418
15.903711
17.309785
17.414689
18.555522
19.252896
19.469857
20.660758
21.168590
22.540689
21.770597
23.290515
23.974776
23.999810
23.594499
23.314953
24.872422
24.312735
23.789406
24.694800
24.873614
24.595857
25.492907
24.552941
25.267601
25.471449
25.499463
25.647879
25.558472
26.273727
26.518703
##ZVALUE=275
1.253486
1.273751
1.095533
1.171827
1.262426
1.443624
1.257658
1.371503
1.505613
1.458526
1.375675
1.482964
1.661777
1.727939
1.779795
1.613498
2.317429
2.094507
2.427697
4.021525
13.495684
52.452683
116.706491
322.045684
583.624840
991.984010
1015.681624
1015.681624
1015.681624
1015.681624
1015.681624
970.811844
588.028431
344.206691
154.047608
91.310740
69.303513
78.174472
105.817914
128.766894
151.365995
172.302723
180.527568
172.039866
156.667829
126.388669
103.165507
77.020526
56.851506
42.518973
29.653907
23.499727
21.033883
18.802881
18.290877
18.947721
17.346740
16.960502
16.654730
17.391443
17.234683
16.376972
15.938878
16.885996
16.860962
16.594529
17.135739
17.682910
17.239451
18.859506
19.288659
19.438863
20.587444
21.250844
21.657944
21.816492
22.439957
22.999644
23.059845
22.672415
23.523569
23.929477
23.082495
24.572611
24.547577
24.528503
24.386644
23.676753
24.097562
24.761558
23.613572
24.702549
25.174618
24.508834
24.021864
25.353432
##ZVALUE=280
1.168847
1.098514
1.095533
1.057982
1.106858
1.219511
1.084805
1.002550
1.085997
1.158714
1.088977
1.123548
1.353621
1.545548
1.492500
1.455545
1.444817
1.670718
1.562834
2.107620
1.939535
2.282858
9.343624
29.991865
96.453428
187.751651
391.999483
610.852838
916.132927
1015.715003
1015.715003
1015.715003
1015.715003
831.203461
598.249435
325.158834
188.843608
89.660883
56.936741
53.642988
68.295002
96.184611
118.172765
146.045685
161.817670
165.325999
159.574747
143.073797
123.089552
92.380643
70.480704
47.643781
35.149455
24.157763
18.992424
15.705824
16.086698
15.386939
15.269518
15.537739
15.386939
15.317798
15.117526
15.592575
15.986562
16.009808
15.814900
17.520785
17.499924
18.346906
18.725991
19.523501
19.142628
20.467639
20.355582
21.283627
21.821856
21.942854
21.993518
22.637844
23.022890
22.977591
23.383498
24.106503
23.028851
24.243593
24.442673
23.894906
23.254752
23.650527
23.347735
23.958683
23.254752
23.500919
23.875833
23.777485
##ZVALUE=285
0.934601
0.991821
0.646710
0.891685
0.926852
0.871420
0.908971
0.882745
1.009703
1.036525
1.006722
1.188517
0.988841
1.083612
1.116991
1.105666
1.268983
1.231432
1.317859
1.208782
1.396537
1.190901
1.778603
1.765490
4.979968
16.149879
50.797462
107.554793
246.713758
416.475534
613.893867
873.369575
1008.767486
1015.681028
978.667736
767.037868
577.523708
350.221992
215.400457
103.111863
59.396625
36.453605
40.456653
61.114430
81.533790
112.119913
131.640434
148.413777
156.021714
151.776671
139.913559
114.604831
94.527602
65.228939
47.887564
30.403733
22.164583
16.572475
14.635921
14.197826
13.630986
14.312863
14.397502
14.178753
14.683604
15.652776
15.953779
15.864968
17.162561
17.763972
18.090606
18.243790
19.259453
19.706488
20.874739
20.922422
20.600557
21.497607
21.855831
21.390915
22.707582
22.270679
23.285747
23.595691
23.666620
23.704767
23.682714
23.564696
23.595691
24.195910
23.155808
24.057627
23.246408
23.202896
23.977757
23.023486
##ZVALUE=290
0.763535
1.093745
0.885725
0.880957
0.925660
0.884533
1.012683
0.948906
0.878572
0.778437
1.042485
0.971556
1.014471
0.913739
0.969768
1.014471
0.918508
1.139641
0.953674
1.190901
1.234412
1.025796
1.367927
1.576543
1.372695
1.794696
2.362728
6.598830
27.618408
66.848993
134.088993
297.325850
482.886434
744.606853
900.456905
996.303558
961.709023
793.492794
627.042651
408.800840
265.881419
132.280588
72.093606
33.976436
26.802421
37.584901
52.343607
76.284409
96.717477
125.517845
139.534473
151.934624
147.895813
132.978559
115.123987
85.766912
64.691901
44.203997
30.974746
20.827651
17.498732
14.040470
13.877749
14.101863
14.230609
14.418960
14.869571
15.720725
16.255975
17.446876
17.471910
18.371940
18.450618
19.666553
20.131469
21.140575
21.256804
20.831823
21.445751
22.078753
22.370815
22.628903
23.416877
23.607612
23.324490
23.217797
24.021864
23.372769
24.044514
22.895932
23.792982
23.761988
23.364425
23.996830
23.109913
23.267865
##ZVALUE=295
0.783801
0.790954
0.816584
0.797510
0.806451
0.779629
0.924468
0.879765
0.979900
0.958443
0.882745
0.799894
0.789762
0.921488
0.908971
0.805855
0.908971
0.887513
0.878572
1.023412
1.150966
1.122952
1.326799
1.129508
1.490712
1.397729
1.398921
1.624823
1.831651
2.870560
8.979440
38.945675
90.767741
226.020813
380.532742
632.448792
800.397992
951.800942
972.994566
857.514739
713.598728
491.952896
331.832767
173.314810
97.403526
39.757490
23.841858
22.692680
31.031966
50.018430
67.060590
94.893575
113.600492
133.752823
142.253637
138.727427
129.149556
106.449723
86.769462
61.294436
45.754910
29.713511
22.208691
17.179847
15.052557
14.790893
14.516711
14.854670
16.226768
16.314983
16.841888
18.495917
18.729568
19.290447
20.305514
20.735860
21.253824
21.796823
22.118688
22.204518
22.776723
23.051500
23.034811
23.548603
23.697615
24.165511
24.149418
23.823977
23.938417
23.814440
23.795962
23.377538
23.004413
23.456812
23.272634
23.304820
##ZVALUE=300
0.824928
0.715852
0.755787
0.710487
0.796914
0.864863
0.756979
0.663996
0.782609
0.813603
0.794530
0.698566
0.894666
0.820756
0.925660
0.830889
0.929832
0.749826
0.898838
0.902414
1.081824
1.148582
1.140833
1.127720
1.149774
1.196861
1.333952
1.327991
1.502633
1.635551
1.637936
1.711845
4.390478
24.398565
58.495998
152.970552
267.211795
478.018522
648.059845
832.623839
908.542871
878.475904
769.617558
565.257668
405.249596
225.197673
132.995844
60.240626
30.829906
16.987920
18.733740
29.836893
41.182637
64.529777
83.167553
110.083818
125.285983
135.750771
133.305788
121.588707
105.808973
81.918836
64.920783
44.060946
33.101439
23.091435
18.066764
16.490817
15.692711
15.942454
17.013550
17.418861
18.516779
19.653440
19.700527
20.096898
21.041632
21.565557
21.794438
22.303462
22.963881
23.354888
23.831725
23.976564
25.063753
23.865700
23.995638
24.494529
23.994446
23.989677
24.067760
24.214983
23.651719
22.807717
23.602843
23.656487
##ZVALUE=305
0.926852
0.916719
0.783801
0.765920
0.849962
0.752807
0.859499
0.828505
0.783801
0.713468
0.945926
0.798702
0.936985
0.996590
0.821948
1.022816
0.900626
0.852942
0.978708
0.948906
1.023412
0.941753
0.976920
1.004934
1.098514
1.393557
1.273751
1.037717
1.145601
1.287460
1.452565
1.418591
1.549721
1.625419
2.669692
13.105869
37.264824
104.273558
190.880895
357.970595
501.143932
680.270791
774.631500
802.945495
745.908618
587.064624
456.597805
289.174914
180.557966
82.604885
43.740869
18.184781
14.405847
18.346906
26.806593
43.242574
59.577823
83.196759
101.548433
121.042728
129.490495
128.833652
119.750500
101.170540
84.330440
62.239766
46.479702
31.956434
24.964809
19.530654
18.239617
17.874837
18.446445
18.730760
20.130873
20.508766
21.041632
21.509528
21.953583
23.313761
23.264885
23.593903
23.728609
24.181604
25.257468
25.105476
24.442673
25.045872
25.058985
24.616718
24.536848
24.457574
23.602843
23.525953
23.838878
24.023652
##ZVALUE=310
0.648499
0.722408
0.626445
0.764728
0.702739
0.746846
0.672936
0.884533
0.766516
0.846982
0.659823
0.656843
0.516772
0.663996
0.896454
0.708699
0.791550
0.901818
0.715852
0.897646
0.743866
0.912547
0.945926
0.880957
1.038909
1.160502
0.976920
0.835657
0.928640
1.019835
1.185536
1.219511
1.301765
1.446605
1.509786
1.718998
1.842976
6.005764
19.301772
64.301491
127.341747
262.708664
398.056507
591.946840
724.167824
825.641751
824.159980
724.505782
596.324801
397.435427
262.363553
130.894780
70.414543
27.392507
14.104843
12.823939
16.023517
25.050640
36.269426
56.698918
73.212981
96.855760
111.542940
123.292804
124.052763
115.391612
102.139711
81.753731
65.769553
46.474934
35.101771
27.188659
23.232698
20.716786
21.064878
20.737648
20.732880
21.954775
21.649599
22.673607
23.355484
23.956895
24.321675
24.865866
24.506450
24.602413
25.408864
24.693608
25.125742
25.665760
25.225878
24.644732
24.452806
23.646951
24.235845
23.729801
##ZVALUE=315
0.533462
0.552535
0.624657
0.644922
0.583529
0.514984
0.715852
0.621676
0.719428
0.628829
0.673532
0.722408
0.402927
0.670552
0.583529
0.709891
0.660419
0.889897
0.786781
0.654459
0.892878
0.840425
0.774860
0.892878
0.886917
0.899434
0.833869
0.855923
1.027584
1.018643
0.855923
1.059771
1.092553
1.324415
1.243949
1.242757
1.429915
1.522899
1.846552
2.850890
9.836555
40.186644
88.709593
208.380818
338.602662
610.934496
870.473981
1015.546918
1015.546918
1015.546918
1015.546918
951.708555
636.647940
298.675895
140.169859
43.843985
19.524693
11.774898
12.736917
16.479492
22.447705
36.657453
50.467849
71.275830
87.499619
107.522607
116.698742
117.943883
112.550855
96.613765
82.227588
63.501596
49.727559
35.794973
29.177666
24.160743
22.631884
22.657514
22.198558
22.824407
23.030639
23.796558
24.768710
24.258494
24.861693
25.365949
25.495887
25.626421
25.142431
25.205612
24.714470
25.039911
24.510622
24.432540
24.118423
24.100542
##ZVALUE=320
0.792742
0.640750
0.695586
0.712872
0.740886
0.749826
0.824928
0.759959
0.808835
0.721812
0.839829
0.695586
0.667572
0.703931
0.676513
0.861883
0.825524
0.853539
0.925660
0.747442
0.812411
0.773668
0.871420
0.782609
0.982881
1.036525
0.937581
0.930429
1.148582
1.117587
1.124740
1.144409
1.331568
1.227856
1.215935
1.413822
1.364946
1.245737
1.502633
1.517534
1.802444
2.392530
5.043745
22.838712
59.257746
157.690644
276.438594
514.981747
759.104490
1015.681624
1015.681624
1015.681624
1015.681624
1010.795832
769.602656
423.028469
237.501860
95.047951
39.880872
13.813972
10.981560
12.905598
15.442967
22.587776
31.675696
49.662590
64.539909
85.977912
100.849867
111.639500
113.901496
107.339621
96.904635
78.952909
64.125657
48.189759
38.912892
30.519962
26.668906
24.569631
23.888946
24.255514
24.700761
24.173856
24.583936
25.266409
25.652647
25.554895
25.618672
25.118589
25.434494
25.415421
25.202632
24.582744
24.496913
24.426579
##ZVALUE=325
0.515580
0.529885
0.675917
0.638962
0.655651
0.704527
0.599623
0.769496
0.719428
0.766516
0.686646
0.698566
0.633597
0.811815
0.578761
0.669956
0.683665
0.819564
0.710487
0.826716
0.781417
0.860691
0.787973
0.780821
0.830889
0.830889
0.841618
0.960827
0.815988
0.904799
0.980496
0.909567
0.762939
1.006722
0.946522
1.134872
1.095533
1.030564
1.217723
1.318455
1.469851
1.488924
1.368523
1.896620
3.043413
14.697909
37.962794
102.344751
188.979506
385.074615
588.682890
892.469883
1015.681624
1015.681624
1015.681624
914.588571
661.472678
360.150933
205.379725
85.941553
39.851665
15.715957
11.279583
11.265874
12.382865
15.943646
21.770597
33.205748
46.887994
67.153573
82.020760
97.846985
107.217431
109.272003
104.237795
90.283751
77.687502
60.280561
49.098730
36.418438
31.119585
26.901960
24.935603
24.627447
24.302602
24.477839
24.212599
24.888515
24.821758
25.168657
24.684668
25.208592
24.572611
25.186539
24.369955
24.630427
##ZVALUE=330
0.667572
0.601411
0.701547
0.632405
0.577569
0.580549
0.616908
0.509620
0.597835
0.772476
0.588894
0.661612
0.779629
0.734925
0.787973
0.773668
0.704527
0.757575
0.620484
0.777841
0.650883
0.756979
0.802875
0.892878
0.909567
0.756979
0.852942
0.704527
1.010895
0.948906
0.833869
0.939965
0.747442
1.006722
1.032948
1.088977
0.815988
0.943542
0.968575
0.996590
0.936985
1.097918
1.373887
1.368523
1.513958
1.654625
2.034903
6.701946
20.961761
70.358515
138.734579
282.118917
427.036881
653.708577
825.684667
991.063714
1015.681624
927.065015
774.074793
512.240529
325.714946
147.192478
71.015954
25.070906
13.538599
11.224747
11.231899
13.183951
16.282797
23.542643
32.090545
48.030615
61.364770
81.564784
93.860626
103.776455
104.164481
97.945929
88.202953
73.149800
60.291886
46.268702
38.314462
31.490922
27.872920
25.659800
24.689436
24.239421
24.182796
24.382472
24.511814
24.387836
23.555756
23.942590
24.150610
24.025440
##ZVALUE=335
0.550747
0.774860
0.632405
0.696778
0.676513
0.593662
0.723600
0.603795
0.634789
0.569820
0.635982
0.581741
0.617504
0.639558
0.595450
0.749826
0.668764
0.681877
0.778437
0.554919
0.671744
0.537634
0.710487
0.764728
0.719428
0.760555
0.668764
0.874996
0.767708
0.673532
0.668764
0.768900
0.724792
0.775456
0.686646
0.758767
0.997782
0.848770
0.980496
1.027584
1.053810
1.068711
1.260638
1.094937
1.062751
1.285672
1.136661
1.404881
1.514554
2.308488
11.764765
34.219623
104.491711
209.730864
414.828658
581.505895
772.141814
852.635503
837.000012
746.845603
560.206771
415.068865
243.797898
146.713853
64.200759
31.619668
14.194846
11.481643
11.283755
11.570454
13.649464
16.493797
23.448467
31.990409
45.470595
58.878660
75.988770
88.292956
97.310543
98.411441
93.028545
84.021688
70.799589
60.247779
47.261715
38.885474
31.364560
27.424693
24.941564
23.870468
23.876429
23.801923
23.540854
23.018718
23.347735
23.001432
##ZVALUE=340
0.505447
0.444651
0.502467
0.578761
0.618696
0.561476
0.582933
0.573993
0.612736
0.577569
0.635982
0.498891
0.526905
0.568628
0.572801
0.757575
0.595450
0.568628
0.762939
0.605583
0.676513
0.580549
0.678897
0.675917
0.634789
0.781417
0.585914
0.563860
0.872612
0.677705
0.706911
0.819564
0.857711
0.639558
0.930429
0.817776
0.865459
0.763535
0.982881
0.975728
0.989437
1.081824
0.941753
0.872612
0.952482
1.110435
1.144409
1.191497
1.142621
1.184940
1.334548
2.072453
5.297661
25.023818
62.364936
159.438848
276.075602
467.177629
625.123978
855.928659
855.646729
810.889602
609.526634
506.183505
349.777937
92.597604
85.850954
23.194551
16.588569
11.735559
11.208653
12.120605
12.493730
15.910864
17.924905
22.285581
32.576919
54.316521
58.631897
73.965788
84.636807
93.366504
94.216466
88.638663
81.811547
64.841509
57.593584
38.688779
36.267638
27.659535
26.766658
24.163723
23.122430
22.126436
22.107959
21.855831
##ZVALUE=345
0.641942
0.564456
0.720620
0.688434
0.727773
0.688434
0.759959
0.708699
0.740886
0.769496
0.659823
0.716448
0.689626
0.622869
0.557899
0.625849
0.770688
0.670552
0.573993
0.656843
0.636578
0.661612
0.817776
0.625849
0.611544
0.804663
0.865459
0.827909
0.814795
0.682473
0.785589
0.829697
0.863671
0.759959
0.798702
0.718832
0.975728
0.802875
0.786781
0.947714
0.835657
0.911951
0.917912
0.953674
0.974536
1.012683
1.043677
1.091957
1.025796
1.265407
1.266599
1.386404
1.383424
1.480579
2.819896
13.743639
39.055943
106.002688
185.576677
336.060524
474.763513
664.746761
776.708722
840.124488
798.794031
638.943911
475.005507
268.209577
143.823624
55.182576
26.486516
13.015866
11.352897
11.670589
11.956692
12.929440
14.029741
18.024445
22.311807
31.522512
41.389465
56.785941
66.947937
78.410506
83.691478
87.513924
84.883571
76.813698
68.118572
56.013465
46.604872
35.748482
30.164719
25.420785
23.209453
21.721721
##ZVALUE=350
0.628829
0.604987
0.693798
0.682473
0.728965
0.564456
0.751615
0.810623
0.737906
0.697970
0.725985
0.880957
0.771880
0.571609
0.841618
0.677705
0.737906
0.695586
0.741482
0.858903
0.742674
0.755787
0.672936
0.821948
0.865459
0.769496
0.734925
0.673532
0.729561
0.743866
0.768900
0.837445
0.731945
0.814795
0.750422
0.826716
0.828505
0.890493
0.839829
0.922680
0.834465
0.949502
0.852942
1.176000
0.970960
0.916719
0.945926
1.086593
1.089573
0.912547
1.154542
1.131892
1.064539
1.210570
1.418591
1.369715
1.880527
7.037520
20.932555
65.929890
126.931667
258.813500
380.399823
546.127558
668.174028
768.509507
766.515732
672.951937
540.530682
333.366990
206.689835
94.936490
43.975711
15.998483
11.360645
11.090636
11.414886
12.097955
12.491941
14.792681
16.836524
22.292733
27.738810
37.792921
47.461987
60.641766
69.361925
78.295469
80.783963
78.801513
72.966814
61.839819
53.400993
41.632652
34.813881
28.396845
##ZVALUE=355
0.683665
0.619888
0.606775
0.556707
0.600815
0.556707
0.662804
0.609756
0.700951
0.655651
0.655651
0.458956
0.595450
0.545979
0.515580
0.592470
0.643730
0.641942
1.010895
0.711679
0.664592
0.706911
0.609756
0.585914
0.631809
0.626445
0.715852
0.511408
0.598431
0.749826
0.666976
0.567436
0.731945
0.774860
0.623465
0.697970
0.681877
0.749826
0.636578
0.620484
0.708699
0.858903
0.833869
0.692606
0.788569
0.903606
0.891685
0.842810
0.878572
0.865459
1.000762
0.854731
0.939965
1.014471
1.007915
1.187921
0.994802
1.207590
1.379848
3.354549
11.260509
44.904947
92.325807
194.295645
304.825902
477.250814
599.747896
713.405013
729.611516
649.645925
531.149507
345.185995
215.083957
93.551874
45.598745
17.991662
11.579990
10.326505
10.615587
10.940433
11.332631
12.529492
13.146996
16.059875
19.074678
25.684834
32.496452
42.570829
51.172972
63.065886
68.988800
73.202848
71.142912
66.810846
58.908463
49.532652
##ZVALUE=360
0.519753
0.408888
0.610948
0.634789
0.579953
0.652671
0.590682
0.517964
0.614524
0.471473
0.619888
0.547767
0.525713
0.535846
0.578761
0.664592
0.488758
0.552535
0.661612
0.632405
0.765920
0.652671
0.581741
0.579953
0.683665
0.621676
0.772476
0.791550
0.788569
0.545979
0.616908
0.678897
0.763535
0.726581
0.780821
0.797510
0.775456
0.690818
0.631809
0.749826
0.744462
0.693798
0.793934
0.756979
0.765920
0.689626
0.794530
0.906587
0.793934
0.809431
0.749826
0.851750
0.992417
1.002550
0.954866
0.889897
1.143813
1.046658
1.164675
1.309514
1.332760
1.959801
5.343556
22.409558
53.622723
134.670734
223.770738
363.142490
482.844710
614.798665
671.135783
658.955574
588.864684
426.069498
286.122561
138.664842
69.992542
27.479529
14.072657
9.955764
9.873509
10.239482
10.348558
10.806918
11.240840
12.565851
13.775826
16.922951
21.010637
28.032660
35.440922
46.098828
54.730773
62.083602
65.864921
66.437721
##ZVALUE=365
0.590682
0.482798
0.563860
0.587702
0.562668
0.566840
0.603795
0.591874
0.622869
0.498891
0.680685
0.564456
0.485778
0.587702
0.625849
0.686646
0.665784
0.689626
0.630617
0.583529
0.686646
0.415444
0.618696
0.619888
0.608563
0.623465
0.648499
0.646710
0.723600
0.662804
0.498891
0.618696
0.711679
0.712872
0.651479
0.680685
0.648499
0.640750
0.741482
0.748634
0.688434
0.763535
0.708699
0.858903
0.755787
0.713468
0.854731
0.751615
0.853539
0.772476
0.720620
0.798702
0.849962
0.737906
0.946522
0.811815
0.937581
0.966787
0.964999
1.103878
1.128912
1.316667
1.283884
1.464486
2.718568
12.983680
34.401417
90.514421
167.105794
309.919715
418.260694
538.985729
603.593588
616.210699
564.691424
438.296795
323.214531
187.199712
104.472637
39.396882
17.473698
9.479523
9.138584
9.283423
9.347796
9.675622
9.876490
10.611415
10.860562
12.196898
13.990998
18.533468
23.209453
31.503439
38.678646
47.716498
##ZVALUE=370
0.565648
0.580549
0.665784
0.488758
0.349879
0.625849
0.460744
0.542998
0.689626
0.563860
0.572801
0.501871
0.585914
0.544786
0.493526
0.596642
0.531673
0.639558
0.596642
0.539422
0.523925
0.531673
0.662804
0.526905
0.578761
0.640750
0.608563
0.616908
0.683665
0.586510
0.707507
0.577569
0.605583
0.781417
0.645518
0.740886
0.732541
0.668764
0.698566
0.612736
0.650883
0.632405
0.830889
0.645518
0.768900
0.825524
0.577569
0.872612
0.621676
0.674725
0.700951
0.753999
0.840425
0.826716
0.800490
0.804663
0.848770
0.856519
0.832677
0.940561
0.923872
1.068711
1.001954
1.002550
1.049638
1.359582
1.627803
6.639957
21.089911
69.199800
129.091740
242.484808
350.544453
486.716628
556.817651
578.864813
543.849468
443.288684
342.851877
204.950571
122.113824
51.511526
25.006533
11.152625
8.694530
8.373857
8.230805
8.730888
8.792877
9.369850
9.638667
9.995699
10.842681
13.268590
16.157627
21.643639
##ZVALUE=375
0.619888
0.437498
0.502467
0.566840
0.347495
0.441670
0.663996
0.453591
0.558496
0.453591
0.536442
0.517964
0.462532
0.403523
0.516772
0.572801
0.580549
0.421405
0.474453
0.597835
0.503659
0.518560
0.572801
0.461936
0.672936
0.674725
0.485778
0.500679
0.453591
0.514984
0.577569
0.572801
0.542998
0.533462
0.613928
0.719428
0.759959
0.587702
0.603795
0.498891
0.626445
0.552535
0.597835
0.679493
0.552535
0.512600
0.597835
0.852942
0.761747
0.790954
0.678897
0.552535
0.765920
0.729561
0.422597
0.710487
0.795722
0.762939
0.800490
0.828505
0.642538
0.763535
0.832677
0.914931
0.825524
1.024604
1.051426
1.282692
1.284480
3.192425
11.237860
41.833520
88.388920
198.341608
306.764841
450.930595
533.521771
574.058890
550.810695
447.914004
345.875621
210.821629
131.140947
61.751604
32.559633
13.611913
8.626580
7.667542
7.361770
7.682443
7.896423
8.129478
8.569956
8.771420
9.058714
9.923577
##ZVALUE=380
0.492930
0.405908
0.577569
0.546575
0.509620
0.581741
0.582933
0.632405
0.525713
0.558496
0.478625
0.621676
0.676513
0.443459
0.505447
0.639558
0.482798
0.581741
0.550747
0.607967
0.611544
0.456572
0.441670
0.573993
0.662804
0.594854
0.667572
0.609756
0.563860
0.507832
0.502467
0.568628
0.539422
0.694990
0.589490
0.540614
0.441670
0.526905
0.675917
0.757575
0.650883
0.602603
0.630617
0.687838
0.672936
0.710487
0.587702
0.671744
0.629425
0.563860
0.679493
0.582933
0.700951
0.503659
0.680685
0.660419
0.676513
0.828505
0.591874
0.773668
0.652671
0.651479
0.819564
0.860691
0.776649
0.764728
0.779629
0.960827
1.026988
1.070499
1.289845
1.956820
6.140471
28.567910
66.957474
158.939958
253.842473
390.598774
485.941768
559.819937
553.647876
476.156473
387.295485
257.999897
171.446800
86.457729
46.368837
18.635988
10.452867
7.332563
7.234812
7.203817
7.300973
7.642508
7.735491
7.863641
##ZVALUE=385
0.487566
0.426769
0.541806
0.567436
0.544786
0.436902
0.469685
0.565648
0.547767
0.566840
0.671744
0.617504
0.588894
0.508428
0.474453
0.518560
0.461936
0.609756
0.732541
0.550747
0.559688
0.672936
0.455976
0.541806
0.507832
0.402927
0.341535
0.665784
0.752807
0.558496
0.641942
0.570416
0.636578
0.574589
0.563860
0.466704
0.595450
0.624657
0.603795
0.545979
0.518560
0.527501
0.593662
0.595450
0.554919
0.634789
0.679493
0.577569
0.730753
0.717640
0.762939
0.655651
0.502467
0.690818
0.562668
0.533462
0.721812
0.521541
0.634789
0.645518
0.860691
0.708699
0.686646
0.700951
0.648499
0.756979
0.778437
0.936985
1.034737
1.032948
1.134872
1.221895
1.219511
1.468658
3.493428
11.888742
44.288635
93.712807
202.945471
308.025479
442.271829
516.644716
547.560453
524.273515
434.922576
341.812968
214.492679
137.354732
63.714981
33.362508
13.648868
7.882714
6.652474
6.436706
6.711483
6.687641
##ZVALUE=390
0.623465
0.402927
0.521541
0.463724
0.556707
0.498891
0.415444
0.510812
0.461936
0.514984
0.520945
0.560880
0.402927
0.624657
0.671744
0.534654
0.507832
0.451803
0.520945
0.584722
0.611544
0.542998
0.492930
0.543594
0.540614
0.488758
0.471473
0.666976
0.520945
0.596642
0.518560
0.627637
0.666976
0.567436
0.600815
0.658631
0.591874
0.759959
0.592470
0.573993
0.738502
0.663996
0.776649
0.668764
0.685453
0.611544
0.533462
0.599623
0.548959
0.631809
0.650883
0.712872
0.654459
0.671744
0.591874
0.665784
0.743866
0.672936
0.575781
0.604987
0.606775
0.750422
0.779629
0.695586
0.811815
0.693798
0.819564
0.869632
1.027584
0.993609
0.909567
0.906587
1.120567
1.035929
1.229644
1.157522
1.794696
8.391738
25.240779
77.491999
147.606730
277.547836
382.312536
495.770574
543.758869
544.585586
493.529439
383.037925
287.576914
175.596476
102.214813
43.353438
21.805763
9.445548
6.470680
6.015897
##ZVALUE=395
0.526905
0.562668
0.327826
0.379682
0.436902
0.589490
0.519753
0.558496
0.543594
0.633597
0.500679
0.476837
0.371933
0.549555
0.558496
0.470877
0.506639
0.377893
0.279546
0.646710
0.558496
0.617504
0.510812
0.640750
0.528693
0.565648
0.529885
0.499487
0.641942
0.677705
0.589490
0.675917
0.470877
0.690818
0.453591
0.614524
0.719428
0.726581
0.619888
0.659823
0.664592
0.577569
0.557899
0.734925
0.460744
0.677705
0.596642
0.731945
0.654459
0.724792
0.697970
0.436902
0.604987
0.593662
0.593662
0.541806
0.681877
0.667572
0.569820
0.653863
0.497699
0.730753
0.661612
0.719428
0.623465
0.587702
0.868440
0.851750
0.857711
1.076460
0.870824
0.979900
1.076460
1.007915
0.909567
1.069903
0.979900
1.240969
1.365542
5.004406
17.581582
60.088634
116.317868
220.587850
324.021578
465.204716
545.115471
586.493611
564.731956
461.870432
357.731581
217.427611
133.835673
60.565472
30.332804
11.810660
##ZVALUE=400
0.445843
0.549555
0.452995
0.504851
0.420809
0.473857
0.441670
0.531673
0.370741
0.438690
0.516772
0.533462
0.471473
0.581741
0.489950
0.548959
0.518560
0.391603
0.562668
0.474453
0.476837
0.467896
0.401735
0.504851
0.515580
0.561476
0.462532
0.498891
0.657439
0.516772
0.780821
0.651479
0.610948
0.756979
0.620484
0.735521
0.690818
0.632405
0.599623
0.695586
0.558496
0.646710
0.569820
0.740886
0.701547
0.671744
0.622869
0.591874
0.640750
0.596642
0.688434
0.462532
0.616908
0.672936
0.510812
0.545979
0.686646
0.452995
0.611544
0.540614
0.632405
0.679493
0.745654
0.633597
0.668764
0.631809
0.927448
0.788569
0.839829
1.120567
0.909567
0.699759
1.020432
0.840425
0.899434
0.919700
0.958443
0.823736
0.944734
1.103878
1.121759
2.902746
9.648800
37.251711
78.586936
173.128843
274.254680
420.290828
516.389012
589.357018
590.297580
506.256819
411.701798
275.221467
179.659724
90.533495
##END
