##TITLE=FSH702
##FORMAT=SPECTACLE-ASCII V-1.2
##DATA TYPE=ULTRAVIOLET SPECTRUM
##SECOND TYPE=ULTRAVIOLET SPECTRUM
##DATE=01/11/18
##TIME=18:19:46
##SPECTROMETER/DATA SYSTEM=SPECTACLE
##XUNITS=NM EM
##YUNITS=ENERGY
##YFACTOR=1
##FIRSTX=220
##LASTX=410
##NPOINTS=96
##3DDATA=Equidistant
##ZUNITS=NM EX
##FIRSTZ=210
##LASTZ=400
##ZPOINTS=39
##XYDATA=(Y..Y)
##ZVALUE=210
1.745820
1.508594
1.776814
1.683831
1.710653
2.268553
2.331734
2.388954
2.170801
2.039671
2.673864
2.691746
2.197623
2.290606
3.066659
2.474785
2.847910
2.641678
3.931522
3.160834
3.369451
3.732443
3.264546
3.909469
4.028678
4.242659
4.281998
4.145503
5.008578
5.063415
4.704595
4.885793
5.345941
4.687905
5.954504
5.027652
6.118417
5.707741
5.498528
6.359816
5.595684
5.550981
5.243421
5.843639
5.012751
5.935431
6.474853
4.932880
5.526543
5.455613
5.518794
5.750656
5.867481
5.460978
6.123781
5.450845
6.602407
6.362796
6.146431
6.588697
5.893707
6.369948
6.211996
6.311536
7.130504
6.641746
6.394982
6.997585
8.027554
9.406805
9.971857
13.335943
15.760660
17.907619
19.108653
22.317767
22.832751
23.196936
22.705793
22.953749
21.750927
19.676685
17.098784
14.276505
12.573600
9.358525
8.712411
7.327795
6.717443
6.444454
6.274581
6.466508
6.468892
6.733537
6.721616
8.025765
##ZVALUE=215
3.211498
3.356934
2.807975
2.762675
2.575517
2.824664
2.278686
3.436804
3.720522
3.888607
3.613830
3.523827
3.034472
3.277659
3.567934
3.116727
2.774596
3.315806
3.564954
3.270507
3.735423
3.714561
4.579425
3.806949
4.165769
4.240870
4.921556
4.826784
4.921556
7.295609
6.502867
6.995797
6.883740
6.874800
5.580783
6.981492
7.030964
7.259846
6.869435
8.570552
6.503463
7.241964
7.051826
6.216764
6.248951
7.605553
7.778406
6.983876
6.788969
8.052588
7.331967
6.142855
6.093979
5.957484
6.579757
5.966425
6.764531
6.862879
6.728768
6.692410
6.510615
6.543994
7.175803
6.898642
7.547736
6.889701
7.233620
7.606745
9.428859
9.503961
10.786653
12.655854
15.182495
15.313625
18.211603
19.622445
19.186735
20.022988
20.708442
18.412471
18.531680
16.251802
14.249682
13.582706
11.378527
8.831620
8.091927
8.118749
6.138682
6.935596
6.641746
6.276965
6.771684
6.233454
7.254481
6.517768
##ZVALUE=220
11.221766
11.309981
12.741685
12.250543
10.657907
10.262728
7.587671
7.379651
7.319450
6.687641
7.580519
9.423494
8.586645
7.263422
6.238818
6.948709
5.080700
4.181862
3.558993
3.111959
3.649592
3.493428
4.214644
4.348755
4.627705
4.649758
6.263852
7.063746
6.831884
7.595420
9.121895
8.562803
8.484721
9.864569
9.397864
8.884668
8.855462
10.472536
9.632707
10.350943
8.811951
8.882880
9.306669
9.034872
8.673668
8.111000
8.375645
8.160472
7.909536
7.842779
7.390976
7.292628
7.878542
7.602572
6.513596
7.490516
7.603765
8.043647
7.045865
7.621646
6.808639
7.615685
6.923676
7.547736
7.593632
7.859468
8.490682
9.763837
9.657741
11.523962
12.350678
14.155507
14.315844
17.551780
16.909838
19.651651
19.412637
18.123984
19.150972
19.792914
18.961430
17.477870
16.885996
14.308691
12.066960
10.886788
11.392832
10.143518
9.556413
8.737445
8.813739
8.217692
8.049607
8.363724
7.857680
8.751750
##ZVALUE=225
23.374557
26.919842
32.189488
40.518641
44.173002
44.368505
39.888620
35.658479
28.010607
21.207929
17.607808
17.970800
18.418431
20.763874
20.392537
20.720959
17.891526
14.691949
10.974407
8.643866
7.040501
4.864931
4.621744
3.930926
5.042553
5.180836
6.556511
7.477999
8.479953
8.570552
10.006428
10.584593
11.227727
12.862682
12.685657
12.372732
12.922883
13.089776
12.487769
13.288856
12.493730
11.877418
11.864901
12.449622
10.382533
10.322928
10.370612
11.022687
9.692907
10.668635
9.907484
8.535981
9.916425
9.843707
9.602904
10.549426
9.431839
9.597540
11.231899
10.091662
10.375977
10.692477
9.643435
10.792613
10.494590
11.176467
11.600852
12.805462
13.180971
14.669895
15.427470
16.496778
18.015504
19.251704
21.307468
21.356940
22.035837
23.071766
23.151636
23.131967
21.023750
20.917654
21.005869
19.834638
16.506910
16.538501
15.491843
15.252829
15.483499
14.957786
15.191436
12.939572
13.794899
13.530850
13.374686
13.853908
##ZVALUE=230
26.255846
30.509830
47.801733
80.533624
108.055472
134.767890
145.388842
145.458579
134.094954
115.879774
79.419613
63.511729
43.948889
38.258433
37.202835
42.425990
43.735504
45.116544
39.758682
33.500791
25.677681
18.270612
12.881756
8.444786
7.153749
7.581711
7.159710
7.718801
7.958412
9.250641
10.105968
11.414886
12.533665
11.523962
13.129711
13.306737
13.884902
14.100671
13.506413
16.116500
13.069510
14.077425
14.880896
12.932420
13.049841
13.130903
13.663769
13.101697
11.793971
12.875795
12.082458
11.749864
12.275577
12.113452
13.071895
13.637543
13.189912
13.393760
13.198853
12.327433
15.042424
15.376806
14.801621
16.434789
16.747713
16.651750
16.779900
19.077659
19.449592
21.375418
22.703409
23.668408
26.957989
29.176474
29.845834
31.405687
33.178926
33.962727
33.426881
33.824444
32.250881
30.755997
30.334592
30.368567
27.433634
25.360584
29.043555
25.967956
27.197599
25.677681
25.603771
25.190711
26.260614
23.715496
25.921464
24.662614
##ZVALUE=235
9.988546
10.894537
27.280450
69.941878
120.573640
191.894770
259.756446
342.229009
380.851626
396.140814
357.588530
304.076672
217.112899
150.442719
100.328922
76.823831
65.000653
71.470737
77.024698
83.247423
74.757934
67.829490
48.728585
36.633611
28.134584
17.535686
11.575818
9.529591
8.675456
9.807944
8.742809
10.310411
11.901855
11.665821
12.086630
12.336969
11.690855
12.891889
12.878776
14.582872
13.755560
13.383627
13.265610
14.580488
13.708472
14.373660
14.156699
14.209747
14.411807
14.135838
13.437867
14.421940
13.069510
13.789535
16.287565
15.139580
16.205907
18.379688
15.649796
16.669631
18.195510
19.932985
21.370649
20.691752
22.066832
22.150874
22.835732
26.859641
26.634932
28.623939
31.777620
33.439994
37.522912
38.388968
39.689541
42.767525
43.792725
43.594837
44.737458
42.964816
43.695569
43.059587
41.297674
44.234991
42.926669
43.581724
43.551922
41.427612
42.346716
40.985942
41.579604
40.838718
39.435625
38.904548
40.356517
39.627552
##ZVALUE=240
2.247691
1.836419
6.954670
16.411543
49.009919
98.996758
204.992890
307.013988
474.330783
573.523641
667.367578
663.915873
608.749390
491.267443
386.629701
241.771936
165.986419
112.935901
95.629692
96.863508
111.588836
117.632747
113.341808
104.203820
84.682703
68.643689
48.300624
34.670830
20.711422
15.204549
12.069941
11.670589
11.095405
10.521412
11.519790
11.300445
11.754632
11.407733
13.884902
12.789965
12.503862
12.529492
14.112592
14.558434
14.606714
14.532804
14.575720
15.172958
12.557507
14.622808
15.334487
15.912652
16.527772
16.135573
16.716719
17.269850
16.930699
19.134879
20.935535
20.891428
22.706985
21.282434
24.663806
25.914907
26.244521
26.387572
29.844642
31.237602
32.554865
34.215450
37.753582
41.163564
42.269826
45.859814
48.191547
49.167871
49.613714
51.837564
52.039623
54.274797
54.233670
54.452419
58.211684
57.381988
58.115721
58.259964
56.401491
56.600571
56.592822
54.587722
57.586432
55.393577
57.270527
56.028962
56.729913
54.331422
##ZVALUE=245
1.744628
2.161860
2.067685
2.331734
4.129410
13.984442
34.985542
103.095770
200.444460
320.477486
519.828796
676.066875
810.894966
833.937526
779.691935
683.866739
495.281816
363.136530
251.931548
139.562488
106.452703
99.005699
113.115907
129.088759
135.921836
128.641725
117.894411
94.751716
78.237653
52.644610
39.074421
24.380684
19.476414
13.469458
12.912750
13.027787
13.615489
12.956858
13.632774
14.283657
14.203787
13.494492
13.542771
14.516711
14.790893
14.158487
15.573502
14.867783
14.886856
16.082525
16.585588
16.212463
16.332865
17.361641
17.075539
16.348958
18.314719
17.968416
19.347668
20.152926
21.541715
22.075772
21.875501
24.302602
24.098754
27.371645
27.633905
28.976798
32.535791
33.709407
34.382939
38.684607
41.014552
44.465661
46.669841
48.478842
50.611496
50.710440
51.768422
54.370761
53.759813
56.722760
56.280494
57.809949
56.816936
55.866838
58.892965
57.109594
57.389736
57.966709
59.673786
57.643652
59.663653
56.232810
55.531859
56.878924
##ZVALUE=250
1.568794
1.533628
1.590848
1.633763
1.848936
1.746416
2.540946
6.821752
31.598806
72.443485
178.159475
300.433636
431.232452
638.525486
756.340623
840.739012
831.034780
751.373768
629.482865
446.655750
312.971473
205.178857
118.218660
96.877813
109.739900
125.520825
140.171647
141.713619
137.437582
129.660964
108.551979
87.182522
66.374540
42.431951
30.708909
21.142960
16.646981
15.710592
16.595721
14.272928
16.385913
16.538501
16.794801
17.359853
17.769933
16.845465
17.746687
17.803907
16.505718
17.113686
18.155575
17.535686
16.796589
18.073916
18.862486
17.071962
18.073916
18.420815
17.975569
19.319654
19.553900
20.548701
21.515489
21.665692
23.438931
24.398565
24.134517
27.557611
29.020905
31.630993
33.642650
36.305785
36.592484
39.792657
42.260885
43.583512
44.747591
44.722557
46.736002
49.081445
49.483776
51.119924
53.131580
51.997900
51.519871
53.643584
53.964853
54.569840
55.628419
55.382848
55.836439
55.477619
56.331754
57.321787
56.619644
56.406856
##ZVALUE=255
1.488924
1.683831
1.423955
1.531839
1.652837
1.571774
1.897812
2.001524
1.983643
5.482435
15.686750
56.567788
120.716691
261.358023
399.688482
553.485751
770.066977
892.712474
972.784758
955.827832
831.987858
679.046512
439.133644
295.627713
167.740583
119.944811
103.225708
112.000704
129.765868
150.435567
158.724785
154.833794
142.843723
116.920471
95.310807
69.267750
50.169826
34.537911
27.513504
21.513700
21.003485
20.398498
20.584464
21.043420
20.231605
20.882487
20.661950
19.819736
20.027757
20.662546
18.830895
19.167662
18.369555
18.307567
18.523932
18.760562
19.072890
18.403530
19.190907
19.211769
19.193888
19.735694
20.438433
21.223426
21.559000
24.274588
23.933649
24.735928
26.867986
27.271509
30.690432
30.966997
34.374595
36.170483
38.289428
38.769841
40.526986
41.768551
43.242574
43.422580
45.418739
46.867728
47.736764
48.562884
49.940944
50.353408
50.021410
51.010847
50.276518
51.401854
51.487684
50.770640
53.279996
54.926872
54.131746
51.896572
##ZVALUE=260
1.351833
1.447797
1.407862
1.324415
1.574755
1.829863
1.610518
1.642704
1.639724
1.805425
2.144575
2.782941
8.220673
31.748414
71.125627
173.449516
289.734602
486.664772
666.351914
887.462497
1004.477739
1015.690565
934.296846
772.551894
526.441932
354.352593
202.869773
127.096772
88.465810
94.422698
112.375617
141.646862
160.911679
172.127485
168.979764
151.542425
131.543875
100.211501
82.126856
57.227612
43.383837
32.509565
28.271675
24.818778
24.384856
22.626519
23.265481
22.844672
23.051500
21.794438
21.202564
21.229982
21.295547
20.521879
19.991994
19.929409
20.349622
19.522905
20.039678
19.654632
19.051433
20.187497
20.850897
20.567775
21.424890
23.543835
22.489429
23.652911
24.449825
25.437474
27.423501
29.706955
30.755997
34.029484
33.576488
36.159754
37.529469
39.037466
39.181709
41.680932
43.358803
44.461489
43.941736
45.391917
44.818521
46.081543
48.140883
48.136711
48.032999
50.292611
48.991442
49.570799
49.834847
51.354766
50.403476
49.102902
##ZVALUE=265
1.042485
0.913739
1.301765
1.173615
1.161695
1.172423
1.049638
1.195669
1.451969
1.272559
1.500845
1.619458
1.573563
2.039671
4.193783
21.637678
52.461624
133.534670
236.931443
445.507765
629.856586
819.920897
1001.973748
1015.553474
1002.593637
875.892639
649.219751
463.999510
267.419815
161.064863
105.417967
85.271597
99.520683
133.234859
153.815746
176.116824
182.783008
173.082948
161.961913
130.698681
107.694864
77.952743
60.883760
44.849515
35.297871
29.374957
26.583672
25.536418
23.907423
23.256540
21.783710
23.088455
22.166967
20.931959
21.151900
20.510554
20.906925
19.972920
19.889474
20.685792
20.425916
20.160675
20.294785
21.307468
21.378994
21.607876
23.484826
23.669600
23.924708
25.474429
27.616620
28.251410
28.612614
31.111836
32.323599
34.676790
34.316778
35.843849
38.328767
38.914680
41.141510
40.148497
42.511821
42.824745
43.141842
43.318868
44.651628
44.709444
46.660900
45.735836
45.384765
45.587420
46.373606
45.870543
45.299530
49.202442
##ZVALUE=270
1.159906
1.081824
1.096725
1.382828
1.121759
1.355410
1.244545
1.312494
1.221895
1.023412
1.377463
1.428723
1.465678
1.511574
1.780987
1.795888
3.314614
9.478927
25.614500
88.343620
179.949999
360.245705
529.026985
748.616457
891.845822
988.167524
983.327031
865.150690
732.056499
511.261821
356.606841
193.530917
122.868419
81.881881
84.006786
105.404854
131.648779
159.872770
175.061822
181.155801
178.893805
159.024000
138.654709
106.601715
83.363652
57.201982
44.805408
34.031868
28.900504
25.448799
23.882985
23.960471
22.833943
20.905733
20.881891
20.733476
20.483732
20.488501
20.151734
20.200610
20.568967
20.572543
21.074414
20.956993
21.478534
21.391511
22.556782
22.523999
24.161935
25.475621
25.189519
28.319955
28.957725
29.565692
30.688643
32.162666
33.473969
34.408569
35.905838
36.207438
36.450624
38.396716
38.807988
39.994717
41.344762
41.802526
42.094588
42.202473
43.205619
42.978525
43.861866
44.047832
44.896603
45.418739
44.568777
44.912696
##ZVALUE=275
0.902414
1.215935
0.979900
1.072884
1.179576
1.166463
1.109838
1.041889
1.259446
1.141429
0.941753
1.518726
1.509786
1.645684
1.520514
1.604557
1.503825
1.804829
2.079606
4.691482
18.677711
51.943660
150.736570
273.453593
484.323502
640.080571
798.996687
886.800885
911.162496
842.911005
731.288791
539.054871
384.211540
212.630630
134.575963
76.070428
64.617991
77.532530
98.130703
127.793550
149.821639
171.647668
176.027417
171.387792
156.170726
125.548840
102.766752
77.900887
59.735775
40.097833
32.000542
23.655891
23.322701
20.719767
20.540953
19.982457
18.927455
19.203424
20.577908
19.968748
19.895434
20.184517
20.905733
20.398498
21.284819
22.915602
22.350550
23.974776
24.617910
26.288629
26.689768
27.145743
28.434992
30.273795
31.679869
32.960773
33.431649
34.037828
35.822988
35.095811
37.551522
37.820935
39.230585
39.184690
40.635467
40.347576
40.244460
41.395426
40.620565
42.685866
43.086410
42.094588
42.509437
42.758584
41.823983
42.478442
##ZVALUE=280
1.014471
1.011491
1.008511
1.154542
0.960827
1.125932
0.879765
0.901818
1.081824
1.127720
1.117587
1.263618
1.121759
1.063943
1.163483
1.309514
1.230836
1.349449
1.511574
1.567602
1.901984
2.599955
9.568930
44.139624
106.621981
240.370631
377.037525
583.990812
729.577541
874.202847
924.948454
878.344774
778.708458
592.665672
435.212851
256.559849
157.460570
78.678727
53.334832
53.123832
67.600608
95.824599
118.941665
145.761967
161.336660
169.693828
161.076784
142.591000
123.764873
95.173717
73.786974
51.145554
38.496852
26.887655
22.173524
18.265843
18.475652
18.354654
19.396544
19.713640
19.627810
20.445585
21.812916
21.860600
22.605658
22.770762
23.675561
24.524927
25.878549
26.396513
27.441978
28.536916
29.385686
31.334758
31.916499
32.119751
33.014417
34.363866
34.637451
36.183000
36.918521
38.689971
38.842559
39.682984
38.592815
40.775537
39.912462
40.228963
40.426850
40.394664
41.046739
41.126609
40.563941
40.496588
40.429831
41.594505
##ZVALUE=285
0.963807
0.910759
0.907779
1.001954
1.034737
1.018643
0.898838
1.003742
1.020432
1.075864
1.211762
1.180768
1.027584
0.988841
1.115799
1.227856
1.258850
1.169443
1.456738
1.453757
1.478791
1.580715
1.966953
1.978874
5.179644
18.157959
63.915849
135.326982
289.040804
444.296002
609.931946
813.574791
923.053622
982.314944
947.733521
809.564590
676.169991
453.489423
299.436450
151.418447
83.665848
42.012930
40.506721
62.119961
81.511736
112.934709
131.087899
152.912736
157.728791
153.933764
142.470598
116.166472
96.748471
68.802834
50.264597
34.308434
26.280880
20.592809
18.673539
18.551946
18.801689
19.390583
20.270944
21.387935
21.467805
23.358464
23.550987
24.690628
26.020408
27.744770
27.373433
29.725432
29.537678
31.680465
33.124685
33.602715
34.842491
35.415888
35.625696
36.547780
38.367510
38.246512
39.030910
39.978623
39.777756
39.739609
40.568709
40.422678
40.772557
40.629506
41.280985
40.661693
40.586591
42.105913
39.926767
39.864779
##ZVALUE=290
0.875592
0.861883
0.804663
0.960827
0.901818
1.016855
0.843406
0.815988
0.886917
1.019835
0.949502
0.967979
0.956655
1.012683
1.037717
1.108646
1.225471
1.200438
1.018643
1.228452
1.384616
1.261830
1.482964
1.405478
1.542568
1.866817
2.691746
7.725954
36.577582
85.596442
165.866017
339.058638
515.880585
745.828748
875.508785
974.214673
974.553823
890.770555
769.933462
584.212542
421.049595
234.713554
135.303736
55.933595
32.043457
37.593842
52.913427
77.496767
98.415613
125.962496
142.437816
152.512789
149.359703
135.289431
117.887855
90.111494
69.211721
47.754645
36.376715
26.505589
22.032857
20.524859
20.262599
21.249652
21.650791
22.616982
23.105741
25.225878
26.614666
27.572513
28.879642
29.647946
30.916929
31.981468
32.784939
33.990741
35.430789
35.843849
36.730766
38.089752
38.014650
39.287806
38.674474
39.872527
40.525794
40.466785
40.701628
41.157603
40.990710
41.015744
40.909648
40.155649
41.180849
39.692521
39.775968
41.097999
##ZVALUE=295
0.855923
0.752807
0.707507
0.779629
0.776649
0.898838
0.821948
0.688434
0.841618
0.941753
1.144409
1.037717
0.962615
0.890493
0.844598
0.961423
0.943542
1.138449
1.073480
1.119971
0.973940
1.213551
1.139641
1.124740
1.501441
1.517534
1.564622
1.680851
1.971722
3.462434
11.976957
51.260591
117.246509
269.481540
424.178839
651.990771
791.744590
910.173655
927.168727
853.969455
744.624734
565.003753
421.219468
248.127580
151.368976
66.769719
34.248829
25.118589
32.433867
50.952435
69.348812
96.223950
115.757585
136.974454
145.410895
142.418742
131.922960
110.634565
90.676546
66.748857
51.216483
35.557747
28.801560
24.045706
23.133755
22.864938
23.591518
24.826527
26.369691
27.128458
28.501749
30.509830
30.779839
32.483935
33.223629
34.867525
36.009550
36.974549
37.945509
39.102435
39.340854
39.782524
40.430427
41.174889
41.979551
41.462779
40.709972
41.623712
41.178465
41.823983
41.067600
40.931702
40.185452
40.650964
39.870739
39.841533
##ZVALUE=300
0.670552
0.677705
0.758767
0.868440
0.952482
0.816584
0.810623
0.701547
0.669956
0.743866
0.928640
0.743866
0.769496
0.925660
0.895858
0.877976
0.810623
1.141429
1.009703
0.950694
1.049638
1.143813
1.202822
1.092553
1.267791
1.272559
1.340508
1.445413
1.475811
1.581907
1.893640
1.979470
7.122755
25.648475
89.680552
172.342658
342.347622
505.856872
712.881684
825.741887
895.473957
873.838663
740.354657
605.933666
405.509472
269.543529
144.618750
82.708001
36.463737
21.062493
20.599961
27.963519
45.025945
62.550902
88.107586
106.092691
129.582882
137.429833
135.284662
127.089620
109.233856
91.274977
68.013668
54.247975
39.554834
32.388568
27.121902
26.133657
25.824904
26.795864
28.367639
29.527545
30.838847
32.163858
33.801794
34.707785
36.333799
37.527680
39.119720
39.301515
40.173531
41.006804
41.521788
41.500926
41.901469
42.641759
42.773485
42.730570
42.080879
41.922927
42.660832
41.371584
41.455626
40.661693
40.307641
40.093660
##ZVALUE=305
0.654459
0.776649
0.810623
0.776649
0.730753
0.696778
0.716448
0.784993
0.929832
0.765920
0.819564
0.635982
0.804663
0.835657
0.820756
0.887513
0.809431
0.827909
0.907779
0.889897
1.087785
1.058578
1.050830
1.090765
1.266599
1.154542
1.106858
1.236796
1.097918
1.214743
1.340508
1.630783
1.724958
1.825690
2.961755
16.965866
48.857927
140.553713
248.612761
445.097685
605.357885
785.048008
859.606862
869.184732
789.389014
609.805584
471.466780
300.433636
190.357566
91.510415
49.121976
20.901561
15.361905
19.899607
26.785731
44.554472
61.331987
85.032582
102.199912
123.999715
132.807493
133.823752
124.002695
107.678771
90.721846
69.227815
54.809451
41.028857
34.815669
30.732751
29.432774
30.101538
31.350851
33.042431
34.267902
35.214424
37.181973
38.357973
38.870573
39.876699
40.642619
41.482449
42.529702
43.205619
43.802857
43.648481
43.953657
43.989420
43.391585
43.579936
42.854548
43.087602
42.456985
41.766763
41.720867
42.270422
##ZVALUE=310
0.578761
0.795722
0.739694
0.822544
0.768900
0.545979
0.526905
0.805855
0.803471
0.779629
0.662804
0.730753
0.832677
0.716448
0.795722
0.835657
0.851750
0.769496
0.960827
0.900626
0.831485
0.789762
0.968575
0.979900
1.018643
1.144409
1.014471
1.064539
1.067519
1.188517
1.069903
0.999570
1.146793
1.543760
1.585484
1.713634
2.007484
7.348657
25.060773
84.185004
168.126822
336.842537
503.935814
705.254674
812.550783
868.988037
831.939578
699.089766
567.860603
375.734568
247.900486
124.380589
68.760514
27.487874
15.252829
14.177561
17.577410
27.676821
38.393736
57.228804
76.268911
99.601746
114.335418
127.240419
129.493475
121.338964
109.126568
90.935826
74.661970
56.621432
46.699643
38.502812
35.614967
34.737587
34.791827
35.623908
36.266446
37.630796
39.784908
40.639639
41.076541
42.263865
43.752789
43.770671
44.501424
45.242906
44.236779
45.265555
45.145750
45.197606
44.202805
44.454932
43.717623
42.831898
43.657422
43.612719
##ZVALUE=315
0.680685
0.698566
0.720620
0.707507
0.695586
0.792742
0.613928
0.677705
0.730753
0.724792
0.708699
0.924468
0.680685
0.770688
0.610948
0.751615
0.639558
0.701547
0.727773
0.806451
0.870824
0.904799
0.797510
0.838637
0.838637
0.920892
1.056790
1.040697
0.790954
0.896454
1.278520
1.006722
1.144409
1.010895
1.251698
1.273751
1.344681
1.525879
1.670718
3.358722
12.258887
53.401589
117.021799
256.105661
404.562950
618.870854
742.843747
837.032795
847.059488
756.232738
636.093616
447.916985
312.348008
163.894892
90.945959
36.030412
19.113421
12.748837
13.911724
18.269420
25.664568
40.127635
53.807497
75.851679
93.023777
113.355517
123.553872
126.551986
121.900439
106.140971
92.490911
75.384974
61.883926
48.604608
43.281913
39.248466
38.317442
38.745999
39.904714
41.559935
41.628480
43.513775
43.845773
44.101477
45.512915
46.028495
45.855641
45.447946
45.902729
44.819713
45.590997
45.323968
44.557452
43.054819
43.859482
43.597817
##ZVALUE=320
0.631809
0.637770
0.684857
0.609756
0.746846
0.553727
0.666976
0.680685
0.817776
0.549555
0.613928
0.749826
0.717640
0.664592
0.808835
0.796914
0.809431
0.839829
0.670552
0.770688
0.803471
0.877976
0.844598
0.900626
0.792742
0.910759
0.850558
0.615716
1.109838
1.031756
1.011491
0.928640
1.063943
1.100898
1.019835
1.053810
1.237988
1.204610
1.346469
1.514554
1.622438
2.008677
5.771518
30.945539
77.627897
193.914771
318.093896
507.750511
649.347901
794.481635
840.263963
799.601674
702.650547
526.499748
381.433964
211.001635
120.377541
51.172972
27.101636
14.656782
12.871623
15.134811
17.915964
26.175976
35.804510
54.764748
71.209669
91.923475
107.168555
120.930672
124.338865
117.414594
107.194781
90.415478
77.494979
62.710643
54.467916
46.040416
42.968988
41.618943
41.634440
42.278767
43.636560
44.743419
44.750571
44.698715
45.320988
46.515465
45.921803
44.852495
44.875741
45.668483
45.741796
45.114756
44.951439
44.716001
##ZVALUE=325
0.674725
0.696778
0.695586
0.518560
0.626445
0.717640
0.600815
0.707507
0.526905
0.556707
0.664592
0.632405
0.638962
0.583529
0.593662
0.677705
0.764728
0.660419
0.616908
0.720620
0.628829
0.742674
0.778437
0.635982
0.754595
0.806451
0.707507
0.905991
0.912547
0.898838
0.885725
0.939965
0.859499
0.923872
1.034737
1.040697
1.027584
1.131892
1.115799
1.255870
1.160502
1.249909
1.376867
1.847744
2.712607
19.027591
50.910711
134.182572
238.947868
429.545641
579.806566
740.751624
808.162689
806.694627
728.919506
562.882423
419.906974
257.954001
158.975720
72.384477
38.123727
18.059611
13.785958
14.248490
15.387535
20.824671
26.816726
39.410591
52.570701
73.542595
90.487599
106.948614
116.696954
120.810866
114.784837
103.263855
91.925859
75.056553
65.437555
54.055452
48.570633
45.260787
43.947697
43.926835
44.426918
44.191480
44.510961
44.877529
45.064688
45.803785
45.544505
44.716597
44.239759
44.346452
44.071674
44.364929
##ZVALUE=330
0.630617
0.655651
0.511408
0.625849
0.730753
0.720620
0.703931
0.536442
0.750422
0.710487
0.528693
0.780821
0.637770
0.599623
0.652671
0.739694
0.693798
0.604987
0.720620
0.731945
0.837445
0.671744
0.631809
0.795722
0.734925
0.704527
0.789762
0.769496
0.809431
0.744462
0.656843
0.782609
0.742674
0.990629
0.917912
1.005530
0.771880
0.954866
0.912547
1.168847
1.177788
1.092553
1.298785
1.259446
1.353621
1.643896
1.919866
7.791519
25.630593
88.461637
169.509649
328.814983
472.759008
652.804971
751.847029
793.799758
743.486881
615.148544
487.055779
313.681960
202.518702
96.581578
51.881671
23.833513
15.540719
14.552474
15.543699
18.171668
21.619797
29.932857
38.347840
54.650903
69.252849
90.969801
103.873610
114.690661
116.169453
110.656619
102.928877
88.082552
76.135993
62.977672
56.296587
49.047470
46.371818
44.493675
43.679476
44.042468
43.925643
43.783784
44.556856
43.835640
42.814612
44.281483
43.417811
43.501854
##ZVALUE=335
0.409484
0.542998
0.522733
0.475645
0.761747
0.794530
0.652671
0.620484
0.588894
0.684857
0.664592
0.712872
0.703931
0.584722
0.657439
0.766516
0.679493
0.632405
0.573993
0.862479
0.797510
0.834465
0.777841
0.683665
0.653863
0.802875
0.814795
0.551939
0.888705
0.827909
0.766516
0.822544
0.806451
0.731945
0.734925
0.794530
0.912547
0.939965
1.042485
0.791550
0.852942
1.049638
1.182556
1.182556
1.164675
1.233816
1.132488
1.325607
1.553893
3.696680
13.161898
52.943826
113.621950
246.447921
383.430719
573.608875
688.551664
765.662789
750.727654
653.953552
543.368459
367.308855
250.865817
133.571625
74.215531
30.155778
18.232465
14.948845
15.728474
17.323494
19.485950
23.495555
29.520988
41.755438
53.129792
72.499514
86.514950
101.742744
109.507442
112.976432
108.308792
97.604990
88.581443
75.502992
66.363811
55.659413
49.508810
45.136809
44.308901
43.016672
42.148829
42.171478
41.902661
42.188764
41.896701
42.592883
##ZVALUE=340
0.695586
0.643730
0.623465
0.550747
0.448823
0.624657
0.761747
0.589490
0.681877
0.561476
0.681877
0.643730
0.529885
0.623465
0.575781
0.691414
0.589490
0.718832
0.763535
0.813603
0.727773
0.632405
0.785589
0.804663
0.861883
0.672936
0.737906
0.780821
0.687838
0.657439
0.920892
0.784993
0.761747
0.777841
0.952482
0.918508
0.914931
0.746846
0.844598
0.949502
1.015663
0.996590
1.024604
0.983477
1.052618
0.944734
1.186728
1.047850
1.295805
1.424551
1.536608
1.829863
8.515716
28.279424
89.899898
175.118446
342.513919
475.211740
635.744929
719.657540
749.144554
703.673959
579.266548
463.113785
297.293663
192.994475
95.073581
49.696565
20.802617
15.862584
16.207695
16.945601
18.978715
20.845532
26.074648
30.862689
41.269660
53.211451
71.357489
84.615946
99.188685
105.758905
107.781887
104.965568
96.770525
87.400675
73.410869
64.022541
53.757429
49.412847
44.102669
42.316914
41.016936
40.671825
40.136576
39.657950
##ZVALUE=345
0.559688
0.572801
0.561476
0.533462
0.560880
0.554919
0.403523
0.498891
0.511408
0.605583
0.596642
0.664592
0.691414
0.713468
0.585914
0.546575
0.664592
0.608563
0.692606
0.575781
0.648499
0.472665
0.653863
0.551939
0.506639
0.583529
0.789762
0.712872
0.572801
0.656843
0.704527
0.736713
0.762939
0.640750
0.815988
0.723600
0.847578
0.619888
0.745654
0.844598
0.714660
0.792742
0.832677
0.887513
0.901818
0.914931
0.964999
1.042485
1.186728
1.094937
1.092553
1.257658
1.355410
1.513958
3.500581
13.507605
57.758689
117.802620
241.553783
365.162492
540.585518
647.966862
719.676614
714.893937
623.710752
518.541932
364.217758
249.843597
125.116706
65.171719
26.670694
17.714500
15.813708
16.852617
18.257499
19.253492
21.719933
25.215745
31.636953
39.669871
52.829981
64.978600
79.460740
89.425445
98.146796
101.759434
98.628998
92.159510
80.984831
71.967840
60.014725
53.442717
45.005679
41.611791
39.636493
38.842559
##ZVALUE=350
0.671744
0.678897
0.696778
0.525713
0.645518
0.585914
0.579953
0.535846
0.635982
0.530481
0.610948
0.602603
0.635982
0.713468
0.681877
0.688434
0.679493
0.503659
0.581741
0.724792
0.678897
0.406504
0.725985
0.748634
0.547767
0.751615
0.726581
0.617504
0.659823
0.737906
0.679493
0.609756
0.711679
0.604987
0.709891
0.621676
0.805855
0.802875
0.694990
0.734925
0.749826
0.740886
0.722408
0.902414
0.853539
0.771880
0.762939
0.918508
0.989437
0.848770
1.108646
1.129508
1.111627
1.105666
1.189709
1.274943
1.961589
8.295774
27.323961
86.221695
160.922408
312.334895
439.597964
592.777729
678.231716
705.431700
658.304691
540.632606
424.148440
265.571475
170.800686
86.706877
44.322610
19.421577
15.877485
16.088486
17.482638
18.003583
19.291639
22.201538
24.871826
31.598806
37.854910
48.930645
58.322549
72.692633
82.004666
89.895725
93.531609
92.044473
87.128878
76.173544
67.533851
57.831407
50.201416
43.818951
##ZVALUE=355
0.537634
0.522733
0.329614
0.596642
0.567436
0.478625
0.518560
0.629425
0.678897
0.558496
0.596642
0.689626
0.583529
0.453591
0.549555
0.574589
0.642538
0.489950
0.616908
0.561476
0.510812
0.597835
0.559688
0.578761
0.629425
0.681877
0.545979
0.602603
0.743866
0.616908
0.719428
0.708699
0.769496
0.647902
0.748634
0.635982
0.668764
0.671744
0.720620
0.666976
0.678897
0.662804
0.786781
0.791550
0.761747
0.667572
0.835657
0.711679
0.840425
0.884533
0.719428
0.933409
0.811815
0.903606
0.998974
1.060963
1.143813
1.465678
1.476407
4.173517
14.473796
56.532621
114.101768
231.996775
357.720852
535.331964
635.922551
697.218776
676.478744
559.420586
441.408753
280.298591
175.755620
82.557797
45.266747
21.688938
15.593767
15.295744
15.819669
16.651750
18.295646
19.927621
21.238923
24.010539
27.416945
34.466982
42.221546
53.430796
63.119531
73.343515
80.559850
84.699988
83.447695
78.697801
71.676970
62.572956
##ZVALUE=360
0.550747
0.633597
0.458956
0.526905
0.461936
0.586510
0.408888
0.707507
0.669956
0.669956
0.736713
0.729561
0.567436
0.642538
0.513792
0.715852
0.504851
0.519753
0.504851
0.620484
0.488758
0.484586
0.767708
0.705719
0.614524
0.690818
0.658631
0.643730
0.649691
0.739694
0.591874
0.633597
0.657439
0.776649
0.616908
0.590682
0.725985
0.752807
0.630617
0.605583
0.761747
0.809431
0.666976
0.721812
0.876784
0.701547
0.711679
0.903606
0.647902
0.864863
0.902414
0.884533
0.817776
0.956655
1.019835
0.964999
0.898838
0.978708
1.222491
1.216531
1.494884
2.024770
6.321669
29.736757
71.329474
171.599984
274.655819
430.241823
545.879006
642.586946
655.423999
586.365461
490.702987
330.582857
220.217705
109.777451
60.943961
27.447939
16.786456
13.758540
14.239550
15.453696
16.168952
17.019510
17.908812
19.286871
21.496415
24.867654
28.915405
36.795735
44.573545
56.339502
63.738823
72.352886
76.424479
77.660680
##ZVALUE=365
0.463724
0.448823
0.385642
0.605583
0.594854
0.571609
0.571609
0.518560
0.636578
0.522733
0.535846
0.574589
0.553727
0.525713
0.575781
0.566840
0.652671
0.591874
0.502467
0.762939
0.683665
0.585914
0.665784
0.646710
0.595450
0.646710
0.617504
0.763535
0.589490
0.585914
0.743866
0.652671
0.643730
0.680685
0.777841
0.710487
0.670552
0.610948
0.643730
0.721812
0.707507
0.859499
0.729561
0.826716
0.768900
0.827909
0.841618
0.563860
0.865459
0.729561
0.701547
0.698566
0.796914
0.845790
0.797510
0.884533
0.808835
0.909567
1.039505
1.051426
1.285672
1.257658
1.428723
1.520514
3.484488
12.506843
48.645735
103.793740
230.339766
354.689956
512.327552
597.838759
648.041964
626.610518
515.708923
408.379436
257.043839
159.550905
72.397590
38.028955
17.807484
13.392568
13.011694
13.364553
14.260411
14.915466
15.782714
16.584992
17.985702
19.075871
21.850467
25.404692
32.146573
39.028525
48.726797
56.535602
##ZVALUE=370
0.666976
0.528693
0.669956
0.574589
0.649691
0.620484
0.678897
0.487566
0.540614
0.619888
0.588894
0.691414
0.753999
0.551939
0.580549
0.695586
0.443459
0.593662
0.576973
0.561476
0.730753
0.750422
0.598431
0.728965
0.742674
0.777841
0.712872
0.714660
0.568628
0.703931
0.510812
0.602603
0.587702
0.716448
0.700951
0.744462
0.567436
0.684857
0.789762
0.669956
0.818968
0.589490
0.627637
0.819564
0.836849
0.731945
0.766516
0.750422
0.792742
0.769496
0.778437
0.751615
0.610948
0.804663
0.930429
0.864863
0.999570
0.827909
0.933409
0.979900
1.020432
1.160502
1.137853
1.300573
1.363754
1.370907
1.885891
8.544922
27.787685
86.511970
159.468651
290.674567
410.476923
554.039478
615.565777
610.690713
544.033647
416.515470
303.885937
169.726610
96.736550
42.757988
23.855567
13.926625
11.875629
12.241602
12.753606
13.599992
14.058948
14.779568
15.010834
16.406775
17.629862
20.010471
23.393631
29.032826
##ZVALUE=375
0.480413
0.523925
0.469685
0.377893
0.593662
0.536442
0.458956
0.575781
0.445843
0.453591
0.523925
0.563860
0.567436
0.530481
0.507832
0.489950
0.572801
0.457764
0.586510
0.642538
0.566840
0.626445
0.675917
0.670552
0.651479
0.579953
0.575781
0.595450
0.493526
0.536442
0.513792
0.587702
0.578761
0.581741
0.541806
0.711679
0.693798
0.634789
0.668764
0.766516
0.632405
0.690818
0.512600
0.694990
0.587702
0.699759
0.556707
0.650883
0.688434
0.681877
0.690818
0.593662
0.785589
0.703931
0.624657
0.746846
0.837445
0.795722
0.782609
0.847578
0.924468
0.844598
0.977516
0.961423
1.098514
1.013875
1.029968
1.352429
1.379848
4.253983
14.636517
51.601529
106.865764
228.523612
342.502594
492.261648
573.604703
613.740683
584.299564
470.304489
360.983610
215.909481
137.025714
70.339441
37.910938
17.043948
11.727810
11.137724
11.249781
11.796951
12.244582
12.969971
13.460517
14.260411
14.940500
16.314983
##ZVALUE=380
0.507832
0.521541
0.352859
0.395775
0.377893
0.511408
0.424981
0.510812
0.461936
0.437498
0.479817
0.492930
0.514984
0.585914
0.561476
0.479817
0.543594
0.623465
0.658631
0.552535
0.588894
0.486970
0.403523
0.565648
0.620484
0.567436
0.353456
0.579953
0.472665
0.385642
0.504851
0.536442
0.584722
0.565648
0.524521
0.648499
0.642538
0.663996
0.610948
0.705719
0.691414
0.692606
0.524521
0.654459
0.485778
0.570416
0.587702
0.490546
0.511408
0.678897
0.698566
0.698566
0.627637
0.770688
0.806451
0.630617
0.688434
0.805855
0.896454
0.659823
0.754595
0.643730
0.782609
0.746846
0.840425
0.880957
0.929832
1.002550
1.078844
1.270771
1.293421
2.421737
8.326769
37.733912
84.657669
187.759995
293.938518
437.700748
534.502864
602.750778
596.332550
506.453514
407.702923
269.444585
179.703832
89.353919
49.821734
23.136735
13.541579
10.428429
10.123849
10.539889
11.153817
12.085438
11.793971
12.696981
##ZVALUE=385
0.431538
0.590682
0.380874
0.512600
0.424981
0.486970
0.406504
0.528693
0.542998
0.544786
0.537634
0.489950
0.416636
0.547767
0.513792
0.582933
0.511408
0.609756
0.552535
0.449419
0.463724
0.548959
0.390410
0.501871
0.460744
0.549555
0.627637
0.626445
0.477433
0.528693
0.557899
0.650883
0.592470
0.558496
0.500679
0.543594
0.567436
0.591874
0.657439
0.410676
0.421405
0.553727
0.508428
0.567436
0.624657
0.877976
0.535846
0.615716
0.698566
0.606775
0.671744
0.643730
0.621676
0.595450
0.653863
0.671744
0.745654
0.837445
0.767708
0.634789
0.810623
0.660419
0.765920
0.714660
0.642538
0.870824
0.750422
0.820756
1.018643
1.006722
1.171827
1.174808
1.222491
1.448989
3.877878
21.158457
52.988529
128.675699
220.803618
373.560786
480.639935
575.971007
592.347980
547.753572
475.495458
341.357589
241.369605
130.523443
75.489879
33.759475
17.274618
9.516478
8.994937
9.392500
9.651780
10.228753
##ZVALUE=390
0.222921
0.292659
0.279546
0.239611
0.346899
0.413656
0.303984
0.474453
0.334978
0.371933
0.203848
0.288486
0.187755
0.216961
0.165701
0.208616
0.276566
0.251532
0.273585
0.340939
0.348687
0.241995
0.339746
0.317693
0.232458
0.319481
0.230670
0.274777
0.240803
0.270605
0.320673
0.328422
0.361800
0.448823
0.374913
0.468493
0.373721
0.293851
0.360608
0.343919
0.392795
0.416636
0.269413
0.176430
0.412464
0.365973
0.419617
0.484586
0.444651
0.394583
0.592470
0.373721
0.393987
0.378489
0.453591
0.386834
0.370741
0.436902
0.466704
0.409484
0.492930
0.407696
0.442863
0.407696
0.388622
0.431538
0.597835
0.741482
0.787973
0.658631
0.779629
1.072884
0.800490
0.925660
0.930429
1.206994
1.880527
11.127591
33.114552
95.162392
170.772672
307.362676
413.609743
526.485443
576.335788
573.519468
518.199801
401.704907
305.891633
187.508464
110.135674
46.772957
24.109483
11.194944
8.502603
8.454919
##ZVALUE=395
0.156760
0.220537
0.093579
0.212789
0.138879
0.150800
0.180602
0.242591
0.248551
0.317693
0.216961
0.172853
0.198483
0.224710
0.249743
0.249743
0.174642
0.322461
0.205636
0.277758
0.229478
0.333786
0.038743
0.213981
0.235438
0.329614
0.228882
0.306964
0.265837
0.270605
0.326633
0.181794
0.181794
0.376701
0.216961
0.342727
0.228882
0.186563
0.241995
0.324845
0.241995
0.284910
0.241995
0.288486
0.262856
0.323653
0.274777
0.292659
0.233650
0.202656
0.429749
0.312924
0.221729
0.266433
0.306964
0.417829
0.338554
0.409484
0.341535
0.360608
0.525713
0.405908
0.384450
0.487566
0.604987
0.457764
0.571609
0.577569
0.527501
0.566840
0.703931
0.660419
0.746846
0.670552
0.771880
0.739694
0.682473
0.965595
1.053810
6.089807
21.970868
71.947575
130.059719
235.127807
337.045789
469.933748
547.562838
585.250854
564.147830
471.497774
367.173553
228.866935
143.397450
64.641833
32.502413
13.686419
##ZVALUE=400
0.485778
0.525713
0.400543
0.455976
0.540614
0.605583
0.396967
0.512600
0.371933
0.550747
0.439882
0.424981
0.650883
0.472665
0.501871
0.524521
0.612736
0.452995
0.444651
0.635982
0.530481
0.522733
0.486970
0.457764
0.534654
0.590682
0.517964
0.560880
0.567436
0.533462
0.487566
0.584722
0.508428
0.558496
0.511408
0.319481
0.489950
0.507832
0.494719
0.652671
0.513792
0.580549
0.628829
0.593662
0.669956
0.554919
0.607967
0.682473
0.599623
0.605583
0.502467
0.494719
0.638962
0.576973
0.701547
0.606775
0.625849
0.710487
0.546575
0.520945
0.795722
0.721812
0.645518
0.674725
0.679493
0.628829
0.751615
0.959635
0.922680
0.970960
0.916719
0.968575
0.897646
0.909567
0.906587
0.795722
0.889897
0.957847
0.916719
1.112819
1.201630
3.437996
11.977553
41.365623
84.663630
179.003477
277.878642
416.281819
502.341986
572.394729
575.554967
501.954556
410.149693
273.151994
180.484653
93.151927
##END
