##TITLE=FSH701
##FORMAT=SPECTACLE-ASCII V-1.2
##DATA TYPE=ULTRAVIOLET SPECTRUM
##SECOND TYPE=ULTRAVIOLET SPECTRUM
##DATE=01/11/18
##TIME=18:16:24
##SPECTROMETER/DATA SYSTEM=SPECTACLE
##XUNITS=NM EM
##YUNITS=ENERGY
##YFACTOR=1
##FIRSTX=220
##LASTX=410
##NPOINTS=96
##3DDATA=Equidistant
##ZUNITS=NM EX
##FIRSTZ=210
##LASTZ=400
##ZPOINTS=39
##XYDATA=(Y..Y)
##ZVALUE=210
1.436472
2.051592
2.475977
1.830459
1.636744
1.719594
2.596974
2.366900
2.471805
2.378821
1.880527
2.142787
2.585649
2.438426
2.581477
2.871752
3.153682
2.699494
3.161430
3.420711
3.235936
3.649592
3.552437
3.645420
4.195571
3.462434
4.233718
3.837943
3.872514
4.220605
4.351735
4.509687
4.211664
4.976988
5.057454
4.440546
4.422665
4.561543
4.704595
5.130768
4.382730
4.855990
4.287958
5.155802
4.516840
5.026460
5.165935
5.214810
5.622506
5.191565
4.969835
5.741715
4.902482
5.460978
4.927516
5.043745
5.666614
5.751848
5.432963
5.414486
5.777478
5.808473
5.158782
5.956888
5.654693
5.648732
6.487966
6.635785
7.814765
8.047819
9.522438
10.892749
12.163520
14.162660
16.977787
16.119480
14.461875
14.673471
14.271736
14.326572
13.482571
11.564493
10.742545
9.627938
9.327531
8.336902
6.857514
6.129742
6.347895
5.637407
6.169677
6.041527
6.090999
5.982518
6.506443
7.437468
##ZVALUE=215
3.191829
2.987981
2.985597
2.399683
3.082752
2.397895
2.379417
3.173947
3.129840
4.030466
3.597736
3.875494
3.580451
3.293753
2.962947
3.361702
2.943873
3.345609
3.168583
3.968477
3.725886
4.085898
3.545880
3.620982
3.748536
3.558993
3.823638
4.042983
4.742742
5.213618
5.665421
5.748868
5.035996
4.884601
5.065799
5.454421
5.420446
5.865693
5.298853
4.980564
6.505847
5.189776
5.500913
4.872680
4.816651
5.565882
5.875826
6.060600
5.800724
5.434752
5.060434
5.204678
5.752444
5.611777
4.978776
5.709529
5.851984
6.109476
5.420446
5.888939
6.165504
6.159544
5.543828
6.247759
6.067753
6.103516
6.484985
7.031560
7.278919
8.662939
9.879470
11.186600
12.578964
13.724566
16.199946
16.566515
15.431643
13.202429
14.058948
13.228655
12.494922
11.252761
10.562539
9.922981
9.360909
8.123517
7.169843
6.911755
7.073879
6.216764
5.991459
6.053448
6.206632
6.156564
6.179810
6.463528
##ZVALUE=220
9.849668
10.468960
10.775924
10.598898
10.386705
10.275841
9.031892
7.656813
6.636977
6.290674
7.717609
8.126497
9.378791
8.580685
7.635951
6.024837
5.373955
4.865527
3.665686
3.511906
3.706813
3.906488
4.261732
4.637837
3.953576
4.983544
4.232526
6.187558
5.572438
6.495714
6.518960
6.975532
6.602407
6.565452
6.590486
6.695986
7.195473
7.729530
8.382797
6.750822
7.009506
7.255673
6.371737
6.904602
7.586479
6.632805
6.924868
5.953908
7.137656
6.938577
6.758571
7.506609
6.961823
6.621480
6.709695
7.342696
6.660819
6.590486
7.004738
6.514788
7.149577
7.297993
6.570816
7.410645
7.447600
7.863641
8.544922
9.311438
8.702874
10.362864
11.618733
13.084412
14.962554
16.259551
17.090440
17.933846
19.080639
16.611814
16.473532
15.966892
13.017654
13.487935
12.936592
11.599660
10.005832
10.525584
10.295510
8.959770
9.249449
8.892417
9.013414
9.459853
8.003712
9.090900
8.029938
8.433461
##ZVALUE=225
18.628836
21.092892
26.159883
36.766529
43.545961
44.405460
41.183829
34.342408
27.907491
21.436810
17.806888
16.830564
18.322468
19.155741
20.253658
19.205809
16.905665
15.268922
11.510849
8.034706
5.986691
5.465746
5.428791
4.626513
4.520416
5.580783
5.260706
5.967617
6.643534
7.080436
6.676912
7.278919
7.937551
8.003712
8.972883
8.831620
10.027885
9.703636
9.216666
9.549856
9.089708
8.889437
8.750558
8.197427
8.508563
8.640885
8.389950
8.085966
8.522868
8.044839
8.509755
7.936954
8.328557
9.365678
9.225607
8.335710
7.596612
8.792877
9.156466
8.856654
9.266734
9.804964
8.720756
9.150505
10.296702
10.436773
11.931658
10.811687
12.589693
13.390779
12.898445
16.192794
16.061664
19.013882
17.828941
17.534494
18.057823
17.630458
16.962886
18.036962
16.141534
15.735626
16.295910
14.453530
14.264584
13.295412
13.427734
13.425946
13.664961
12.845993
13.193488
13.946891
13.494492
12.405515
12.882948
13.527870
##ZVALUE=230
17.267466
18.410683
32.955408
48.965812
75.576901
92.127919
108.016729
109.389424
105.654597
91.340542
63.911676
48.110485
39.913654
34.463406
37.782788
42.877793
43.821931
44.657588
41.151643
33.154488
23.765564
19.688606
11.767745
8.602738
5.607605
4.452467
6.120801
5.689859
6.444454
6.456971
6.755590
7.083416
8.285642
8.473992
8.925796
8.600950
8.097887
9.661913
9.671450
9.363890
9.279847
8.836985
9.444952
9.219646
9.118915
8.548498
8.640885
8.380413
9.310842
8.870959
9.511709
8.676648
9.405613
10.685921
8.664727
9.694695
10.221601
10.995865
10.262728
11.343956
10.669827
13.014674
12.826920
13.511777
13.158917
13.767481
15.619993
14.459491
16.944408
17.953515
17.890930
21.610856
21.491647
21.787882
23.426414
22.538900
24.421811
24.184585
23.876429
24.043918
23.815632
25.497675
24.168491
26.025772
24.147630
22.997856
23.530722
25.613904
24.632812
21.226406
22.529960
22.121668
22.071600
25.615692
22.467971
24.185777
##ZVALUE=235
7.535815
8.628964
21.849871
39.422512
77.927709
114.650726
166.056752
204.305649
235.764980
242.710710
216.338634
185.605884
147.993565
102.339983
82.179904
67.612529
64.598918
68.747997
77.781677
78.982711
73.580742
66.612959
50.257444
35.689473
22.325516
13.772845
10.205507
8.023977
7.204413
7.117987
6.401539
7.252693
6.624460
7.945895
7.724762
8.737445
9.214878
8.239746
8.680820
9.039640
9.743571
10.151863
9.153485
9.057522
9.501576
9.717941
9.140968
10.488629
9.307861
9.974837
10.562539
10.667443
10.347962
10.604858
12.479424
13.383627
13.685822
13.556480
14.158487
14.920831
16.228557
16.386509
17.003417
18.679500
17.346740
20.468831
20.574927
21.487474
22.739768
27.169585
27.581453
30.877590
31.134486
34.447908
34.322739
36.136508
34.150481
33.958554
35.483837
37.326813
36.454797
37.954450
38.377643
39.577484
37.817955
39.672852
37.960410
37.744641
37.997961
39.522648
38.214922
38.294792
39.389729
36.635995
36.958456
40.608644
##ZVALUE=240
2.121925
2.356768
4.237890
14.812946
32.076836
70.364475
119.972825
208.369493
272.693634
343.509912
395.061970
412.663817
379.751921
329.725742
249.089003
185.182691
120.629668
102.845430
91.578960
97.784996
110.076666
116.084814
115.785003
102.340579
84.490776
62.681437
46.489835
31.877756
19.690990
12.412667
9.104609
7.098913
7.858872
7.614493
7.673502
7.412434
8.446574
8.543730
8.763671
8.321404
9.120703
9.123683
8.868575
9.324551
10.147691
10.653734
10.928512
10.589957
11.880994
11.666417
11.866689
12.243986
12.429953
13.050437
13.079643
14.424920
15.110970
15.966892
16.665459
17.020702
17.940998
19.078851
21.495819
22.384524
23.472905
24.766922
25.129914
26.271939
30.373931
32.445788
32.878518
35.856962
38.658977
41.017532
45.214891
45.999885
44.154525
46.966672
47.018528
49.715638
49.322844
51.303506
49.915910
49.545765
51.190853
52.518845
53.526759
52.812696
52.584410
51.058531
53.268671
50.111413
52.544475
51.457882
52.211881
53.377748
##ZVALUE=245
2.146959
2.206564
1.908541
2.070665
3.343821
11.837482
28.116703
72.863698
132.546425
228.435993
318.293571
425.737500
478.636622
498.578548
476.718545
405.731797
328.070521
224.762559
159.655809
106.734633
98.444819
95.984936
115.922689
126.795769
131.349564
130.486488
109.940767
96.112490
71.155429
54.535866
32.125711
21.753907
14.697909
9.868741
8.218884
8.617640
8.846521
8.569956
8.674860
8.609891
9.140968
10.532737
10.306835
9.345412
10.996461
11.396408
11.094809
10.924935
11.454821
11.362433
12.736917
12.712479
12.983680
14.227629
14.296770
14.523864
15.149713
15.110970
16.824603
16.691685
16.995668
20.347834
18.010736
22.217631
22.031665
24.606586
25.504827
27.534962
30.668974
30.206442
33.765435
35.680532
35.630465
39.849877
40.988922
43.508410
44.142604
46.266913
47.536492
48.882961
49.850941
52.697659
51.309466
49.005747
53.150654
52.634478
55.222511
55.056810
54.201484
53.133965
54.347515
54.685473
53.426623
54.421425
54.202676
56.478977
##ZVALUE=250
2.660751
2.116561
2.368689
2.221465
2.413988
2.719760
2.882481
9.157658
22.612810
65.452456
120.104551
228.658915
325.298905
454.933643
531.319976
589.507818
585.113764
509.516597
436.568856
304.219723
216.233730
147.981644
99.779963
91.743469
108.867884
120.117664
139.211416
139.750838
133.986473
124.778748
102.760792
83.887577
57.900548
40.225983
23.116469
16.929507
11.474490
10.362864
10.144711
10.981560
10.844469
9.902716
10.781884
11.265874
11.542439
11.944771
12.773871
11.452436
13.060570
12.096763
13.017654
13.580918
13.799667
13.472438
14.376640
14.483929
15.123487
16.055703
16.871691
16.154647
17.531514
18.527508
18.284917
19.231439
20.797849
23.255944
24.259686
25.337934
26.509762
28.778911
30.489564
33.287406
34.808517
35.699606
38.042665
40.351748
41.008592
41.584969
44.014454
45.155883
47.173500
48.752427
48.992634
50.380826
51.074624
53.994656
50.364733
51.944852
53.154826
52.661896
54.817796
54.361820
54.403543
53.894520
54.977536
54.043531
##ZVALUE=255
1.488924
1.368523
1.434684
1.706481
1.594424
1.363754
1.554489
1.641512
1.795888
4.862547
14.819503
49.136877
101.958513
208.910704
306.939483
450.083613
554.789901
648.549795
668.990612
624.588728
544.559956
437.576771
283.569694
184.523463
104.195476
87.395906
91.246963
103.238821
131.238699
144.061446
151.484609
146.379471
135.722756
109.349489
87.666512
58.671832
42.162538
26.398897
18.148422
13.082623
11.840463
11.238456
11.860728
11.910796
12.543797
12.676716
12.975931
13.639927
13.346672
13.225675
12.699962
13.390779
13.621449
13.274550
13.791919
14.608502
15.130639
15.366673
16.163588
15.859604
15.131831
17.078519
17.641783
17.726421
19.200444
20.531416
20.991564
22.054911
24.380684
24.853945
27.589798
28.709769
31.195879
33.979416
33.866763
36.924481
37.143826
37.489533
40.162802
40.901899
42.539835
42.513609
44.082999
46.331882
46.760440
47.825575
48.755407
50.606728
48.046708
48.304796
49.713850
50.558448
50.605536
52.640438
52.752495
52.466989
##ZVALUE=260
1.560450
1.230836
1.474619
1.485944
1.409650
1.397729
1.685619
1.805425
1.800656
1.895428
2.034903
2.654791
7.410645
32.981634
70.913434
161.256790
262.318850
415.122509
540.986657
676.465631
745.044947
744.593740
654.240847
539.136529
360.265970
245.651603
145.227909
97.708702
78.215599
87.522864
107.651949
135.545731
154.502988
162.061453
157.677531
138.839483
120.843649
91.423988
66.011548
44.978857
31.934977
21.623969
17.411709
14.393926
13.582706
14.111996
13.928413
15.308857
13.886690
14.105439
14.559627
14.746785
14.719963
15.255809
14.994740
14.391541
15.177727
15.558600
15.863776
16.028881
16.565919
16.370416
17.324686
17.512441
19.405484
19.771457
20.358562
21.329522
23.226738
23.338795
25.573969
26.281476
29.823780
29.810667
31.904578
33.189654
33.730865
36.647916
36.565661
38.834810
39.675832
41.386485
41.727424
41.823983
43.747425
45.675635
45.561790
45.191646
47.152638
48.376918
46.669841
48.490763
47.918558
48.222542
48.525929
52.020550
##ZVALUE=265
1.210570
1.209974
1.308918
1.193881
1.170635
1.352429
1.228452
1.377463
1.507998
1.442432
1.429915
1.523495
1.745820
1.943707
4.766583
16.856790
59.323907
116.495490
197.935700
368.272662
513.473749
696.526766
789.611936
818.858743
761.492848
620.677471
493.100882
317.499638
208.949447
116.900802
79.428554
74.101686
89.202523
121.606588
140.772462
162.051916
168.111920
160.477757
146.426558
118.578672
95.087886
67.634583
49.374700
31.428933
23.739934
17.022491
16.113520
15.424490
14.546514
14.633536
15.026927
14.666915
14.962554
15.416741
15.871525
15.555620
15.641451
16.169548
16.218424
16.323924
16.232729
16.343594
17.091632
17.630458
18.583536
19.018650
19.739866
21.961927
22.024512
23.265481
24.592876
25.517941
28.230548
29.782653
29.536486
31.659603
33.697486
34.253597
34.907460
37.879944
38.909912
38.410425
39.304495
40.173531
41.651726
41.892529
43.184757
42.764544
45.315623
43.347478
45.301914
45.215487
45.300722
46.576858
46.703815
45.643449
##ZVALUE=270
0.977516
0.968575
1.115799
1.010895
0.970960
0.904799
1.028776
1.138449
1.208782
1.186728
1.278520
1.262426
1.404881
1.502633
1.706481
1.499653
2.470613
8.928776
27.570724
86.978674
165.608525
318.395495
471.500754
624.554753
792.735815
857.331753
851.211548
774.064660
603.433847
455.696583
282.427669
178.591609
92.691779
66.944957
70.309639
90.750456
120.817423
145.411491
166.150928
172.498822
164.281726
149.783492
120.531917
96.496940
69.903731
49.719810
33.356547
25.441647
19.812584
17.401576
16.210675
15.493631
15.369654
15.243888
14.728904
15.574694
15.576482
15.900731
16.529560
16.577840
16.700625
16.877651
18.305779
17.626882
18.863678
19.156933
20.285845
20.121932
21.568537
23.355484
24.514794
25.416613
26.376843
27.869940
29.295683
29.716492
31.255484
33.298731
34.711957
34.828782
35.426617
36.541820
38.126707
39.057732
39.100647
39.804578
40.237904
41.973591
41.766763
41.394830
42.750835
42.648911
42.649508
42.723417
42.537451
43.683648
##ZVALUE=275
1.046658
1.075864
1.179576
0.915527
0.921488
0.987649
1.106858
0.967979
1.048446
0.976920
1.282692
1.354814
1.052618
1.317859
1.035929
1.163483
1.476407
1.490712
1.766682
4.262924
15.369654
44.322014
123.840570
224.920511
410.388708
550.714731
725.021958
838.524699
899.896026
865.270495
772.675872
586.758852
418.123603
227.476954
135.057569
67.230463
53.426623
66.953897
88.015795
119.992495
138.716698
161.161423
165.485740
160.625577
146.334767
116.303563
94.410777
67.787766
49.440861
32.942891
24.733543
18.110871
16.121864
15.117526
14.628768
14.820695
15.489459
15.465617
15.443563
16.301870
17.144680
17.301440
17.967820
18.313527
18.870831
19.400716
20.490885
21.047592
22.395849
24.594665
24.197698
25.472641
26.833415
28.621554
28.826594
31.618476
31.162500
32.089949
33.905506
33.613443
34.726858
36.029816
37.133694
37.601590
38.575530
39.687753
39.782524
40.507913
39.974451
40.931702
40.721893
41.172504
40.930510
41.893721
42.006969
41.746497
##ZVALUE=280
0.854731
0.876784
0.636578
0.894666
0.914931
0.758767
0.947714
0.969768
0.872612
0.981688
0.905991
1.029968
1.167655
0.997782
1.239777
1.199841
1.194477
1.534820
1.368523
1.540780
1.531839
2.111793
9.465814
30.513406
93.926787
169.017911
308.997631
449.360013
634.821653
756.304860
844.129920
872.094035
814.183950
660.644770
510.215759
305.359960
189.449787
90.088844
52.957535
46.510696
61.018467
89.682937
112.972856
138.450861
152.839422
160.464644
157.625675
139.263868
119.767785
88.707805
67.600608
45.547485
33.514500
22.317767
18.415451
15.573502
15.521646
16.046762
15.977621
16.566515
17.058849
17.668605
18.362999
19.483566
19.239783
20.584464
21.212697
22.238493
23.583770
23.963451
24.918914
26.988983
27.803779
29.190779
29.341578
30.902624
31.537414
32.602549
33.618808
34.950972
34.400821
36.256909
36.410689
37.866831
37.527680
38.589835
38.633943
38.838983
39.136410
39.605498
40.561557
39.721727
39.014816
39.740801
40.375590
40.869713
##ZVALUE=285
0.890493
0.922680
0.871420
0.867844
0.712872
1.016855
0.843406
1.030564
1.036525
1.008511
1.091957
1.080632
1.180768
1.035929
0.996590
1.104474
1.303554
1.192689
1.291633
1.299977
1.419783
1.464486
1.689792
1.746416
4.623532
15.985966
51.329732
106.166601
229.091644
348.986983
481.573939
668.199658
779.405832
864.672661
853.346586
755.915642
638.677478
443.675518
302.656889
157.731771
86.589456
42.927861
40.140748
58.099627
79.583526
111.025572
131.577849
148.611665
155.370831
150.977969
138.647556
114.172697
94.215870
67.107677
49.435496
32.033920
23.566484
18.521547
17.139912
16.829967
16.826987
17.812848
18.302798
19.475818
19.925833
20.721555
21.951795
22.781491
24.707913
25.814772
26.341677
27.737617
29.061437
29.354692
31.329989
31.290650
32.350421
33.028722
34.626722
35.301447
36.820769
37.222505
36.542416
37.867427
37.210584
38.972497
39.443970
40.003657
39.058924
39.542913
39.226413
39.112568
39.507747
39.116740
39.628744
39.276481
##ZVALUE=290
0.790954
0.821948
0.880957
0.801682
0.923872
0.924468
0.895858
0.873804
0.813603
1.074672
0.848770
1.031756
0.992417
1.051426
0.962615
0.942945
1.037717
0.997782
1.090765
1.182556
1.272559
1.162887
1.372695
1.702905
1.557469
1.817942
2.390742
6.333590
28.621554
67.915916
140.835643
309.737921
483.270884
728.676915
867.650509
950.776935
930.511951
810.932517
689.062476
508.593917
363.770723
207.042694
121.060014
52.791834
32.259822
37.978888
52.117705
75.546503
96.116662
124.853849
141.002536
149.580836
148.934722
133.839846
116.754770
88.839531
67.914724
46.501756
34.410954
25.258660
20.671487
18.739700
19.113421
18.899441
20.429492
21.046996
22.408962
23.533702
24.688840
25.966763
27.072430
28.578639
29.810667
31.509995
32.374859
33.508539
33.652782
34.032464
35.503507
36.479831
37.020445
36.825538
38.100481
38.914680
39.498806
38.810968
39.895773
40.589571
40.041804
39.802790
39.370656
39.851665
39.326549
39.713979
37.992597
39.143562
##ZVALUE=295
0.707507
0.694990
0.639558
0.673532
0.703931
0.758767
0.711679
0.714660
0.731945
0.716448
0.773668
0.869632
0.828505
0.791550
0.823736
0.866652
0.909567
0.979900
0.971556
0.976920
1.005530
0.832677
1.314878
1.526475
1.351833
1.385808
1.263618
1.647472
1.583695
3.086925
14.524460
41.828752
95.870495
244.068503
406.870842
658.908486
820.477009
954.732895
961.628556
852.019787
713.587999
504.481792
349.077582
188.772678
106.641650
46.844482
27.909875
23.895502
30.652881
48.634410
68.380833
94.970465
113.897920
134.568810
143.144727
141.580701
130.784512
108.530521
90.828538
66.134930
50.455928
34.195781
28.201938
23.219585
21.175742
21.374822
22.667646
23.560524
24.815798
25.797486
27.353764
29.046535
30.894876
31.988621
32.677650
33.688545
34.301877
35.595894
36.885738
36.861897
37.193894
38.921833
39.366484
40.436983
39.991736
40.076971
40.885806
40.181875
41.680932
40.680766
40.411949
39.817691
39.430857
38.966537
39.607882
38.830638
##ZVALUE=300
0.707507
0.913739
0.748634
0.777841
0.688434
0.834465
0.815988
0.807643
0.941753
0.874996
0.954866
0.845790
0.719428
0.910759
0.843406
0.839829
0.750422
0.946522
0.992417
0.996590
0.950694
1.029968
1.079440
1.121759
1.091957
1.276731
1.322627
1.306534
1.409650
1.621842
1.758933
2.087951
6.465912
21.965504
74.284673
148.148537
314.506888
481.235981
701.678991
835.424662
912.359953
881.921649
739.592910
591.958761
381.667614
246.268511
124.845505
66.770911
28.212667
18.261671
20.565987
28.237700
45.683980
62.511563
87.017417
107.751489
129.174590
138.324499
136.222839
127.247572
109.548569
90.666413
68.699718
53.539872
39.444566
31.950474
26.840568
25.904775
25.815964
26.355982
27.648807
29.593706
31.029582
32.104850
33.137798
34.331679
35.302639
36.398768
37.228465
39.065480
38.852692
39.827824
40.558577
40.962696
41.073561
41.105747
41.923523
41.155815
41.641593
42.051673
40.641427
41.218996
40.229559
41.180849
40.319562
40.097833
##ZVALUE=305
0.565648
0.699759
0.686646
0.841618
0.698566
0.800490
0.736713
0.719428
0.756979
0.760555
0.725985
0.732541
0.884533
0.892878
0.755787
0.819564
0.780821
0.967979
0.819564
0.717640
0.847578
0.830889
0.928640
1.056790
1.065731
0.866652
1.026988
1.234412
1.084805
1.204610
1.297593
1.516938
1.545548
1.809597
2.674460
14.222860
40.428638
115.022659
206.261873
384.856462
539.987683
731.652975
834.108591
859.930515
796.649456
623.523593
476.107597
294.608474
183.017850
84.479451
42.075515
18.271804
14.580488
19.191504
27.287602
43.971539
61.136484
85.913539
104.208589
124.493837
132.038593
131.227970
124.565959
107.952952
91.884732
68.699718
54.318905
41.548610
35.321712
30.595660
29.515624
30.224919
31.131506
31.979680
33.350587
35.798550
36.490560
37.217736
38.833618
39.119720
40.016770
41.263700
41.454434
42.538643
42.725801
43.381453
43.817759
43.431520
42.959452
42.537451
42.717457
42.049885
41.869879
41.718483
41.759610
41.828752
##ZVALUE=310
0.629425
0.695586
0.854731
0.725985
0.786781
0.734925
0.736713
0.713468
0.654459
0.710487
0.830889
0.640750
0.554919
0.757575
0.706911
0.843406
0.772476
0.820756
0.869632
0.852942
0.868440
0.812411
0.964999
0.955462
0.850558
1.020432
0.751615
1.009703
1.138449
0.964999
1.107454
1.239777
1.193881
1.252890
1.446605
1.455545
1.778603
5.998611
20.146966
67.233443
134.463906
273.206830
407.871008
590.605736
705.457926
785.219669
768.132806
665.126443
545.128584
363.561511
243.947506
121.761560
66.272616
26.738644
15.048981
13.691783
17.518997
27.069449
38.178563
58.295727
75.735450
99.807978
115.777850
126.613975
128.903985
121.414661
109.839439
90.649724
73.855519
55.640936
46.113729
38.767457
35.337806
34.030676
33.486485
35.001636
36.811829
37.503839
38.642883
40.069818
41.106939
41.838884
41.958690
43.669939
44.506788
44.115782
44.431686
43.908954
44.421554
43.810606
43.221712
44.048429
43.312907
42.422414
43.028593
41.894913
##ZVALUE=315
0.637770
0.567436
0.732541
0.701547
0.530481
0.676513
0.604987
0.666976
0.679493
0.674725
0.684857
0.647902
0.623465
0.691414
0.828505
0.731945
0.770688
0.631809
0.747442
0.642538
0.782609
0.630617
0.833869
0.867844
0.853539
0.875592
0.864863
0.927448
0.844598
1.011491
0.775456
1.105666
1.152754
0.985861
1.211762
1.168847
1.340508
1.300573
1.684427
3.093481
10.582805
43.379664
94.092488
210.190415
337.224603
531.360507
646.579862
746.522546
768.587589
702.171922
602.920651
432.010889
305.056572
161.738992
89.062452
35.180449
18.765926
12.418628
13.432503
18.747449
25.125742
39.533973
53.429604
75.030923
93.123913
113.536716
123.059750
125.094652
120.820999
105.831623
91.170669
74.281693
61.502457
48.458576
42.019486
38.524866
38.142800
38.016438
38.657784
40.391684
41.625500
43.145418
43.070912
43.956637
44.194460
45.289993
45.373440
44.626594
45.359731
44.719577
44.963956
44.020414
43.570995
43.389797
43.376684
42.993426
##ZVALUE=320
0.743866
0.680685
0.841618
0.585914
0.839829
0.674725
0.724792
0.853539
0.844598
0.680685
0.742674
0.847578
0.812411
0.762939
0.705719
0.887513
0.885725
0.829697
0.907779
0.883937
1.039505
0.952482
0.994802
0.943542
0.987649
0.861883
0.941753
0.833869
0.992417
1.115799
1.015663
1.205802
0.901818
1.308918
1.147985
1.351833
1.206994
1.395941
1.234412
1.449585
1.571774
1.970530
5.216599
26.014447
65.472722
166.464448
268.748999
438.695550
568.008423
707.813501
760.250688
740.195513
664.539933
505.262017
371.210575
209.597945
121.983886
55.438876
28.165579
14.202595
12.829900
15.151501
18.456578
25.795698
36.387444
55.096745
70.736408
91.995597
106.592774
120.652914
122.690797
119.658709
109.143853
91.207623
77.105761
62.014461
53.006411
45.377612
42.838454
41.669607
41.631460
42.135715
42.337775
43.949485
44.614673
45.173764
45.179725
45.296550
44.235587
44.710636
45.349598
45.265555
44.455528
44.630766
45.041442
43.987632
##ZVALUE=325
0.611544
0.820756
0.624657
0.706911
0.548959
0.649691
0.600815
0.605583
0.728965
0.653863
0.693798
0.709891
0.675917
0.613928
0.607967
0.636578
0.637770
0.570416
0.706911
0.774860
0.729561
0.713468
0.646710
0.761747
0.772476
0.796914
0.807643
0.835657
0.860691
0.811815
0.841618
0.945926
0.943542
0.852942
1.027584
1.014471
0.931621
0.878572
1.067519
1.148582
1.163483
1.320839
1.319647
1.399517
2.931952
15.383959
41.407943
107.894540
194.700956
363.178849
500.332713
661.727786
741.088986
755.924582
693.508983
543.778539
415.954590
257.731676
157.716870
73.724985
38.708448
17.572641
13.458729
14.019608
15.773773
20.262599
26.875734
39.883852
53.397417
73.554516
89.477897
108.060837
116.684437
119.269490
116.083622
102.422833
92.238784
75.111985
64.218640
53.543448
48.023462
44.024587
43.804646
43.331981
44.205785
44.259429
44.556856
44.634938
44.698715
44.902563
44.527650
44.595599
44.639707
44.546723
44.252872
44.002533
##ZVALUE=330
0.538826
0.570416
0.746846
0.737906
0.557899
0.587702
0.640750
0.651479
0.669956
0.608563
0.498891
0.623465
0.603795
0.739694
0.688434
0.645518
0.752807
0.594854
0.747442
0.798702
0.725985
0.744462
0.860691
0.731945
0.740886
0.615716
0.847578
0.809431
0.836849
0.914931
0.739694
0.770688
0.768900
0.899434
0.871420
0.728965
0.973940
0.890493
0.917912
0.907779
0.946522
1.128912
1.184940
1.226664
1.320839
1.447797
1.548529
7.215738
23.734570
77.605844
146.910548
288.660526
416.996479
581.484437
680.564642
742.858648
710.976720
588.756800
471.445918
308.869481
200.513005
96.156597
51.736832
23.500919
15.369654
14.182925
15.332699
18.038750
21.639466
30.129552
39.532781
55.764914
70.922971
91.668963
103.746653
114.153624
116.324425
111.595988
102.916956
87.752938
75.473785
62.411427
55.162907
49.825907
46.418905
43.526888
43.569803
44.017434
42.829514
43.767691
44.008493
43.431520
43.491721
43.719411
43.249726
43.101907
##ZVALUE=335
0.642538
0.590682
0.737906
0.493526
0.717640
0.529885
0.590682
0.565648
0.732541
0.561476
0.680685
0.677705
0.700951
0.557899
0.593662
0.581741
0.659823
0.535846
0.581741
0.661612
0.651479
0.713468
0.748634
0.834465
0.787973
0.691414
0.827909
0.942945
0.819564
0.701547
0.806451
0.730753
0.867844
0.790954
0.952482
0.815988
0.780821
0.950694
1.036525
0.943542
0.928640
0.956655
1.007915
1.137853
1.052618
1.362562
1.310706
1.300573
1.572967
3.292561
12.111664
49.185753
106.869936
241.961479
379.256606
569.062829
690.794587
769.858956
762.888789
658.015013
538.945794
361.260772
244.813561
128.681660
70.265532
28.952956
18.212795
15.134811
15.783906
17.558932
19.287467
23.911595
29.617548
42.682886
53.869486
72.463751
86.717606
101.065636
108.963847
111.326575
107.666850
96.493959
87.577701
74.412823
65.100789
55.220723
50.402880
45.543909
43.682456
42.640567
42.400956
42.486787
41.535497
41.209459
41.936636
41.882992
##ZVALUE=340
0.531673
0.524521
0.469685
0.692606
0.517964
0.536442
0.589490
0.582933
0.657439
0.642538
0.594854
0.712872
0.604987
0.677705
0.541806
0.673532
0.599623
0.696778
0.661612
0.653863
0.642538
0.671744
0.617504
0.543594
0.626445
0.663996
0.731945
0.636578
0.732541
0.759959
0.753999
0.886917
0.730753
0.826716
0.741482
0.679493
0.530481
0.721812
0.781417
0.698566
0.752807
1.008511
0.985861
0.890493
0.918508
0.953674
0.998974
1.144409
1.271963
1.344681
1.297593
2.021790
7.519722
36.902428
87.509751
203.028917
329.908729
511.552691
628.578663
724.796653
740.231872
666.861534
565.721989
411.911011
287.864804
152.606964
87.652802
40.153861
22.487640
15.713573
16.032457
17.313957
18.561482
21.273494
25.064945
32.376647
40.926933
55.025816
68.839788
86.092949
97.750425
106.983781
108.953714
103.801489
97.367764
84.176660
75.005889
61.984658
54.847002
47.764778
43.865442
41.686893
40.607452
40.299892
39.993525
39.782524
##ZVALUE=345
0.596642
0.621676
0.625849
0.551939
0.573993
0.673532
0.637770
0.510812
0.528693
0.597835
0.522733
0.576973
0.611544
0.481606
0.662804
0.579953
0.704527
0.591874
0.707507
0.563860
0.678897
0.573993
0.684857
0.686646
0.577569
0.811815
0.570416
0.578761
0.661612
0.622869
0.751615
0.782609
0.767708
0.677705
0.717640
0.756979
0.671744
0.691414
0.799894
0.626445
0.870824
0.787973
0.771880
0.964999
0.942945
1.004934
0.954866
1.011491
1.205802
1.139641
1.186728
1.368523
1.356602
1.422763
3.821850
30.464530
82.437992
190.192461
303.813815
481.317639
601.726770
718.320012
751.104951
716.883540
629.656911
463.477969
338.992476
198.095441
115.426779
51.177740
28.759837
17.236471
16.003847
17.100573
17.865896
20.040870
21.670461
25.820732
30.871630
41.123629
51.837564
68.570971
79.634786
91.810822
97.660422
102.178454
99.530816
91.841817
83.143711
71.277618
61.668754
51.136613
45.845509
41.549802
39.545894
38.758516
##ZVALUE=350
0.601411
0.699759
0.624657
0.666976
0.543594
0.546575
0.522733
0.654459
0.693798
0.581741
0.591874
0.650883
0.543594
0.618696
0.696778
0.601411
0.765920
0.539422
0.635982
0.665784
0.613928
0.952482
0.708699
0.588894
0.851750
0.668764
0.765920
0.567436
0.783801
0.721812
0.619888
0.699759
0.800490
0.786781
0.726581
0.724792
0.704527
0.832677
0.745654
0.773668
0.752807
0.800490
0.682473
0.736713
0.883937
0.819564
0.839829
1.017451
0.966787
1.067519
1.031756
1.109838
1.121759
1.282692
1.301765
1.409650
2.006888
13.056993
46.794415
146.118999
264.320970
473.457575
632.247925
791.565776
845.329762
814.971924
728.569031
562.778711
417.073965
239.473581
144.725442
67.088604
35.379529
18.515587
15.543699
15.970469
16.632676
18.908978
19.520521
22.203922
25.111437
31.675696
38.240552
48.488975
57.162642
71.840882
82.061887
90.496540
94.210505
91.164708
86.072683
75.662732
66.828728
56.023598
49.194694
43.433905
##ZVALUE=355
0.408888
0.555515
0.408888
0.430942
0.490546
0.534654
0.302792
0.458956
0.605583
0.454783
0.525713
0.548959
0.546575
0.594854
0.380874
0.436902
0.450611
0.487566
0.524521
0.700951
0.501871
0.590682
0.624657
0.658631
0.648499
0.711679
0.549555
0.385642
0.489950
0.650883
0.465512
0.446439
0.507832
0.678897
0.547767
0.593662
0.811815
0.698566
0.784993
0.678897
0.676513
0.691414
0.768900
0.776649
0.739694
0.842810
0.805855
0.801682
0.819564
0.695586
0.970960
1.014471
1.004934
1.094937
1.115799
1.143813
1.289845
1.258850
1.625419
4.974604
19.296408
87.633729
184.571743
371.073484
551.538467
775.237679
866.191983
873.729587
795.868635
614.233613
470.663905
295.418501
184.224844
83.736777
44.262409
20.715594
15.510917
15.080571
16.099811
17.220974
18.164515
19.858479
21.280646
24.293661
27.866960
35.131574
43.190718
54.017901
63.223839
73.237419
80.467463
84.462762
84.214807
79.309940
73.064566
62.739849
##ZVALUE=360
0.532866
0.363588
0.494719
0.556707
0.509620
0.508428
0.367761
0.460744
0.489950
0.537634
0.451803
0.603795
0.442863
0.614524
0.344515
0.557899
0.533462
0.660419
0.670552
0.533462
0.591874
0.625849
0.522733
0.638962
0.624657
0.606775
0.574589
0.595450
0.641942
0.689626
0.612736
0.731945
0.823736
0.510812
0.551939
0.523925
0.528693
0.494719
0.660419
0.841618
0.745654
0.827909
0.688434
0.711679
0.873804
0.830889
0.795722
0.904799
0.790954
0.963807
0.668764
0.822544
0.938773
1.007915
1.067519
0.996590
1.042485
1.156926
1.482964
1.675487
1.555681
3.992915
17.548800
71.064830
157.876611
351.450443
533.771515
767.429471
911.689997
975.032449
933.823586
781.884789
606.680512
376.591682
238.989592
113.580823
60.660839
27.048588
16.954541
14.140606
15.002489
15.726686
16.224980
17.233491
18.251538
20.096898
21.363497
25.402904
29.479861
37.192702
44.325590
56.434870
64.007640
72.931647
77.063441
77.596903
##ZVALUE=365
0.471473
0.551939
0.519753
0.655651
0.702739
0.526905
0.411868
0.554919
0.558496
0.428557
0.504851
0.406504
0.585914
0.625849
0.521541
0.506639
0.535846
0.618696
0.500679
0.635982
0.565648
0.464916
0.543594
0.605583
0.733733
0.630617
0.643730
0.546575
0.633597
0.662804
0.636578
0.726581
0.573993
0.610948
0.669956
0.643730
0.638962
0.842810
0.663996
0.692606
0.697970
0.753999
0.757575
0.784993
0.697970
0.857711
0.812411
0.935793
0.896454
0.851750
0.750422
1.057982
1.147985
1.039505
1.044869
1.194477
1.128912
1.221895
1.191497
1.355410
1.448989
1.679659
1.613498
2.223849
8.015633
59.421659
150.566697
353.607535
582.547784
907.673836
1015.579700
1015.579700
1015.579700
995.052457
806.486011
528.951883
346.418619
175.929666
91.395974
36.294460
19.502640
13.523698
13.489723
14.233589
14.603734
15.566945
16.275644
17.032623
17.958879
19.808412
21.970868
27.062893
32.337904
40.858984
48.846602
58.263540
##ZVALUE=370
0.554919
0.472665
0.537634
0.426769
0.526905
0.507832
0.437498
0.513792
0.584722
0.427961
0.482798
0.557899
0.582933
0.426769
0.478625
0.669956
0.637770
0.641942
0.543594
0.534654
0.563860
0.612736
0.526905
0.648499
0.546575
0.622869
0.562668
0.771880
0.768900
0.560880
0.701547
0.597835
0.689626
0.613928
0.697970
0.746846
0.609756
0.565648
0.911951
0.711679
0.753999
0.750422
0.640750
0.841618
0.779629
0.875592
0.808835
0.739694
0.813603
0.905991
0.751615
1.025796
0.793934
0.957847
0.818968
0.954866
1.013875
1.012683
1.058578
1.143813
1.280904
1.354814
1.470447
1.564622
1.776814
1.960993
3.416538
17.216802
116.688609
285.817981
641.259551
956.415534
1015.581489
1015.581489
1015.581489
1015.581489
1012.427807
761.673450
426.812768
247.551799
105.438828
53.631663
24.206638
15.249848
12.811422
12.906790
13.165474
14.008880
14.709830
15.381575
15.536547
16.585588
18.364787
19.996762
24.405718
28.204918
##ZVALUE=375
0.539422
0.593662
0.815988
0.652671
0.599623
0.587702
0.745654
0.656843
0.657439
0.647902
0.449419
0.740886
0.689626
0.697970
0.563860
0.738502
0.646710
0.751615
0.570416
0.753999
0.738502
0.722408
0.683665
0.618696
0.651479
0.574589
0.740886
0.740886
0.602603
0.740886
0.645518
0.804663
0.620484
0.703931
0.659823
0.759959
0.626445
0.763535
0.831485
0.798702
0.699759
0.740886
0.660419
0.807643
0.971556
0.784993
0.739694
0.796914
0.750422
0.780821
0.723600
0.890493
0.785589
0.983477
0.894666
0.781417
0.913739
0.915527
1.112819
1.045465
1.151562
1.047850
1.344681
1.363754
1.224875
1.454949
1.542568
1.920462
2.070665
5.356669
22.865534
126.349926
312.204957
744.941831
1015.681624
1015.681624
1015.681624
1015.681624
1015.681624
971.517563
658.136010
325.796008
176.903605
75.770617
39.193630
17.835498
12.642741
11.501908
11.904836
12.537837
12.676716
13.454556
13.913512
14.635921
15.283823
16.790628
##ZVALUE=380
0.636578
0.588894
0.633597
0.495911
0.742674
0.519753
0.568628
0.418425
0.573993
0.612736
0.666976
0.632405
0.596642
0.526905
0.613928
0.534654
0.617504
0.586510
0.493526
0.553727
0.704527
0.631809
0.591874
0.612736
0.586510
0.536442
0.656843
0.575781
0.561476
0.704527
0.573993
0.727773
0.704527
0.698566
0.673532
0.698566
0.700951
0.599623
0.767708
0.763535
0.721812
0.808835
0.942945
0.639558
0.692606
0.744462
0.655651
0.756979
0.851750
0.896454
0.806451
0.735521
0.804663
0.776649
0.936985
0.888705
1.000762
0.904799
0.915527
0.887513
0.891685
0.966787
0.910759
1.012683
1.071692
1.284480
1.177788
1.347661
1.576543
1.816750
2.031922
2.991557
9.770989
31.581521
138.031840
309.733748
687.128901
1003.211737
1015.681624
1015.681624
1015.681624
1015.681624
814.962983
541.614890
269.745588
141.832829
56.141615
28.069615
13.405681
10.947585
10.845661
11.252761
11.976957
12.260675
12.542605
13.135672
##ZVALUE=385
0.536442
0.690818
0.706911
0.608563
0.578761
0.556707
0.633597
0.542998
0.600815
0.582933
0.604987
0.719428
0.673532
0.503659
0.580549
0.706911
0.554919
0.549555
0.596642
0.592470
0.730753
0.730753
0.725985
0.625849
0.618696
0.632405
0.593662
0.523925
0.646710
0.797510
0.557899
0.688434
0.536442
0.457764
0.463724
0.558496
0.573993
0.743866
0.564456
0.595450
0.692606
0.739694
0.615716
0.629425
0.682473
0.723600
0.581741
0.646710
0.697970
0.576973
0.707507
0.837445
0.720620
0.750422
0.777841
0.771880
0.792742
0.855923
0.806451
0.794530
0.827909
0.898838
0.962615
0.789762
0.925660
0.993609
1.171827
1.003742
1.139641
1.346469
1.482964
1.569986
1.646876
1.936555
4.055500
18.459558
46.552420
124.711990
234.046578
430.498719
587.449670
758.875608
810.347795
765.796900
674.100518
488.899946
341.835618
183.226466
103.317499
43.580532
20.452738
10.746717
9.605885
9.845495
10.254979
10.399818
##ZVALUE=390
0.471473
0.410676
0.366569
0.553727
0.458956
0.492930
0.496507
0.482798
0.142455
0.442863
0.463724
0.494719
0.536442
0.478625
0.433922
0.354648
0.400543
0.435710
0.485778
0.486970
0.406504
0.589490
0.557899
0.379682
0.707507
0.568628
0.445843
0.408888
0.456572
0.468493
0.400543
0.602603
0.412464
0.469685
0.567436
0.419617
0.596642
0.480413
0.472665
0.420809
0.527501
0.436902
0.515580
0.473857
0.546575
0.602603
0.584722
0.555515
0.636578
0.550747
0.547767
0.655651
0.594854
0.594854
0.492930
0.720620
0.594854
0.652671
0.622869
0.768900
0.595450
0.600815
0.589490
0.724792
0.767708
0.942945
0.820756
0.885725
0.915527
0.937581
1.117587
1.040697
1.126528
1.259446
1.303554
1.353621
1.959801
9.417534
28.521419
84.080696
157.013535
289.863944
386.366844
491.046906
546.025634
551.942587
504.008532
394.984484
302.645564
188.296437
114.041567
50.397515
25.877953
11.353493
8.843541
8.432865
##ZVALUE=395
0.552535
0.458956
0.466704
0.478625
0.623465
0.464916
0.545979
0.594854
0.491738
0.580549
0.404716
0.502467
0.427961
0.507832
0.389814
0.471473
0.495911
0.574589
0.528693
0.532866
0.618696
0.529885
0.620484
0.628829
0.434518
0.443459
0.613928
0.715852
0.556707
0.646710
0.543594
0.595450
0.646710
0.636578
0.733733
0.509620
0.576973
0.803471
0.486970
0.625849
0.600815
0.588894
0.618696
0.487566
0.550747
0.598431
0.672936
0.525713
0.564456
0.694990
0.523925
0.504851
0.685453
0.675917
0.699759
0.743866
0.592470
0.759959
0.604987
0.549555
0.682473
0.767708
0.648499
0.728965
0.818968
0.874996
0.855923
0.836849
0.842810
0.926852
0.995994
1.118779
1.086593
0.886917
1.059771
1.046658
1.208782
1.187921
1.503825
5.836487
20.359755
67.266822
125.441551
230.020881
331.052542
466.345549
536.000729
572.595596
542.919636
448.894501
349.326730
214.247704
133.202672
60.140491
30.719638
13.683438
##ZVALUE=400
0.530481
0.467896
0.466704
0.439882
0.425577
0.403523
0.609756
0.446439
0.332594
0.512600
0.367761
0.545979
0.443459
0.527501
0.428557
0.598431
0.522733
0.599623
0.751615
0.728965
0.593662
0.433922
0.477433
0.474453
0.570416
0.366569
0.575781
0.587702
0.515580
0.598431
0.550747
0.492930
0.522733
0.543594
0.483990
0.475645
0.418425
0.567436
0.551939
0.561476
0.566840
0.537634
0.624657
0.540614
0.566840
0.555515
0.498891
0.483990
0.565648
0.654459
0.532866
0.627637
0.706911
0.578761
0.639558
0.557899
0.590682
0.562668
0.589490
0.502467
0.705719
0.636578
0.654459
0.708699
0.738502
0.706911
0.901818
0.801682
0.914931
0.900626
0.933409
0.903606
1.002550
0.865459
1.017451
0.938773
0.916719
1.103878
1.113415
1.075864
1.132488
2.856851
10.360479
40.444732
87.044835
188.507438
287.383795
422.835946
523.139834
602.293611
594.953895
504.481792
405.878425
269.385576
175.320506
86.961985
##END
