##TITLE=QP00352
##FORMAT=SPECTACLE-ASCII V-1.2
##DATA TYPE=ULTRAVIOLET SPECTRUM
##SECOND TYPE=ULTRAVIOLET SPECTRUM
##DATE=01/11/18
##TIME=18:59:26
##SPECTROMETER/DATA SYSTEM=SPECTACLE
##XUNITS=NM EM
##YUNITS=ENERGY
##YFACTOR=1
##FIRSTX=220
##LASTX=410
##NPOINTS=96
##3DDATA=Equidistant
##ZUNITS=NM EX
##FIRSTZ=210
##LASTZ=400
##ZPOINTS=39
##XYDATA=(Y..Y)
##ZVALUE=210
3.080964
2.710819
2.508759
3.015995
2.306700
3.719926
2.815723
3.162622
3.577471
3.893971
2.928972
3.006458
3.502965
3.153682
3.993511
4.736781
3.843904
3.874898
3.671646
5.211830
4.649758
4.675984
4.968643
5.227923
4.961491
6.335974
6.034970
6.569624
6.603599
6.686449
6.732941
6.835461
6.450415
6.748438
7.891655
6.930828
7.848740
8.711815
7.723570
8.929968
7.831454
8.503795
8.598566
8.441806
8.604527
10.255575
9.513497
9.838939
9.815693
9.197593
9.932518
10.239482
9.365678
10.364652
10.348558
11.056662
10.237694
11.100769
11.985898
10.255575
11.424422
11.208653
11.746883
13.160706
12.598634
12.085438
13.318658
15.481710
17.745495
20.408630
23.961663
31.472445
35.719872
39.389729
43.725967
47.730803
50.992966
48.963428
48.363805
44.544935
43.565631
34.078956
29.420853
25.911927
21.345615
17.150640
14.612675
14.200807
13.350844
11.971593
11.672974
11.745691
11.225939
12.103915
12.534857
13.312697
##ZVALUE=215
10.457635
9.740591
8.737445
7.570982
6.454587
6.138682
4.969835
5.473495
5.372763
6.290674
5.459785
4.913807
5.612969
4.419684
3.884435
3.701448
4.071593
4.437566
4.319549
4.631877
4.160404
5.211830
5.645752
6.184578
6.126761
5.680919
6.490946
6.236434
6.462932
7.087588
7.715821
7.306933
7.412434
6.570816
7.697940
8.084774
7.208586
6.884933
8.391738
8.811951
8.346438
8.228421
9.285808
9.471774
8.845925
9.115934
10.076761
9.469986
8.994937
10.183454
9.492636
10.286570
10.054708
10.081530
10.702610
9.943843
10.662675
10.552406
11.737943
11.983514
10.780692
10.486841
11.324883
12.248755
12.108684
12.079477
12.747645
14.108419
15.159845
20.354986
21.501780
26.202798
28.151870
34.159422
35.026670
39.799809
40.119886
44.758916
44.258833
40.629506
35.909414
32.506585
29.432774
24.282932
20.407438
16.466975
16.463995
14.084578
12.031794
13.559461
10.509491
11.176467
10.580420
9.808540
10.965466
10.329485
##ZVALUE=220
25.944710
24.338961
25.420785
29.731989
26.060939
20.051599
16.948581
14.883876
12.162924
11.621714
11.315942
13.116598
13.081431
11.093616
9.680986
8.083582
6.573796
5.401969
4.907846
4.626513
4.700422
4.451871
4.876852
5.259514
5.428791
5.648732
7.106662
6.023645
5.864501
6.099939
7.169843
6.255507
7.046461
7.287860
8.209944
6.853938
7.227659
8.159876
7.124543
7.310510
8.164644
7.753968
7.470846
7.977486
8.080602
8.842945
8.489490
7.575750
8.229613
8.734465
8.517504
9.150505
8.459687
9.293556
8.410811
8.924603
10.067821
9.995699
9.935498
9.910464
9.993911
9.748936
9.728670
10.315776
10.270476
10.019541
11.845827
13.521910
14.637709
15.194416
19.053817
21.335483
23.330450
25.351644
27.963519
29.125810
29.672980
31.894445
28.806925
26.656985
28.386712
23.881793
22.942424
18.261671
15.419722
13.262630
11.786819
10.483861
10.785460
9.292960
9.589791
9.057522
8.807778
9.612441
9.111762
8.244514
##ZVALUE=225
40.857792
41.039586
51.609874
68.558455
73.663592
75.856447
70.014000
56.866407
48.093796
32.731891
27.644634
23.628473
25.250912
28.647780
26.040673
24.368763
21.994710
18.599629
13.044477
10.359883
7.709861
6.423593
5.094409
4.564524
5.706549
6.031990
5.984902
6.272793
6.435513
5.816817
6.724000
6.498694
7.316470
6.802678
7.381439
6.866455
7.637739
7.779598
7.286668
7.510781
7.731915
7.191896
7.445812
7.966757
8.388758
7.365942
9.252429
7.644892
9.225607
8.716583
8.324981
9.613633
8.476973
9.304881
9.480715
10.402799
8.948445
10.319948
9.517670
9.676814
10.178685
10.885000
10.582805
10.634661
11.040568
11.357665
12.632608
12.653470
14.425516
15.992522
18.294454
20.480752
22.831559
26.007891
26.714802
26.253462
27.454495
25.015473
24.759769
23.322701
20.559430
20.472407
18.985868
16.507506
14.090538
13.964772
13.410449
12.393594
11.999607
11.220574
11.178851
9.927750
10.226965
10.022521
10.873675
9.631515
##ZVALUE=230
34.451485
35.540462
59.365630
96.391439
133.807659
175.314546
192.599893
209.675431
191.216469
160.663724
113.277435
80.350637
54.740906
47.804713
47.958493
48.269629
53.936839
50.919652
46.973825
35.912991
28.469563
19.161701
13.052821
8.459687
6.904602
6.001592
6.345510
6.201863
6.124973
6.003976
6.620884
6.707907
6.526709
6.895661
7.641912
7.786751
5.854964
6.929636
6.931424
7.569790
7.574558
8.516908
8.549690
8.023977
7.583499
8.992553
8.215904
8.789897
9.681582
8.879900
9.531975
8.775592
8.539557
9.678602
9.082556
9.450912
9.960532
10.040998
11.011958
10.112524
10.353923
10.246634
10.680556
11.535883
10.965466
11.375546
12.151599
14.125705
15.365481
17.374754
18.485785
21.551847
23.034811
26.215911
25.961995
24.576783
25.322437
25.587678
24.869442
21.993518
21.862984
20.755529
18.793941
16.237497
16.262531
15.351772
14.714599
14.258623
14.314651
12.664795
12.354851
11.795759
11.537671
12.667775
12.063980
11.652708
##ZVALUE=235
13.779998
15.169978
39.150715
75.329542
146.297812
202.981830
292.625427
370.500684
417.131782
419.954658
368.312001
292.894840
209.177732
136.777759
99.946856
76.710582
74.803829
79.802871
84.694624
84.882975
79.617500
69.570541
52.059889
40.370822
24.481416
16.167760
12.758970
9.434819
8.016825
6.972551
7.359982
6.892681
7.023811
7.946491
6.784797
7.347465
7.599592
6.946921
7.921457
7.499456
8.345842
8.087754
8.878708
7.581711
7.946491
9.068847
9.729862
7.853508
9.971857
8.462667
10.127425
9.761453
9.216666
9.778738
9.823442
9.699464
10.054708
11.699796
12.205839
10.613799
11.826754
10.571480
11.278987
12.687445
13.763905
13.903975
14.894605
14.954805
16.592741
18.503666
21.330714
24.226904
25.142431
27.973652
28.494596
27.797818
28.312802
28.826594
28.932691
25.008917
23.304820
22.059679
22.254586
19.811988
19.639730
17.726421
18.253922
15.992522
17.520785
16.096830
16.112924
16.247630
15.523434
16.111732
15.316606
15.592575
##ZVALUE=240
2.639890
2.731681
5.884767
21.662712
48.902631
117.586851
200.660825
350.404978
482.383966
605.010986
716.979504
710.826516
621.343851
525.791645
374.923944
259.723663
158.915520
121.119618
99.189878
104.160905
113.852620
123.187900
116.252899
105.849504
87.758899
64.456463
51.086545
32.242537
22.132993
12.926459
10.337830
8.868575
8.525848
8.614659
8.596778
9.420514
9.057522
8.396506
8.658767
8.508563
9.137988
8.031726
9.061694
8.153915
9.055734
10.132790
10.205507
9.453893
9.128451
9.842515
9.949803
10.193586
10.666847
11.864901
11.101961
11.354685
12.456775
11.524558
11.348724
12.536645
13.386607
13.846755
13.335943
13.667941
14.589429
16.303658
16.996861
17.945766
18.133521
21.549463
23.716688
26.500821
27.673841
29.960871
30.188560
32.728910
30.543804
31.355619
29.126406
29.320717
28.233528
25.458932
23.865700
21.476746
21.870732
21.411777
20.875931
20.626783
20.287633
20.134449
19.337535
21.195412
20.842552
20.440817
19.324422
18.714666
##ZVALUE=245
1.768470
1.730919
1.876950
2.448559
3.839731
14.747977
43.247938
121.569633
226.780772
411.931872
578.798652
791.750550
908.148885
951.891541
909.916759
748.124719
594.878793
398.736000
269.565582
156.001449
120.687485
107.173920
119.721889
128.387809
136.271715
128.195882
113.441944
96.397996
73.120594
53.083897
34.106970
24.000406
16.821623
10.563731
8.509755
7.318854
8.295774
8.635521
8.172989
8.471608
8.628964
9.167790
8.598566
9.104609
8.871555
8.277893
8.905530
9.427667
9.528995
8.755922
9.657741
9.803772
9.853840
10.168552
10.479689
11.164546
10.652542
11.414886
10.589957
12.231469
11.690855
11.447668
12.591481
12.051463
14.613867
13.397932
14.787912
17.610788
17.473698
19.369721
23.061633
24.719834
25.560856
28.567910
30.352473
29.231906
29.224753
30.288696
28.198957
25.962591
26.123524
23.259521
22.905469
23.104548
22.222996
20.221472
20.429492
20.174980
19.927621
20.049810
19.235611
18.332601
19.396544
19.020438
17.991662
20.033717
##ZVALUE=250
1.780987
1.965761
2.116561
2.086759
2.207756
2.179742
3.408790
8.784533
35.839677
84.965825
241.860747
420.550704
641.275644
929.986835
1015.670896
1015.670896
1015.670896
1015.670896
851.551890
558.851957
361.678600
223.312974
130.806565
101.786852
110.811591
124.943852
138.959885
145.159960
137.030482
122.463703
108.979940
79.126954
60.194731
34.730434
22.692680
13.635755
9.356737
8.168817
8.224845
7.541776
7.672906
7.735491
7.201433
8.152723
8.094907
7.239580
7.781982
7.944703
7.826686
8.235574
8.468628
7.726550
8.125901
8.315444
8.770823
8.674860
9.146929
9.408593
9.546876
9.349585
8.994937
8.965731
9.474754
9.985566
11.150837
12.107491
11.291504
13.260841
13.690591
16.315579
17.299652
18.835664
20.156503
22.747517
22.086501
25.022626
23.149848
22.387505
21.699667
20.481944
20.234585
20.165443
19.074678
19.479990
19.217730
17.733574
16.819835
17.002821
17.002821
17.933846
18.848777
18.685460
17.375946
17.518997
18.452406
17.886758
##ZVALUE=255
1.592636
1.527667
1.481771
1.638532
2.039671
1.818538
1.863837
1.751781
2.387762
4.313588
22.391677
62.447786
160.005689
271.730423
460.104942
649.038553
853.569508
971.649885
1015.641689
977.327824
844.357014
617.624521
440.596938
252.324939
155.680776
101.473927
94.112754
107.990503
125.254989
142.975450
147.529840
143.923759
131.314993
106.150508
82.063675
55.116415
38.411617
22.183657
13.929605
8.005500
6.800890
6.594658
6.426573
6.975532
6.510615
6.897449
6.635785
6.480813
6.440878
6.995797
6.480813
7.157922
7.727742
7.332563
7.220507
7.979870
6.982684
7.554889
8.320808
8.473992
7.951856
8.137822
8.543730
8.160472
9.203553
9.398460
9.473562
10.997653
11.867881
12.762547
14.014840
14.725924
17.894506
17.682910
18.076897
19.474626
19.686818
20.050406
19.062757
18.719435
17.361641
17.638803
16.738772
16.472936
16.896725
17.120838
16.112924
16.142726
16.310811
17.045736
15.870929
15.339851
15.587807
16.317964
16.214848
15.217662
##ZVALUE=260
1.270771
1.325607
1.396537
1.505613
1.717806
1.628995
1.789927
1.688600
1.775622
2.072453
2.213717
3.100634
8.882880
39.153695
91.852546
222.795010
368.366838
606.024861
805.073977
1015.674472
1015.674472
1015.674472
999.264717
819.918513
549.104810
373.333693
214.645863
137.371421
91.095567
86.943507
105.654001
131.314993
147.925615
156.805515
150.985718
134.374499
112.974644
82.594752
60.506463
37.492514
24.239421
14.396906
9.812713
6.950498
6.273985
6.409883
6.625652
6.649494
6.420612
6.194711
6.668568
6.397963
6.856918
6.570816
6.633997
7.455945
6.994605
7.314682
6.638765
7.360578
7.027984
7.763505
7.712841
7.592440
8.169413
8.172989
9.052753
9.520650
10.290742
11.024475
12.508631
15.001893
15.057921
16.393661
16.996861
16.784668
16.310811
17.179847
16.177893
16.210675
15.446544
15.324950
15.318990
14.429688
14.614463
13.945699
13.399720
15.097857
14.587641
15.301704
14.706850
14.992952
15.176535
15.192628
15.031695
15.173554
##ZVALUE=265
1.365542
1.105666
1.356602
1.150966
1.163483
1.512766
1.487732
1.503825
1.592636
1.541972
2.051592
1.785755
2.184510
2.338886
6.192923
19.985437
74.906945
147.787929
265.568495
513.583422
742.406845
1009.832621
1015.681624
1015.681624
1015.681624
951.050520
750.615001
478.033423
314.825773
165.330768
100.766420
76.626539
86.882710
112.471581
134.477615
154.206753
160.504580
153.187513
134.643912
111.264586
85.600615
55.631995
38.662553
21.518469
13.862848
8.529425
6.762743
6.697774
6.137490
6.068945
5.984902
6.655455
6.802678
6.313920
6.553531
6.618500
6.596446
6.629825
6.386638
6.953478
6.631613
6.738901
6.592870
7.291436
6.714463
7.928610
8.285642
8.067489
9.474754
9.586811
10.908842
12.607574
12.235641
13.918877
13.917685
14.378428
14.949441
14.450550
13.580918
13.508797
13.837814
13.317466
13.270974
14.113784
13.146996
12.898445
13.134480
13.838410
13.583899
13.728738
13.217926
13.628602
14.251471
13.885498
13.473630
14.584661
##ZVALUE=270
1.388788
1.147985
1.164675
1.087785
0.990629
1.375675
1.211762
1.384616
1.327991
1.550913
1.343489
1.735687
1.597404
1.684427
2.230406
2.124906
2.768636
12.496710
38.931966
131.253004
255.504847
424.400568
737.231970
981.536508
1015.681624
1015.681624
1015.681624
1015.681624
888.179541
666.033626
403.906703
250.690579
122.525692
75.833797
66.339970
84.363818
114.021897
136.377811
154.991746
162.719488
153.293610
137.166977
110.092759
85.902810
56.016445
38.192868
21.207929
14.339685
8.923411
7.416606
5.874634
6.279945
5.676746
5.822778
6.008744
6.041527
6.111860
6.145835
6.804466
6.659627
6.415844
6.313920
6.513596
6.684661
6.527901
6.928444
7.194877
8.156896
8.433461
9.122491
10.323524
11.143684
12.122989
12.409687
13.263822
13.467669
13.270974
13.805628
12.486577
12.312531
12.565851
11.803508
12.318492
11.751652
11.422634
11.960864
11.782646
12.114644
12.338758
11.992455
11.637807
12.393594
12.888908
12.455583
12.656450
12.489557
##ZVALUE=275
1.167655
1.087785
1.243949
1.210570
1.349449
1.292825
1.231432
1.336932
1.464486
1.456738
1.359582
1.428723
1.334548
1.618862
1.776814
1.977682
1.729727
2.247691
2.517700
6.242394
26.392937
75.575709
214.684010
399.381518
725.600719
981.378555
1015.681624
1015.681624
1015.681624
1015.681624
1015.681624
892.790556
626.685619
326.849818
183.420777
82.009435
55.974722
64.046979
83.079934
113.471746
133.319497
152.085423
158.855915
152.281523
137.381554
106.586814
84.576607
58.507919
40.244460
23.866892
15.525818
10.120869
7.753968
6.886721
6.204844
6.325841
6.304979
6.903410
6.733537
6.996989
6.527901
7.221699
7.106662
6.890893
7.099509
7.054806
8.023977
8.508563
8.895993
9.381771
10.662675
11.186600
12.316704
12.900829
12.996793
13.745427
13.981462
14.174581
13.582706
13.173819
12.788773
12.230873
12.208819
11.402965
11.750460
11.515617
11.913776
11.474490
11.454821
11.481643
11.479855
12.199879
11.315942
12.070537
11.971593
12.033582
##ZVALUE=280
1.219511
1.160502
1.365542
1.435876
1.333952
1.213551
1.091957
1.207590
1.384616
1.401901
1.592636
1.448989
1.696944
1.715422
1.535416
1.834631
2.015829
1.866817
2.141595
2.327561
2.455711
2.935529
15.068650
49.592853
165.770650
311.958790
603.493452
936.496854
1015.681624
1015.681624
1015.681624
1015.681624
1015.681624
1015.681624
967.705846
525.162816
288.652778
115.206838
60.985684
46.049953
57.506561
84.644556
108.283758
134.849548
150.411725
154.269934
148.918629
131.562948
111.045837
81.404448
60.688853
36.945939
25.908947
15.092492
10.473728
7.188916
6.631613
6.631613
6.612539
6.490946
6.646514
6.841421
6.827712
7.330775
7.479787
7.541776
7.893443
7.887483
9.349585
9.894967
9.928942
11.326671
11.589527
12.096763
12.916923
12.139678
13.084412
12.336969
13.195872
12.951493
12.682676
12.065768
11.850595
11.357665
11.563897
10.821819
11.071563
10.310411
10.979772
11.109710
11.093616
10.948777
10.542870
10.921955
11.262894
10.824800
##ZVALUE=285
1.070499
0.922680
0.945926
1.039505
1.149774
1.040697
1.110435
1.229644
1.321435
1.230836
1.384616
1.334548
1.225471
1.173615
1.179576
1.260638
1.541972
1.630783
1.749992
1.694560
1.788735
2.069473
2.254844
2.470613
7.659793
28.449893
100.919008
214.207768
468.728542
733.349919
999.223590
1015.681624
1015.681624
1015.681624
1015.681624
1015.681624
864.271522
516.772866
311.425924
138.785839
72.130561
36.075711
36.101937
56.041479
75.492859
106.912851
126.811862
143.419504
150.401592
145.092607
131.670833
106.543899
85.572004
58.881640
41.441917
24.349689
16.204715
9.578466
7.803440
6.510615
6.480813
6.427765
6.373525
6.562471
6.887913
7.213950
7.382631
7.660985
8.146763
8.871555
8.935928
10.249615
10.101795
10.674596
11.082888
11.192560
10.910630
10.898709
10.814667
10.608435
10.767579
10.376573
10.140538
10.028481
10.153651
9.974837
10.226965
10.259748
10.116696
10.479689
9.949803
10.231733
9.981990
10.036826
10.029674
10.339618
##ZVALUE=290
0.920892
0.893474
1.016855
1.148582
1.146793
1.105666
1.001954
1.150966
1.134872
1.023412
1.058578
1.035929
1.080632
1.044869
1.207590
1.068711
1.352429
1.412630
1.531839
1.429915
1.796484
1.754761
1.918674
1.923442
2.041459
2.364516
3.407598
11.134744
54.269433
133.032799
263.448358
564.803481
877.270699
1015.681624
1015.681624
1015.681624
1015.681624
1015.681624
1015.681624
730.429888
475.010872
230.404735
117.142797
42.611957
28.334856
36.295652
50.711632
75.279474
93.516707
121.349692
136.965513
147.430897
142.678618
128.061771
108.282566
80.724955
59.956908
37.922859
25.956631
15.506744
11.035800
8.019805
7.228851
6.981492
7.149577
6.896853
7.590652
7.766485
8.446574
8.559823
8.897781
10.469556
10.635853
11.277795
10.983944
11.026859
10.707974
10.711551
10.608435
10.266900
10.128617
10.196567
10.000467
10.173917
10.265708
10.383725
10.338426
10.064840
10.421872
9.997487
9.953976
10.370612
10.240674
9.842515
10.092854
10.028481
##ZVALUE=295
0.901818
0.997782
0.886917
0.805855
0.963807
1.059771
0.839829
0.952482
1.090765
0.883937
0.970960
1.176596
0.945926
0.788569
1.036525
1.162887
0.972748
1.143813
1.196861
1.361966
1.187921
1.643896
1.320839
1.722574
1.677871
1.817942
2.061725
2.183914
2.519488
5.540848
20.112991
86.980462
198.830962
457.761884
720.015764
1015.614867
1015.614867
1015.614867
1015.614867
1015.614867
1015.614867
962.550640
665.155649
343.443751
177.049637
59.227943
29.166937
23.281574
29.638410
48.387647
65.509677
93.598962
111.853480
132.101774
138.498545
135.532618
123.765469
101.923943
81.658959
57.080984
40.156841
23.888946
16.095638
10.940433
8.449554
7.644892
7.410645
7.399917
8.012652
8.756518
9.538531
9.494424
10.302663
10.752678
10.961890
10.854602
10.609627
10.482669
10.260940
10.148883
10.255575
10.154843
10.023713
9.535551
9.781718
10.147691
10.233521
9.999871
10.246634
10.284781
9.584427
9.601712
9.443760
9.632707
9.626746
9.654760
##ZVALUE=300
1.007915
0.993609
0.965595
0.875592
1.001954
1.007915
0.945926
0.868440
1.035929
1.078844
1.225471
0.935793
0.970960
1.270771
1.147985
1.198649
1.206994
1.234412
1.271963
1.267791
1.377463
1.485944
1.569986
1.550913
1.631975
1.769662
1.857877
2.090931
2.200603
2.507567
3.041625
3.276467
12.556911
46.242476
162.563920
346.676707
792.945027
1015.681624
1015.681624
1015.681624
1015.681624
1015.681624
1015.681624
1015.681624
900.129676
568.220019
267.559886
128.932595
41.304827
20.586848
20.908713
27.596951
45.175552
62.169433
85.852742
105.092525
124.844909
130.644441
129.747987
122.347474
100.189447
82.704425
57.783723
41.828752
26.773810
18.194914
12.369752
10.051727
9.059906
9.142756
9.781718
10.007620
10.734797
11.260509
11.253953
11.174679
11.480451
11.172891
11.097789
10.560751
10.405779
10.674000
10.401607
11.238456
11.019707
10.676980
10.119677
10.397434
10.215640
10.297894
9.651780
9.752512
10.217428
10.230541
10.036826
9.725690
##ZVALUE=305
1.033545
0.857711
1.039505
0.985861
1.007915
0.979900
1.155734
0.998974
1.093745
1.053810
1.182556
1.031756
1.007915
1.253486
1.082420
1.106858
1.123548
1.354814
1.238585
1.241565
1.480579
1.529455
1.522899
1.474619
1.610518
1.631975
1.686811
1.888871
1.895428
2.168417
2.298951
2.529621
2.748966
3.328919
5.300641
32.824874
94.755888
281.296968
550.797582
1015.679836
1015.679836
1015.679836
1015.679836
1015.679836
1015.679836
1015.679836
1015.679836
741.482973
443.033576
187.461972
86.099505
28.045774
16.613603
19.915700
27.100444
42.713881
59.390664
82.227588
100.419521
118.024945
126.594901
124.111772
115.333796
97.484589
78.539848
55.055618
40.728450
25.919676
18.249750
13.168454
11.977553
10.817647
10.981560
11.225939
11.632442
10.883808
11.005998
10.451674
10.344982
10.528564
10.744929
10.651946
10.278821
10.347962
10.429621
10.861754
10.467768
10.312796
10.390878
10.509491
9.967685
10.098815
9.833574
9.848475
9.771585
9.695888
##ZVALUE=310
0.891685
1.059771
0.992417
0.898838
0.924468
0.949502
0.897646
0.810623
1.064539
1.007915
0.772476
0.926852
0.908971
0.815988
0.847578
1.039505
0.983477
1.021624
0.788569
1.128912
1.067519
1.269579
1.300573
1.352429
1.114607
1.474619
1.456738
1.385808
1.480579
1.575947
1.628995
1.786947
2.021790
2.014637
2.356768
2.615452
3.082752
13.772845
49.268603
173.899531
347.563028
716.877580
1015.460491
1015.681624
1015.681624
1015.681624
1015.681624
1015.681624
1015.681624
924.409628
611.445904
295.205712
148.008466
47.697425
19.678473
13.376474
16.036630
24.868846
35.126805
53.332448
71.375966
94.221830
108.135939
118.195415
118.335485
110.958815
96.160769
74.079633
58.120489
39.443970
28.523803
19.213557
14.988780
12.222528
10.860562
10.385513
10.458827
10.182858
9.525418
10.421872
9.762645
9.890795
10.452867
10.252595
10.327697
10.430813
10.126829
10.211468
10.148883
10.269880
9.922981
9.889603
9.658933
9.711981
9.554625
9.685755
##ZVALUE=315
0.897646
0.820756
0.942945
0.834465
0.665784
0.798702
0.882745
0.780821
0.893474
0.794530
0.832677
1.045465
0.900626
1.005530
0.865459
0.958443
0.869632
0.966787
1.013875
1.041889
1.139641
1.190901
1.022816
0.921488
1.069903
1.276731
1.167655
1.212955
1.339912
1.498461
1.506805
1.563430
1.460910
1.606941
1.833439
1.824498
2.059937
2.337694
2.563596
5.981922
22.968650
105.718970
238.400698
543.496609
870.726705
1015.681624
1015.681624
1015.681624
1015.681624
1015.681624
1015.681624
988.281369
713.210702
369.113684
197.702646
72.328448
27.753711
11.780858
11.671782
15.868545
21.550655
35.148859
47.992468
67.931414
85.539818
103.925467
112.099648
111.814737
104.725957
89.361668
73.763728
55.157542
41.338801
27.320981
20.060539
14.058948
12.350678
10.699630
10.406971
10.124445
10.051727
10.210872
10.168552
10.101795
10.307431
10.054708
9.952784
10.116696
10.182858
9.946823
10.051727
9.959936
9.793639
9.836555
9.739995
9.611845
##ZVALUE=320
0.839829
0.859499
0.813603
0.693798
0.986457
0.853539
0.905991
0.840425
0.785589
0.928640
0.848770
0.829697
0.732541
0.984669
0.972748
0.921488
0.972748
0.755787
1.127720
1.093745
1.143813
0.980496
1.129508
1.031756
0.998974
0.913739
1.094937
1.148582
1.340508
1.374483
1.381636
1.428723
1.453757
1.447797
1.486540
1.604557
1.771450
2.097487
2.126694
2.479553
2.602935
3.330708
9.902716
58.695674
161.365867
441.002846
739.176869
1015.687585
1015.687585
1015.687585
1015.687585
1015.687585
1015.687585
1015.687585
863.505006
484.056473
277.511477
117.956996
51.575899
15.467405
10.431409
11.260509
13.972521
20.618439
28.871894
45.418739
60.368776
81.081986
94.531775
105.446577
107.517838
100.238919
89.111924
70.237517
54.563880
37.289858
28.165579
19.101501
14.921427
11.944771
10.674000
10.198951
10.416508
10.262728
10.206699
10.365844
10.162592
10.138750
10.274649
9.985566
10.148883
9.942651
9.816885
9.971857
9.859800
9.781718
##ZVALUE=325
0.958443
0.901818
0.955462
0.811815
0.911951
0.840425
0.993609
0.846982
0.870824
0.897646
0.932813
1.157522
1.134872
0.893474
1.002550
1.146793
0.975728
0.998974
1.114607
1.074672
1.047850
1.108646
1.133680
1.082420
1.376867
1.214743
1.187921
1.136661
1.378655
1.326799
1.107454
1.339912
1.428723
1.318455
1.593828
1.731515
1.772642
1.902580
1.938939
2.045631
2.181530
2.135634
2.394915
2.892613
5.989671
39.319396
108.255744
299.258828
555.904508
999.627709
1015.805006
1015.805006
1015.805006
1015.805006
1015.805006
1015.805006
974.918008
586.362481
343.663692
146.176815
69.465637
21.361709
11.650920
10.044575
11.096597
14.051795
19.339919
30.440688
43.280721
62.926412
77.758431
92.695951
99.518895
101.597905
95.307827
81.656575
67.199469
49.291849
37.238598
24.602413
18.567443
13.828874
12.058616
10.923743
10.669827
10.564923
10.267496
10.484457
10.380745
10.154843
9.989738
10.106564
10.176897
9.691715
9.871721
9.733438
##ZVALUE=330
0.684857
0.868440
0.574589
0.812411
0.755787
0.713468
0.577569
0.729561
0.780821
0.971556
0.806451
0.797510
0.964999
0.878572
0.931621
0.852942
0.688434
0.931621
0.878572
0.796914
0.900626
0.854731
1.116991
0.886917
0.743866
0.964999
1.091957
1.040697
1.110435
1.161695
1.231432
1.095533
1.235604
1.340508
1.404881
1.294613
1.549721
1.463890
1.689792
1.709461
1.848936
1.966953
2.206564
2.220869
2.457500
3.032684
3.657937
18.523932
59.956908
200.564861
395.141840
810.616612
1015.681624
1015.681624
1015.681624
1015.681624
1015.681624
1015.681624
1015.681624
800.477862
492.196679
209.929943
100.333691
32.965541
14.536977
9.900928
10.150671
11.491776
13.596416
20.701885
28.868914
43.760538
56.944489
75.008869
86.499453
94.735622
95.248818
88.748932
78.000426
61.045885
47.960877
32.896996
25.348663
18.809438
14.536977
11.787415
11.090636
10.113716
10.111928
10.061860
10.102987
9.666681
9.594560
9.499788
9.408593
9.301901
##ZVALUE=335
0.783801
0.727773
0.706911
0.689626
0.820756
0.929832
0.738502
0.801682
0.816584
0.910759
0.877976
0.909567
0.803471
0.806451
0.983477
0.890493
0.949502
0.955462
0.922680
0.957847
1.042485
0.864863
0.981688
0.994802
0.997782
0.821948
1.053810
1.005530
1.050830
0.986457
1.043677
0.927448
1.085997
1.331568
1.169443
1.358986
1.386404
1.515746
1.326799
1.439452
1.630783
1.642704
1.776814
1.883507
1.949668
2.264977
2.395511
2.719760
3.173947
8.566976
32.097697
122.898817
263.990760
603.515506
970.916748
1015.681624
1015.681624
1015.681624
1015.681624
1015.681624
1015.681624
993.894935
673.114657
334.711671
167.662501
55.683851
21.592975
10.808706
10.158420
10.163784
11.462569
14.407635
18.967986
29.703975
39.747953
55.967569
68.535805
81.524849
87.808967
89.180470
83.791614
72.047710
59.886575
45.313835
35.473704
24.799705
18.755794
14.587641
12.169480
10.793805
9.997487
9.578466
9.333491
9.301901
9.289980
9.198785
##ZVALUE=340
0.773668
0.844598
0.630617
0.869632
0.834465
0.767708
0.771880
0.716448
0.699759
0.693798
0.738502
0.648499
0.729561
0.966787
0.680685
0.828505
0.916719
0.799894
0.822544
0.885725
0.944734
0.800490
0.870824
0.843406
1.080632
0.898838
1.011491
0.963807
1.063943
0.990629
1.157522
0.993609
1.254678
1.104474
1.199841
1.120567
1.178980
1.299977
1.286864
1.214743
1.309514
1.527667
1.475811
1.530647
1.685619
1.675487
1.891851
2.033710
2.279878
2.338886
2.832413
4.187822
23.830533
74.726939
225.324631
434.414744
880.845785
1015.681624
1015.681624
1015.681624
1015.681624
1015.681624
1015.681624
1015.681624
845.407844
505.007505
220.035911
103.334785
29.638410
12.963414
10.584593
10.425448
10.485649
11.350513
13.910532
18.224716
27.186871
37.032962
52.446723
64.536929
76.798797
82.452893
82.943439
79.078674
68.751574
58.713555
44.691563
35.218596
24.695992
18.861890
14.016628
11.519790
10.122657
9.750724
9.167790
9.157658
##ZVALUE=345
0.763535
0.679493
0.722408
0.884533
0.736713
0.720620
0.880957
0.848770
0.903606
0.661612
0.804663
0.681877
0.792742
0.756979
0.849962
0.665784
0.837445
0.810623
0.658631
0.855923
0.842810
0.844598
0.769496
0.769496
0.959635
0.996590
0.867844
0.968575
0.920892
0.903606
1.176596
0.978708
1.046658
1.214743
1.090765
1.012683
1.060963
1.142621
1.275539
1.397729
1.330972
1.267791
1.300573
1.390576
1.397729
1.532435
1.639724
1.761913
1.926422
2.073646
2.211928
2.580881
2.676845
3.134608
7.644892
53.862929
149.397850
383.213758
667.098761
1015.681624
1015.681624
1015.681624
1015.681624
1015.681624
1015.681624
1015.681624
1015.681624
670.440793
367.187858
140.828490
57.663918
17.802715
11.520982
10.708570
10.043979
10.016561
10.478497
12.420416
16.396642
24.933815
33.827424
48.007965
58.476925
70.438981
75.371861
77.333450
75.360537
65.521598
57.018995
43.705702
34.597516
24.142861
18.817782
13.830662
11.441708
9.798408
##ZVALUE=350
0.836849
0.741482
0.764728
0.790954
0.758767
0.662804
0.833869
0.610948
0.744462
0.727773
0.733733
0.826716
0.704527
0.771880
0.793934
0.840425
0.830889
1.022816
0.762939
0.837445
0.901818
0.934601
0.810623
0.848770
1.015663
0.853539
0.968575
0.991821
0.844598
0.898838
0.951886
1.016855
0.976920
0.947714
0.978708
1.070499
0.925660
1.055598
1.204610
0.983477
1.291633
1.187921
1.241565
1.207590
1.187921
1.380444
1.352429
1.586676
1.652837
1.588464
1.739860
1.786947
2.125502
2.146959
2.453923
2.660751
4.946589
18.362999
91.503859
215.182900
518.693924
859.406590
1015.681624
1015.681624
1015.681624
1015.681624
1015.681624
1015.681624
1015.681624
780.586600
403.046012
224.006772
82.646608
30.571818
11.376739
9.808540
9.199977
9.026527
8.681417
9.787679
12.137890
15.471578
22.489429
29.634833
41.044950
50.566792
62.095523
67.663789
70.842505
68.644881
61.243773
53.186417
41.137934
32.672882
23.314953
18.067956
##ZVALUE=355
0.839829
0.840425
0.753999
0.796914
0.750422
0.733733
0.748634
0.794530
0.865459
0.821948
0.710487
0.659823
0.789762
0.880957
0.802875
0.695586
0.896454
0.761747
0.810623
0.911951
0.829697
0.937581
0.878572
0.922680
0.785589
0.840425
0.944734
1.003742
0.751615
0.897646
0.857711
0.979900
0.945926
0.904799
1.116991
1.118779
1.186728
1.072884
1.125932
1.028776
1.232624
1.033545
1.191497
1.244545
1.121759
1.224875
1.193881
1.508594
1.567602
1.512766
1.525879
1.678467
1.749992
2.161860
2.087951
2.019405
2.351999
2.673864
2.975464
12.427568
47.055483
175.377727
345.207453
691.906810
996.731520
1015.681624
1015.681624
1015.681624
1015.681624
1015.681624
1015.681624
956.275463
610.320568
262.051821
121.552944
33.900738
13.965964
9.346604
8.773804
8.063912
8.258820
8.612871
8.902550
10.781884
13.731718
19.265413
26.473999
36.971569
44.636726
55.266619
61.565638
64.537525
63.854456
57.541728
50.645471
40.232539
##ZVALUE=360
0.687838
0.820756
0.823736
0.775456
0.737906
0.711679
0.801682
0.744462
0.785589
0.871420
0.804663
0.734925
0.805855
0.831485
0.840425
0.908971
0.817776
0.835657
0.840425
0.835657
0.898838
0.789762
0.790954
0.879765
0.921488
0.875592
1.027584
0.935793
1.042485
0.972748
1.020432
1.056790
1.153946
1.025796
1.079440
1.054406
1.027584
1.106858
1.095533
1.204610
1.037717
1.139641
1.075864
1.144409
1.417994
1.114607
1.324415
1.321435
1.333952
1.579523
1.456738
1.572967
1.729727
1.741648
1.789927
2.013445
2.047420
2.314448
2.449751
2.658963
2.919436
5.094409
17.787814
85.613728
207.023621
491.088629
810.319781
1015.681624
1015.681624
1015.681624
1015.681624
1015.681624
1015.681624
1015.681624
741.283894
360.251665
184.180737
63.411593
22.951961
9.144545
8.440614
8.140802
7.877946
7.588863
7.694960
8.115768
9.198785
12.059808
15.209913
21.940470
29.472709
39.818883
47.252774
53.773522
58.014989
58.184862
##ZVALUE=365
0.733733
0.778437
0.707507
0.591874
0.810623
0.854731
0.736713
0.719428
0.696778
0.650883
0.915527
0.758767
0.821948
0.876784
0.837445
0.781417
0.847578
0.870824
0.951886
0.851750
0.733733
0.852942
0.990629
0.855923
0.722408
0.785589
0.949502
0.871420
0.928640
0.932813
0.987649
0.874996
1.099706
1.030564
0.911951
1.031756
1.139641
0.975728
0.946522
1.110435
1.152754
1.074672
1.005530
1.141429
1.143813
1.047850
1.230836
1.319647
1.281500
1.347661
1.188517
1.421571
1.464486
1.454949
1.595616
1.584888
1.815557
1.860857
1.818538
2.072453
2.339482
2.475977
2.810955
3.339648
7.674694
45.473576
122.616887
322.937965
585.044026
1002.639532
1015.681624
1015.681624
1015.681624
1015.681624
1015.681624
1015.681624
830.832720
471.155643
258.601904
92.194676
33.733845
10.435581
8.251667
7.525682
7.242560
7.103682
6.912947
6.991625
7.232428
8.278489
9.467602
13.613701
17.851591
25.366545
32.023787
41.483641
##ZVALUE=370
0.713468
0.704527
0.712872
0.700951
0.658631
0.761747
0.726581
0.701547
0.798702
0.636578
0.850558
0.780821
0.941753
0.866652
0.727773
0.826716
0.776649
0.804663
0.734925
0.826716
0.812411
0.828505
0.845790
0.737906
0.813603
0.959635
0.834465
0.755787
0.905991
0.894666
0.971556
0.933409
0.779629
0.931621
0.842810
0.946522
1.058578
0.932813
1.102686
1.007915
1.012683
1.047850
0.962615
1.019835
1.069903
0.982881
1.081824
1.158714
1.159906
1.243949
1.306534
1.206994
1.371503
1.238585
1.398921
1.370907
1.307726
1.566410
1.592636
1.692772
1.981854
1.990795
2.138615
2.378821
2.444983
2.862811
4.144907
24.018884
82.842708
253.491402
474.265814
898.796916
1015.681624
1015.681624
1015.681624
1015.681624
1015.681624
1015.681624
985.015035
566.090941
317.860842
126.404762
54.349899
15.447736
8.235574
7.173419
6.764531
6.504655
6.459951
6.550550
6.332994
6.229877
7.211566
8.708835
11.114478
16.016960
##ZVALUE=375
0.735521
0.752807
0.660419
0.667572
0.721812
0.751615
0.761747
0.729561
0.828505
0.655651
0.668764
0.889897
0.814795
0.733733
0.705719
0.790954
0.741482
0.771880
0.675917
0.746846
0.677705
0.878572
0.736713
0.717640
0.884533
0.700951
0.941753
0.724792
0.837445
0.890493
0.926852
0.807643
0.844598
0.772476
0.848770
0.850558
0.978708
0.959635
0.916719
0.905991
0.995994
0.913739
1.009703
1.040697
0.959635
0.957847
0.989437
0.896454
0.977516
0.943542
1.056790
0.907779
1.062751
1.218915
1.204610
1.399517
1.258850
1.396537
1.422763
1.390576
1.481771
1.671910
1.671910
1.791716
1.951456
2.078414
2.431870
2.576709
3.380775
8.251667
46.162009
126.197934
341.171622
626.917481
1015.681624
1015.681624
1015.681624
1015.681624
1015.681624
1015.681624
1015.681624
830.659866
455.156565
251.923800
92.598796
37.352443
10.473728
7.360578
6.642938
6.506443
5.947948
6.061792
5.930662
5.776882
5.599856
6.270409
##ZVALUE=380
0.665784
0.594854
0.432730
0.598431
0.667572
0.596642
0.576973
0.609756
0.774860
0.693798
0.667572
0.711679
0.776649
0.677705
0.722408
0.646710
0.727773
0.805855
0.656843
0.697970
0.740886
0.819564
0.690818
0.778437
0.889897
0.772476
0.855923
0.773668
0.729561
0.638962
0.762939
0.741482
0.759959
0.759959
0.915527
0.818968
0.797510
0.881553
0.956655
0.758767
0.943542
0.783801
0.859499
0.843406
0.853539
0.941753
0.910759
0.904799
0.956655
0.933409
1.057982
1.024604
1.016855
1.224875
1.048446
1.068711
1.261830
1.215935
1.230836
1.221895
1.338720
1.465678
1.589656
1.507998
1.575947
1.691580
1.925826
2.229810
2.471805
2.987981
3.331900
5.429983
19.450784
94.275475
231.928825
566.482544
934.910774
1015.681624
1015.681624
1015.681624
1015.681624
1015.681624
1015.681624
966.424942
627.634525
290.073752
139.932632
43.628812
17.033815
7.499456
6.473660
5.839467
5.709529
5.549788
5.593896
5.583763
##ZVALUE=385
0.567436
0.654459
0.619888
0.590682
0.507832
0.618696
0.552535
0.644922
0.582933
0.608563
0.709891
0.593662
0.705719
0.707507
0.737906
0.573993
0.666976
0.795722
0.658631
0.592470
0.761747
0.777841
0.709891
0.849962
0.781417
0.584722
0.620484
0.631809
0.726581
0.601411
1.018643
0.648499
0.674725
0.930429
0.801682
0.750422
0.731945
0.772476
0.798702
0.772476
0.837445
0.777841
0.790954
0.791550
0.770688
0.864863
0.874996
0.783801
0.916719
0.979900
0.934601
0.936985
0.955462
1.025796
0.932813
1.132488
1.006722
1.046658
1.218915
1.130700
1.030564
1.080632
1.289845
1.218915
1.420975
1.336932
1.639724
1.832843
2.050996
2.358556
2.503991
2.777576
2.877712
3.590584
10.299683
61.107874
156.060457
402.450562
717.178583
1015.684009
1015.684009
1015.684009
1015.684009
1015.684009
1015.684009
1015.683413
833.503008
421.060920
220.862627
82.367659
29.736757
8.565784
6.131530
5.584955
5.509853
5.094409
##ZVALUE=390
0.658631
0.731945
0.623465
0.511408
0.664592
0.732541
0.577569
0.744462
0.610948
0.728965
0.588894
0.692606
0.694990
0.550747
0.546575
0.569820
0.623465
0.628829
0.610948
0.698566
0.502467
0.640750
0.816584
0.723600
0.726581
0.802875
0.796914
0.611544
0.750422
0.834465
0.756979
0.846982
0.831485
0.747442
0.739694
0.654459
0.657439
0.853539
0.753999
0.819564
0.868440
0.759959
0.978708
0.906587
0.960827
0.825524
0.763535
0.798702
0.866652
0.884533
0.953674
0.853539
0.854731
0.825524
1.008511
1.142621
1.089573
0.972748
1.109838
0.975728
1.156926
1.289845
1.182556
1.246929
1.416802
1.548529
1.423955
1.712441
1.847744
2.002716
2.082586
2.143979
2.451539
2.627969
2.638698
2.985597
4.633665
26.630759
86.130500
281.666517
546.395779
988.796949
1015.675664
1015.675664
1015.675664
1015.675664
1015.675664
1015.675664
1015.675664
690.254569
396.918654
154.498816
67.507625
17.712712
6.912947
5.685687
##ZVALUE=395
0.552535
0.581741
0.609756
0.451803
0.513792
0.747442
0.478625
0.552535
0.584722
0.678897
0.538826
0.733733
0.618696
0.655651
0.692606
0.580549
0.632405
0.679493
0.559688
0.738502
0.673532
0.553727
0.600815
0.673532
0.699759
0.710487
0.708699
0.750422
0.721812
0.837445
0.666976
0.665784
0.646710
0.833869
0.646710
0.743866
0.753999
0.779629
0.725985
0.780821
0.736713
0.856519
0.643730
0.731945
0.652671
0.843406
0.915527
0.757575
0.787973
0.918508
0.898838
0.955462
0.876784
0.950694
0.900626
1.057982
0.969768
0.929832
1.022816
0.970960
0.936985
1.010895
0.900626
1.102686
1.129508
1.409650
1.348853
1.538992
1.516938
1.883507
1.899600
1.962781
2.057552
2.289414
2.094507
2.190471
2.316833
2.716780
3.336668
15.164614
58.227777
214.064717
416.371822
791.395903
1015.667915
1015.667915
1015.667915
1015.667915
1015.667915
1015.667915
1015.667915
778.412819
481.633544
209.460855
97.411871
29.432774
##ZVALUE=400
0.626445
0.562668
0.634789
0.650883
0.718832
0.598431
0.719428
0.566840
0.719428
0.648499
0.670552
0.723600
0.713468
0.483990
0.622869
0.741482
0.725985
0.662804
0.583529
0.686646
0.814795
0.519753
0.624657
0.804663
0.770688
0.663996
0.782609
0.693798
0.455976
0.613928
0.717640
0.669956
0.754595
0.838637
0.718832
0.731945
0.838637
0.833869
0.733733
0.750422
0.834465
0.845790
0.752807
0.754595
0.898838
0.911951
0.899434
0.889897
0.917912
0.900626
0.894666
1.075864
0.849962
0.792742
0.903606
0.855923
1.108646
1.075864
1.094937
1.060963
0.947714
1.155734
0.958443
1.260638
1.176596
1.349449
1.307726
1.503825
1.496673
1.622438
1.830459
1.964569
1.830459
1.978874
2.037883
1.847744
1.982450
2.001524
2.205968
2.480745
2.980828
7.985830
29.055476
111.768842
258.428454
596.438646
959.147811
1015.678644
1015.678644
1015.678644
1015.678644
1015.678644
1015.678644
882.570744
567.961931
283.016562
##END
