##TITLE=FQP00601
##FORMAT=SPECTACLE-ASCII V-1.2
##DATA TYPE=ULTRAVIOLET SPECTRUM
##SECOND TYPE=ULTRAVIOLET SPECTRUM
##DATE=01/21/18
##TIME=15:45:01
##SPECTROMETER/DATA SYSTEM=SPECTACLE
##XUNITS=NM EM
##YUNITS=ENERGY
##YFACTOR=1
##FIRSTX=220
##LASTX=410
##NPOINTS=96
##3DDATA=Equidistant
##ZUNITS=NM EX
##FIRSTZ=210
##LASTZ=400
##ZPOINTS=39
##XYDATA=(Y..Y)
##ZVALUE=210
1.694560
2.662539
2.095699
2.402663
1.848936
2.978444
2.821684
2.980828
3.415942
3.137589
3.787875
4.554987
4.105568
4.864931
4.898906
4.980564
5.428791
5.756617
6.265640
7.689595
7.497668
8.333921
8.291602
10.090470
9.673834
9.302497
8.604527
9.551644
10.716915
11.281967
12.098551
11.556745
12.718439
12.374520
13.046861
13.745427
12.437701
13.973713
13.970733
14.247894
14.120936
14.388561
15.750527
15.020967
15.218854
14.698505
15.587807
16.825795
15.681982
16.964674
15.195608
16.449690
16.968846
17.205477
17.978549
17.450452
18.329620
19.557476
18.738508
18.250942
18.088818
18.237829
17.936826
19.760728
20.866990
19.998550
22.112727
22.955537
29.646754
33.525825
39.756894
48.680902
58.458447
65.173507
75.594783
77.728629
88.903904
93.501806
91.939569
91.179609
82.506537
77.103972
59.248805
49.507618
37.280917
30.744672
23.057461
22.381544
18.196702
19.525886
17.430782
17.759800
15.477538
17.878413
17.348528
18.051863
##ZVALUE=215
11.961460
10.403991
9.909868
7.419586
6.296635
5.274415
4.704595
5.647540
5.124807
5.540848
6.270409
5.648732
5.949736
5.675554
5.164742
5.430579
5.512834
6.346703
6.457567
6.376505
6.528497
7.644892
7.824898
9.258986
9.916425
10.698438
10.609627
11.473894
11.481643
11.309981
11.516809
13.383627
12.652874
13.144612
14.723539
14.144778
14.140606
15.096664
15.139580
14.886856
14.370680
15.777946
15.733838
15.561581
16.444921
16.820431
15.443563
16.106963
16.119480
17.930865
17.115474
17.861724
17.585754
17.862916
18.225908
18.416643
17.146468
18.597841
17.473698
17.304420
18.758774
18.525720
19.205809
19.990802
19.303560
21.010637
20.812750
22.995472
25.120974
32.930970
35.552979
44.639707
49.139857
59.661865
65.918565
72.819591
76.547861
78.780651
78.249574
75.197816
71.945786
60.612559
51.425695
43.281913
34.950972
28.805733
24.378896
20.952821
18.283725
16.834736
17.371774
18.232465
18.064976
16.609430
16.635656
17.277598
##ZVALUE=220
48.382878
47.678947
53.702593
54.693818
46.120882
38.221478
27.552843
18.785596
11.450648
12.238622
11.434555
12.545586
13.657808
12.247562
9.995699
9.997487
8.128881
8.233786
7.845759
7.144809
7.491708
8.621812
9.305477
10.454655
10.085702
11.105537
10.679960
12.405515
13.368726
13.107657
14.398694
13.807416
16.092658
17.061830
16.770959
16.551614
16.843677
17.523766
17.631650
18.639565
17.179847
17.953515
17.991662
16.926527
17.477870
17.476678
16.793609
17.479658
16.430616
15.252829
18.149614
17.194748
17.506480
17.980933
17.584562
18.885732
18.202662
18.662810
17.719865
20.055771
19.959807
19.596815
18.524528
18.862486
18.706918
21.418929
21.761656
22.445917
27.011633
27.976632
35.004616
37.363768
47.553778
55.997968
61.913729
62.860847
69.597960
70.656538
69.458485
68.605542
65.643787
58.841705
49.388409
44.389963
33.553839
28.365850
24.796724
20.246506
18.189549
19.386411
17.325878
17.258525
16.866922
16.231537
16.250610
16.543865
##ZVALUE=225
83.166957
87.278485
116.129518
158.059001
170.260668
170.333982
150.999427
119.283795
88.787675
56.026578
38.137436
27.544498
25.752783
25.216937
29.223561
27.627945
22.631884
21.242499
16.408563
14.376640
10.130405
9.786487
9.360909
10.247827
10.157824
10.894537
12.198687
12.753606
14.053583
14.925599
15.609860
17.322898
17.972589
18.312931
17.947555
19.154549
20.474792
22.928715
20.715594
19.720793
21.827817
19.318461
22.391677
21.023750
21.197796
19.837618
18.494725
17.426610
19.313693
18.950701
17.494559
18.768907
18.799901
19.822717
19.086599
17.765760
17.529726
18.641949
19.748807
17.707944
19.109845
18.469691
19.073486
17.698407
18.256903
19.912720
19.838810
21.893978
22.112727
28.168559
28.904676
34.238696
38.962960
43.603778
45.471787
51.469803
52.221417
51.814914
53.507686
51.127672
45.200586
39.370656
37.206411
35.432577
29.244423
25.745630
23.677945
20.823479
19.099712
18.691421
17.250776
16.232729
18.123984
16.993880
16.759634
16.863942
##ZVALUE=230
80.310702
146.461725
170.066953
250.158906
359.164476
401.587486
422.013998
418.007970
366.307497
276.917815
128.778815
116.999745
73.632002
51.185489
46.438575
50.427914
51.015615
47.291517
45.595765
32.394528
31.188726
18.387437
15.718937
13.126731
10.278821
9.856820
11.660457
10.804534
11.870861
13.140440
15.033484
15.368462
16.606450
18.300414
18.025637
20.030737
21.520853
23.318529
23.409724
22.748709
23.939610
23.054481
23.344755
22.733808
21.551847
20.217896
20.073652
19.707680
21.305680
21.782517
21.080971
19.847751
20.209551
19.005537
19.477606
18.334985
17.201900
18.205643
19.781590
19.513965
18.338561
18.055439
19.560456
20.255446
19.075871
20.227432
20.243526
22.314787
25.616884
25.925636
31.052828
32.457709
37.666559
39.014816
41.867495
44.353604
45.261979
47.673583
46.365857
46.551824
39.082766
39.060712
34.054518
31.422973
28.901696
25.056601
24.294853
22.370815
22.393465
21.442771
20.818710
20.576715
20.712614
22.765994
21.263957
20.412803
##ZVALUE=235
29.985905
38.211942
85.484982
207.932591
330.670476
511.207581
654.359460
777.394772
802.787542
751.750469
612.684488
453.572869
287.795663
190.747976
119.495988
88.229775
76.204538
79.646707
90.446472
87.517500
81.863999
70.904493
57.359934
40.209889
31.057000
20.195842
15.457869
14.250875
12.802482
14.613867
16.523600
15.957952
18.109679
19.084811
19.951463
23.559928
22.419691
23.097992
24.208426
23.461580
24.885535
24.881959
24.003983
24.221539
23.927689
23.402572
22.573471
22.282600
22.090673
21.230578
22.563934
20.449758
22.457838
20.885468
19.623637
20.031929
20.460486
21.332502
20.216703
19.117594
19.725561
23.477674
21.378994
21.133423
21.333694
22.784472
23.738742
25.760531
25.707483
28.737783
30.858517
34.833550
37.372708
42.274594
45.907497
45.127869
44.161677
44.057965
45.958757
42.659640
42.280555
40.164590
35.887957
33.919811
33.286810
30.047894
31.315684
29.954910
30.569434
28.513670
26.763678
29.429793
28.257966
27.889609
28.489828
28.843880
##ZVALUE=240
2.962947
3.331900
15.728474
45.331717
133.163929
257.323980
513.783693
757.928491
1015.943885
1015.943885
1015.943885
1015.943885
1015.943885
812.465549
569.799542
365.458727
197.306871
132.836699
103.459954
110.659599
116.172433
120.080709
121.971965
108.238459
93.095899
69.606900
54.976940
36.598444
26.651621
18.436909
17.000437
15.985966
16.586781
18.538833
18.874407
19.171834
19.787550
21.400452
20.586848
22.897720
23.061633
22.514462
22.289753
21.656752
22.736788
22.172928
21.359921
22.277832
21.793842
18.978715
19.647479
19.729733
20.892620
19.984841
20.264983
18.414855
18.866658
19.241571
20.430684
19.987822
19.842982
20.575523
20.687580
24.084449
22.676587
24.595857
25.147796
27.457476
29.430985
33.148527
34.343600
38.505793
40.532947
46.574473
46.857595
52.175522
49.919486
49.122572
49.874783
47.528744
46.339631
45.967698
42.256713
37.942529
40.049553
37.471652
38.825870
36.864877
38.394928
37.719607
35.770535
36.180615
36.846995
36.769509
34.338832
36.457777
##ZVALUE=245
1.948476
1.980662
2.430677
2.333522
10.608435
33.387542
122.828484
250.247717
556.117892
844.146609
1015.969515
1015.969515
1015.969515
1015.969515
1015.969515
1015.969515
929.167867
587.444901
385.623574
198.559761
134.862661
114.281774
123.265982
135.963559
139.879584
133.266449
119.518638
104.152560
78.017712
60.798526
42.124987
29.075742
23.764968
17.564893
17.330647
17.146468
17.354488
17.144680
17.396808
18.544793
18.849969
17.637610
19.097924
19.155741
19.093752
16.822815
16.267896
16.733408
17.377734
17.814636
17.798543
16.336441
17.358661
18.134713
16.539693
17.938614
17.137527
19.056797
17.413497
17.545819
18.735528
17.904639
18.399954
18.773675
19.240975
22.307634
24.187565
22.893548
27.220845
28.015971
32.111406
35.171509
37.709475
41.926503
42.596459
44.589639
43.180585
43.459535
43.618679
41.809678
41.417480
39.607882
36.446452
36.917925
34.841895
34.028888
35.295486
35.334826
35.579801
36.064982
34.826994
34.418702
33.895969
35.605431
34.412742
33.915639
##ZVALUE=250
1.697540
1.112819
1.502633
1.713634
2.009869
2.232790
4.654527
15.752912
73.396564
165.539980
399.014950
644.066930
915.256739
1015.933752
1015.933752
1015.933752
1015.933752
1015.933752
988.084674
645.609498
415.963531
246.117711
133.625865
105.665922
113.904476
130.534768
140.558481
150.045753
145.604610
129.291415
114.144683
86.180568
65.247416
42.925477
30.334592
22.089481
16.731620
14.584661
15.382767
15.626550
15.192628
14.857650
14.644861
14.719963
14.183521
14.224648
14.830828
15.509725
13.381839
14.214516
12.903810
14.057755
13.009906
13.365746
12.959838
13.877749
13.410449
14.153719
13.616681
14.363527
14.250875
14.821887
14.536977
14.278889
16.848445
15.942454
17.565489
19.123554
20.243526
21.956563
23.900867
25.831461
29.311776
28.641820
33.715963
33.072829
31.837821
34.362674
32.695532
34.313798
32.786727
31.175613
31.624436
31.551719
32.105446
32.316446
30.943751
31.717420
31.566620
32.108426
30.793548
32.083988
31.411648
31.532645
30.993819
32.401681
##ZVALUE=255
1.205802
1.154542
1.600981
1.386404
1.764894
1.763701
1.993775
1.992583
2.759695
7.324815
39.766431
95.418692
197.714567
473.805666
770.068765
1015.856862
1015.856862
1015.856862
1015.856862
1015.856862
1015.856862
920.198560
483.344793
279.616714
139.681697
99.210739
95.639825
110.137463
131.899714
146.527886
155.002475
149.917603
135.553479
112.384558
91.123581
60.938001
44.871569
29.412508
21.382570
16.240478
14.793873
13.816953
14.873743
13.427734
13.018847
12.991428
13.035536
13.418794
13.122559
12.218952
11.753440
12.126565
11.784434
13.286471
12.321472
11.691451
12.378693
11.809468
12.238622
12.190938
12.261868
11.826754
11.814833
13.412833
12.671947
14.025569
15.018582
16.090870
18.129945
17.965436
19.636750
20.413995
22.460818
24.367571
25.062561
26.504993
26.659966
27.402639
28.423667
26.870966
27.437806
26.500821
27.148724
26.537776
27.290583
28.356910
27.211905
27.123690
28.632879
28.728843
27.977824
28.280616
27.373433
28.439760
28.667450
28.132796
##ZVALUE=260
0.904799
1.159906
0.923872
1.174808
1.387596
1.179576
1.520514
1.427531
1.698732
1.601577
2.044439
2.967715
14.514923
43.516755
146.996975
313.498974
650.251508
933.891535
1015.943885
1015.943885
1015.943885
1015.943885
1015.943885
740.565658
503.959656
280.448794
180.912614
105.078816
84.009767
89.948773
110.391974
134.843588
151.178837
161.383748
157.127976
139.594674
118.345618
88.713765
68.867803
45.402646
33.135414
22.876859
18.892884
15.572906
15.547872
14.296770
14.222860
14.590621
13.855696
12.655854
14.023781
12.475848
12.834668
11.976957
11.988878
11.820793
11.256933
12.477636
12.115836
11.673570
11.457801
11.933446
12.153983
12.599826
13.303757
12.602806
14.447570
15.113950
15.535951
16.281605
16.788840
19.383430
19.057989
22.600889
22.166967
22.154450
23.146868
23.899674
23.687482
24.694800
24.341941
25.034547
25.168657
24.548769
25.879741
25.538802
25.319457
26.075840
25.888681
26.941895
26.747584
25.218725
26.388764
26.937723
26.674867
26.770830
##ZVALUE=265
1.001954
0.794530
0.734925
0.986457
1.024604
0.957847
0.981688
1.111627
0.991821
1.160502
1.445413
1.344681
1.813769
2.112985
5.320907
31.653643
76.327920
185.421705
316.385627
570.343733
778.974891
959.632993
1016.047001
1016.047001
987.444520
829.748511
607.728958
432.219505
242.098570
149.647593
95.484853
78.593493
87.570548
119.912624
141.963959
163.776875
166.341662
160.119534
145.426989
116.717815
96.302629
66.281557
48.260689
31.681657
23.927689
18.092990
17.002821
14.821887
15.036464
14.711618
14.320612
13.789535
13.093948
12.913942
12.237430
12.413859
12.061000
12.387633
12.131929
11.721849
11.911988
12.586713
12.503862
12.262464
12.357831
13.054609
13.168454
14.329553
14.072657
15.764832
15.841722
16.905665
17.775893
18.924475
19.061565
20.342469
20.105839
19.798875
20.213723
22.027493
21.599531
22.339821
23.247600
23.082495
22.749901
22.984743
23.554564
23.968816
23.404956
23.688674
24.577975
24.662614
25.614500
24.618506
25.530457
25.548935
##ZVALUE=270
0.770688
0.923872
0.690818
0.653863
0.576973
0.820756
0.614524
0.895858
0.811815
0.875592
0.906587
0.815988
1.289845
1.155734
1.082420
1.561642
2.355576
9.181499
30.238628
94.934702
187.003016
326.547623
552.208424
727.152824
894.012451
941.973925
915.466547
819.197893
636.912584
478.128791
328.658819
176.083446
110.611916
67.357421
68.443418
94.980597
114.546418
143.882632
162.543654
168.099999
163.152814
145.721436
124.856830
95.284581
71.287751
45.814514
33.185482
23.918748
19.074678
15.025735
14.641881
13.255477
13.884902
13.160706
13.100505
12.453794
12.623668
12.765527
12.224913
12.388825
12.338758
12.524724
12.763739
12.396574
12.814999
13.202429
12.898445
14.073849
14.504790
15.286803
15.850663
16.709566
16.780496
17.951727
18.328428
18.557906
18.625855
20.257831
19.165874
20.062923
20.432472
21.175742
21.219850
20.927787
21.540523
22.525787
22.615790
21.871924
22.011995
23.723841
23.091435
22.535920
22.189617
23.653507
23.978949
23.984909
##ZVALUE=275
0.631809
0.885725
0.470877
0.713468
0.823736
0.704527
0.973940
0.917912
0.863671
1.168847
0.915527
0.960827
1.147985
1.295805
0.979900
1.217723
1.262426
1.439452
1.782775
4.160404
15.226603
45.463443
140.029788
286.391973
579.168797
828.308463
1016.047597
1016.047597
1016.047597
1016.047597
1016.047597
874.401927
612.042546
311.970711
171.049833
78.710914
59.110522
69.093704
88.979602
119.212866
141.588449
161.581635
166.736841
158.624649
146.299601
114.680529
92.891455
66.519976
49.691796
32.730699
23.883581
18.188953
14.480948
13.450980
13.342500
13.228655
13.090968
13.418794
12.491941
13.068914
12.550950
13.556480
12.930632
13.163686
13.268590
13.590455
13.894439
14.290810
15.294552
15.178919
16.342998
17.185807
17.662644
18.583536
19.660592
19.558668
18.914938
18.723607
19.331574
20.122528
21.054745
20.750761
20.622611
21.449924
22.162795
21.253824
22.915602
21.799803
22.068620
21.694899
22.997856
22.090673
22.409558
22.675991
22.343993
22.908449
##ZVALUE=280
0.519753
0.689626
0.700951
0.595450
0.737906
0.740886
0.609756
0.923872
0.737906
0.641942
0.683665
0.843406
0.908971
0.819564
0.850558
0.922680
1.172423
1.290441
1.439452
1.455545
1.790524
2.103448
8.682609
29.999614
113.026500
230.901837
486.230850
752.008557
1015.926003
1015.926003
1015.926003
1015.926003
1015.926003
913.172960
641.712546
341.120958
196.619630
88.510513
55.539608
48.781633
61.150789
90.128779
111.040473
138.233900
155.213475
159.553885
154.730678
138.311982
118.221641
87.272525
65.354705
44.256449
31.651855
21.646619
16.675591
13.063550
12.534857
11.997819
12.227893
12.710690
12.645721
12.666583
13.302565
13.733506
13.981462
14.192462
14.376640
15.229583
15.282631
15.988946
16.919971
17.019510
17.653704
18.056631
18.521547
19.307733
19.867420
19.026995
19.609928
20.594001
21.031499
20.079613
20.600557
20.720959
20.828843
20.917654
21.113753
21.970868
20.400882
22.026896
22.069812
21.427870
20.789504
21.510720
21.351576
21.572709
##ZVALUE=285
0.478625
0.459552
0.504851
0.351667
0.602603
0.705719
0.450611
0.655651
0.674725
0.639558
0.656843
0.739694
0.565648
0.742674
0.710487
0.737906
0.776649
0.864863
1.104474
1.166463
1.140833
1.330972
1.253486
1.516938
4.165769
14.944673
52.943826
123.445988
287.749767
458.424687
643.234849
894.114971
1015.943885
1015.943885
982.568860
781.130791
595.565438
361.954570
226.535797
110.776424
62.002540
35.069585
38.176775
55.972934
78.277588
108.146667
127.739906
146.194696
151.277781
146.731734
136.875510
110.165477
91.253519
63.253641
45.423508
28.268695
19.710660
14.193654
12.368560
11.689663
12.004972
11.619925
11.570454
12.243986
12.927651
13.557673
13.939738
14.210939
14.502406
15.366673
15.571713
16.691685
16.622543
17.075539
17.942786
18.179417
18.305779
19.416809
19.238591
19.136667
19.797683
20.089746
20.410419
20.628572
20.453930
20.811558
21.204948
20.704865
21.177530
20.831823
20.367503
20.326972
21.212697
20.541549
20.539761
20.461679
##ZVALUE=290
0.326633
0.435710
0.463724
0.464916
0.542998
0.368953
0.516772
0.424981
0.443459
0.496507
0.664592
0.538826
0.494719
0.557899
0.753999
0.832677
0.750422
0.690818
0.698566
0.873804
1.047850
0.804663
0.957847
0.882745
1.189709
1.296997
1.916885
5.765557
29.491782
68.145394
165.139437
293.455720
458.468795
698.914528
848.985910
952.727795
938.145518
807.181597
655.985475
437.355638
288.059711
146.026611
77.924728
34.074783
26.322603
36.086440
49.487948
73.656440
93.928576
119.758844
136.285424
145.011544
142.331719
127.358437
111.016631
81.925988
63.012838
40.889978
30.265450
19.125938
15.316606
12.236834
11.451840
11.413693
11.917949
12.427568
12.977719
13.442636
14.070868
14.874935
15.761852
16.013980
16.774535
17.478466
17.177463
18.086433
18.501878
19.274950
18.589497
19.294620
19.936562
20.128489
20.062923
20.491481
20.978451
20.560622
21.597743
20.624995
20.583868
20.509958
20.018816
20.422935
20.074844
20.087957
20.496845
20.649433
##ZVALUE=295
0.395775
0.311732
0.367761
0.499487
0.359416
0.598431
0.491738
0.267625
0.355840
0.318885
0.461936
0.522733
0.365973
0.410676
0.647902
0.409484
0.593662
0.667572
0.732541
0.654459
0.681877
0.589490
0.596642
0.919700
0.867844
0.835657
1.062751
1.262426
1.378655
2.346635
8.735657
37.671924
89.105964
213.142633
350.324512
563.182831
714.507699
849.872828
888.698697
821.274519
704.224706
503.114462
355.943441
188.677907
105.251670
42.272806
24.142861
21.209717
29.608607
47.188997
65.490603
92.875957
111.185908
130.348802
138.353705
135.761499
123.908520
103.566647
83.268881
58.499575
43.704510
28.027892
20.320415
14.580488
12.811422
12.384653
12.414455
13.364553
13.696551
14.254451
15.234947
15.981793
16.449690
16.993880
17.533898
18.062592
18.540621
19.281507
19.581914
19.659996
19.772649
20.523667
19.999743
20.960569
20.475984
21.018982
20.331740
21.363497
21.572709
20.370483
20.474792
20.444989
20.645857
20.740628
20.284653
20.302534
##ZVALUE=300
0.444651
0.326633
0.268817
0.356436
0.393987
0.290871
0.379682
0.376701
0.443459
0.425577
0.274777
0.462532
0.491738
0.381470
0.538826
0.385642
0.325441
0.460744
0.457764
0.557899
0.564456
0.633597
0.583529
0.604987
0.664592
0.684857
0.890493
0.944734
0.969768
1.005530
1.084805
1.550913
5.227923
19.338727
66.991448
132.229924
274.318457
417.920947
619.517565
744.168758
842.003822
837.808847
736.112595
615.866780
411.766768
272.783637
141.819715
76.317787
29.882789
16.941428
18.923879
25.544763
42.795539
59.148669
84.014535
103.329420
124.321580
130.774975
128.614902
122.136474
101.837516
83.684921
60.103536
45.164824
29.502511
21.549463
16.303658
14.339685
14.021993
14.110804
14.549494
15.015602
16.281605
16.497970
16.750693
17.672777
18.604994
18.557906
19.247532
19.838810
19.870996
19.956827
20.824671
21.318793
21.138787
21.348596
21.420717
21.215677
21.587610
21.137595
21.392703
20.453930
20.606518
20.882487
20.376444
20.535588
##ZVALUE=305
0.344515
0.264645
0.265837
0.361800
0.262856
0.267625
0.361800
0.308752
0.289679
0.385642
0.397563
0.314713
0.394583
0.437498
0.488758
0.480413
0.416636
0.566840
0.592470
0.306964
0.450611
0.552535
0.601411
0.548959
0.535846
0.698566
0.835657
0.647902
0.588894
0.786781
0.801682
0.750422
1.037717
1.258850
2.310872
13.078451
36.633611
105.801821
193.282962
358.858705
503.054857
686.057806
784.297585
827.551484
777.305961
625.554919
488.883853
315.137506
197.434425
92.535615
47.726631
17.821789
12.790561
17.209649
24.596453
41.688681
57.108402
80.892444
98.158717
117.212534
122.609735
124.306679
113.912821
97.320676
79.876781
57.529807
43.585896
30.136704
22.689700
17.784834
15.989542
15.878677
15.892982
16.817451
17.736554
17.856956
18.492937
19.122958
19.710660
19.893646
20.129681
20.887852
21.313429
21.811724
21.689534
21.467805
21.578670
21.445751
21.502972
21.385550
21.283627
21.363497
20.529628
20.880699
20.792484
20.792484
##ZVALUE=310
0.371933
0.353456
0.263453
0.397563
0.347495
0.386834
0.276566
0.209808
0.311732
0.247955
0.300407
0.209808
0.336766
0.449419
0.343919
0.328422
0.554919
0.492930
0.446439
0.373721
0.574589
0.521541
0.480413
0.407696
0.605583
0.627637
0.609756
0.659823
0.573993
0.776649
0.755787
0.732541
0.888705
1.103878
1.116991
1.358986
1.393557
5.833507
19.158721
64.438581
129.340887
266.604424
402.555466
596.162677
731.816888
876.749754
928.646922
921.657681
855.255723
681.128502
509.440899
288.701653
156.492591
51.381588
17.410517
11.610985
14.932752
23.387671
33.426881
53.843856
70.507526
93.605518
107.170939
118.220448
118.728876
109.584928
98.006725
79.172850
62.541962
42.652488
33.358932
24.862885
21.106601
18.504858
17.990470
18.421412
18.938780
19.907951
19.641519
20.544529
20.862818
21.420717
21.255612
21.504760
22.504926
22.127628
22.698641
22.049546
22.676587
22.017956
22.680759
21.632910
21.847486
21.268725
21.699667
20.849705
##ZVALUE=315
0.162721
0.150800
0.281930
0.302792
0.337958
0.425577
0.408888
0.284910
0.331998
0.317693
0.333786
0.361800
0.347495
0.329614
0.373721
0.277758
0.355840
0.355840
0.371933
0.293851
0.391603
0.486970
0.607967
0.540614
0.545979
0.549555
0.480413
0.633597
0.389814
0.620484
0.734925
0.765920
0.651479
0.794530
0.840425
0.981688
0.922680
1.247525
1.302958
2.817512
9.832978
40.250421
91.743469
210.652947
332.695842
530.493855
670.209527
829.463601
911.196470
942.676663
896.445513
740.672946
576.433539
336.269736
191.686749
68.659782
24.969578
11.173487
11.023879
15.345812
21.311641
35.000443
48.393607
69.108605
85.192919
104.123950
113.899708
114.923716
109.595656
93.255639
78.072548
60.610771
46.966672
33.194423
26.411414
22.046566
20.176768
19.875765
20.220876
20.729899
20.500422
21.268725
22.047758
21.796823
22.167563
22.147894
22.677779
22.687912
22.611618
22.837520
22.617579
22.366643
21.740794
21.672845
21.383762
20.797849
##ZVALUE=320
0.132918
0.239611
0.263453
0.094771
0.185966
0.235438
0.204444
0.270605
0.258684
0.191927
0.279546
0.287890
0.303984
0.343919
0.389814
0.333786
0.403523
0.373721
0.269413
0.423789
0.267625
0.410676
0.428557
0.358820
0.501871
0.276566
0.494719
0.397563
0.477433
0.571609
0.515580
0.523925
0.426769
0.503659
0.700951
0.655651
0.655651
0.803471
0.944734
0.987649
0.977516
1.527667
4.147887
22.718906
58.223605
151.269436
251.173973
416.098833
559.054017
742.045641
843.954682
899.135470
874.568820
746.969581
595.349669
367.450714
224.816799
98.934770
43.742657
13.982654
10.034442
11.049509
13.988614
21.173954
30.049682
48.141479
62.232614
82.781911
97.314715
109.044909
110.055804
104.290843
93.250871
75.266957
60.878992
44.292808
34.904480
27.406812
24.084449
22.041798
21.557808
21.812916
21.765828
22.324920
21.673441
22.679567
22.364855
22.733808
22.568703
22.390485
22.454858
22.067428
21.629930
21.911860
22.058487
22.150874
##ZVALUE=325
0.364780
0.246763
0.203848
0.119805
0.300407
0.229478
0.272989
0.080466
0.187755
0.292659
0.330806
0.295639
0.463724
0.301600
0.254512
0.423789
0.217557
0.270605
0.292659
0.320673
0.375509
0.382662
0.361800
0.460744
0.424981
0.354648
0.432730
0.451803
0.463724
0.478625
0.453591
0.441670
0.513792
0.530481
0.616908
0.688434
0.618696
0.788569
0.726581
0.800490
0.812411
0.931621
1.009703
1.277924
2.420545
14.098883
38.108826
106.117725
193.279982
364.985466
507.891774
679.412484
771.201849
801.172853
744.738579
595.551729
458.986759
288.041830
178.963542
81.615448
41.107535
15.402436
9.804964
9.481907
10.802746
14.896989
20.646453
31.202435
44.112802
64.767599
79.547763
94.558597
101.893544
105.160475
99.659562
85.871816
73.686838
57.826638
45.894980
33.362508
28.213859
24.071932
22.524595
22.015572
22.281408
21.957755
22.237897
22.306442
22.473931
22.393465
21.898746
22.301674
22.216439
21.762848
21.311641
21.495819
##ZVALUE=330
0.098944
0.230670
0.129938
0.350475
0.214577
0.104904
0.261664
0.217557
0.150800
0.314713
0.345707
0.423789
0.389814
0.343919
-0.004768
0.342727
0.350475
0.114441
0.321865
0.224710
0.341535
0.234842
0.338554
0.428557
0.263453
0.361800
0.389814
0.299811
0.431538
0.323653
0.362992
0.333786
0.379682
0.338554
0.485778
0.378489
0.604987
0.657439
0.637770
0.626445
0.776649
0.806451
0.765920
0.806451
0.709891
1.092553
1.356602
5.901456
19.799471
69.453716
137.906671
297.484994
446.264744
642.948747
765.923858
832.544565
797.734857
669.190884
537.836552
350.971818
229.441524
110.268593
57.297945
23.074746
12.548566
9.804964
10.125637
11.962652
14.779568
21.671653
30.485988
44.582486
58.765411
78.326464
89.311600
98.851919
100.540519
93.913674
85.275769
69.557428
56.898594
43.563843
35.811663
29.168725
25.722980
23.370981
22.214651
21.892786
21.940470
22.089481
21.311641
21.773577
21.337867
21.414757
21.417737
21.167994
##ZVALUE=335
0.172853
0.106692
0.144839
0.102520
0.077486
0.209808
0.164509
0.104904
0.261664
0.172853
0.160933
0.201464
0.259876
0.378489
0.269413
0.286698
0.434518
0.312924
0.356436
0.276566
0.183582
0.398755
0.181794
0.242591
0.210404
0.367761
0.285506
0.403523
0.391603
0.285506
0.263453
0.440478
0.613928
0.531673
0.471473
0.481606
0.362992
0.488758
0.565648
0.436902
0.447631
0.352859
0.382662
0.669956
0.649691
0.802875
0.966787
0.966787
1.194477
3.095865
10.063648
42.416453
92.115402
221.266747
368.469954
585.683584
724.041462
823.843479
822.025537
716.935992
590.863824
407.337546
277.613997
147.019625
80.039501
30.392408
15.591979
10.180473
10.180473
10.714531
12.532473
16.032457
20.907521
31.412840
42.573810
59.242845
72.116852
85.768700
93.085766
94.958544
90.245605
78.999996
67.451596
55.722594
45.308471
35.620928
30.100942
25.528669
23.357868
22.175908
21.689534
21.272898
20.608902
20.914674
20.838976
20.756721
##ZVALUE=340
0.146627
0.230670
0.290871
0.327826
0.183582
0.383854
0.188947
0.177622
0.307560
0.337958
0.258684
0.222921
0.155568
0.280738
0.186563
0.220537
0.252724
0.252724
0.231862
0.114441
0.290871
0.073910
0.352859
0.324845
0.456572
0.413656
0.403523
0.433922
0.420809
0.381470
0.400543
0.465512
0.489950
0.478625
0.216961
0.383854
0.484586
0.294447
0.511408
0.575781
0.440478
0.612736
0.451803
0.585914
0.771880
0.760555
0.743866
0.979900
0.923872
1.016855
1.242757
1.315475
4.765987
24.809837
62.220693
164.717436
288.986564
488.879681
624.786615
758.793950
794.043541
730.426908
629.608631
465.129614
331.035852
174.376965
99.960566
43.689609
20.635724
10.771751
10.179877
11.122823
11.826754
13.494492
16.181469
22.126436
29.380918
43.559670
55.699944
71.719885
81.917644
89.615583
90.195537
85.866451
78.815818
66.409707
55.410862
42.701960
35.376549
28.683543
24.693608
22.027493
20.899773
20.328760
19.949675
19.983649
##ZVALUE=345
0.255704
0.225902
0.224710
0.289679
0.186563
0.282526
0.295639
0.321865
0.392795
0.421405
0.196695
0.200868
0.188947
0.307560
0.313520
0.387430
0.214577
0.311732
0.243783
0.306964
0.347495
0.313520
0.316501
0.426769
0.338554
0.227690
0.277758
0.201464
0.378489
0.212789
0.384450
0.476837
0.360608
0.430942
0.307560
0.373721
0.467896
0.491738
0.412464
0.457764
0.453591
0.618696
0.591874
0.703931
0.593662
0.586510
0.619888
0.672936
0.734925
0.589490
0.716448
0.641942
0.937581
1.118779
2.292991
13.619661
37.923455
102.373958
182.217956
334.059000
459.025502
602.971911
676.908493
692.854524
643.800497
501.921773
379.937887
230.145454
135.759711
57.202578
29.074550
13.513565
10.655522
10.418892
11.151433
11.875629
13.014674
16.240478
20.617843
29.660463
39.389729
54.341555
64.012408
75.256824
80.884695
84.499717
82.245469
73.241591
65.295696
53.464770
43.291450
33.242702
27.847886
22.895932
21.006465
19.343495
##ZVALUE=350
0.230670
0.074506
0.003576
0.057817
0.122786
0.076890
0.167489
0.205636
0.089407
0.222921
0.074506
0.249743
0.290871
0.247955
0.086427
0.142455
0.263453
0.183582
0.158548
0.225902
0.289679
0.306964
0.168681
0.295639
0.013709
0.119805
0.194907
0.223517
0.273585
0.453591
0.284910
0.235438
0.303984
0.324845
0.304580
0.310540
0.363588
0.332594
0.314713
0.464916
0.356436
0.394583
0.415444
0.261664
0.403523
0.503659
0.552535
0.419617
0.704527
0.599623
0.646710
0.666976
0.697970
0.740886
0.726581
0.828505
1.453757
6.303787
20.750761
69.149733
132.676959
262.758732
383.246541
536.825657
631.132722
693.728924
678.175688
592.487454
487.628579
332.423449
230.993629
129.011869
67.856908
20.665526
10.972619
10.195971
10.170937
10.779500
11.312962
13.034940
15.524626
21.099448
26.676655
36.108494
44.638515
57.908893
66.681504
74.090958
76.488853
74.954629
69.628954
58.610439
50.780773
39.591789
32.335520
26.090741
##ZVALUE=355
0.080466
0.319481
0.183582
0.360608
0.222921
0.055432
0.151992
0.036955
-0.045896
0.177622
0.243783
0.261664
0.321865
0.200868
0.211596
0.041723
0.265837
0.269413
0.247955
0.339746
0.293851
0.283718
0.204444
0.160933
0.152588
0.229478
0.080466
0.228882
0.209808
0.272989
0.336766
0.228882
0.164509
0.113845
0.269413
0.255704
0.325441
0.366569
0.505447
0.279546
0.421405
0.457764
0.472665
0.453591
0.327826
0.133514
0.350475
0.505447
0.379682
0.427961
0.530481
0.554919
0.418425
0.624657
0.603795
0.640750
0.809431
0.740886
1.007915
3.025532
11.484623
45.262575
93.256831
195.441842
304.996967
468.796492
570.122004
648.692846
663.002729
593.736768
505.288839
363.250971
248.858929
130.767822
71.354508
27.047992
12.613535
9.595752
9.794831
10.165572
10.847449
11.019707
11.996627
14.351606
17.592907
24.051666
30.519962
41.215420
49.815774
60.810447
66.499710
69.126487
68.850517
63.231587
55.643916
45.586824
##ZVALUE=360
0.104904
0.101924
0.181794
0.194907
0.156760
0.195503
0.100732
0.019670
0.172853
0.313520
0.128746
0.143647
0.098944
0.203848
0.148416
0.059605
-0.019670
0.381470
0.254512
0.290871
0.389814
0.356436
0.312924
0.294447
0.226498
0.200868
0.191927
0.316501
0.263453
0.124574
0.227690
0.331998
0.253916
0.334978
0.239611
0.263453
0.318885
0.228882
0.340939
0.268817
0.335574
0.330806
0.318885
0.378489
0.341535
0.302792
0.368953
0.352859
0.481606
0.421405
0.497699
0.580549
0.575781
0.490546
0.550747
0.601411
0.695586
0.682473
0.677705
0.662804
0.994802
1.308918
6.483793
20.147562
66.386461
127.788782
254.877806
373.145938
528.508425
614.237785
655.390024
627.896786
529.105663
425.540805
276.757479
178.434849
84.284544
41.021705
14.502406
9.333491
9.307861
9.395480
9.425879
9.867549
10.129809
11.155605
12.849569
15.231967
20.167828
25.625825
35.773516
43.381453
52.881837
58.719516
63.236952
63.285828
##ZVALUE=365
0.194907
0.318885
0.157952
0.214577
0.074506
0.238419
0.230670
0.019670
0.107884
0.238419
0.029802
0.008941
0.114441
0.124574
0.068545
0.172853
0.164509
0.213981
0.065565
0.321865
0.126958
0.188947
0.302792
0.189543
0.176430
0.168681
0.115633
0.138879
0.408888
0.407696
0.267625
0.387430
0.374913
0.419617
0.311732
0.216961
0.266433
0.266433
0.282526
0.370741
0.367761
0.306964
0.291467
0.222921
0.454783
0.447631
0.370741
0.463724
0.369549
0.587702
0.432730
0.413656
0.455976
0.390410
0.599623
0.582933
0.572801
0.335574
0.628829
0.674725
0.701547
0.913739
0.867844
1.117587
2.207756
12.355447
37.827492
107.041597
189.618468
330.332518
445.325971
568.728447
619.803667
613.860488
544.766784
406.242609
292.713642
166.518688
93.513727
37.262440
18.183589
9.063482
8.207560
8.306503
8.740425
8.852482
8.975863
9.247661
10.047555
11.279583
13.123751
17.474890
21.781921
29.193759
36.462545
45.085549
##ZVALUE=370
0.188947
0.180602
0.256896
0.154972
0.340939
0.260472
0.115633
0.132918
0.138879
0.020862
0.180602
0.202656
0.187755
0.183582
0.190735
0.277758
0.115633
0.189543
0.123978
0.262856
0.176430
0.207424
0.206828
0.189543
0.282526
0.343919
0.363588
0.270605
0.226498
0.318885
0.362992
0.246763
0.318885
0.181794
0.255704
0.257492
0.299811
0.226498
0.227690
0.120997
0.331998
0.347495
0.323653
0.320673
0.055432
0.342727
0.217557
0.364780
0.407696
0.182986
0.291467
0.253916
0.471473
0.397563
0.321865
0.385642
0.620484
0.525713
0.591874
0.457764
0.712872
0.648499
0.650883
0.667572
0.732541
0.938773
1.464486
5.120635
27.818680
67.316890
157.317519
249.999762
388.258696
495.388508
593.308806
615.105629
564.036965
473.666787
323.051810
213.150978
102.370977
54.184794
22.777915
11.732578
7.461905
7.473826
7.758737
8.057952
7.869601
8.420944
8.736849
9.089708
10.176897
11.842847
15.332699
19.033551
##ZVALUE=375
0.110865
0.099540
0.334978
0.235438
0.195503
0.152588
0.189543
0.058413
0.081658
0.200868
0.216961
0.173450
0.180602
0.061989
0.225902
0.051856
0.157952
0.126958
0.135899
0.210404
0.178814
0.108480
0.242591
0.153780
0.248551
0.191927
0.190735
0.067949
0.219941
0.107884
0.093579
0.171661
0.238419
0.129938
0.311732
0.123978
0.268817
0.397563
0.363588
0.388622
0.269413
0.267625
0.414848
0.259876
0.417829
0.239611
0.363588
0.212789
0.157952
0.251532
0.205636
0.374913
0.282526
0.303984
0.324845
0.258684
0.296831
0.393987
0.372529
0.471473
0.460744
0.566840
0.691414
0.459552
0.621676
0.579953
0.708699
0.685453
1.000762
3.064871
11.331439
42.954683
91.427565
202.326775
312.545896
462.224483
550.232530
604.492426
594.019890
498.884916
395.056009
246.648788
156.535506
75.146556
39.559603
15.313625
8.569956
6.855726
6.818771
7.120967
7.267594
7.429719
7.763505
7.698536
8.279681
8.888841
##ZVALUE=380
0.138879
0.252724
0.238419
0.186563
0.091791
0.202656
0.087619
0.225902
0.017881
0.059605
0.106692
0.131726
0.147820
0.110865
0.271797
0.172853
0.100732
0.105500
0.338554
0.127554
0.147820
0.249743
0.137687
0.128746
0.132918
0.155568
0.102520
0.105500
0.027418
0.083447
0.163913
0.191927
0.263453
0.193715
0.114441
0.261664
0.291467
0.167489
0.128746
0.208616
0.277758
0.243783
0.211596
0.240803
0.296831
0.325441
0.165701
0.245571
0.254512
0.065565
0.260472
0.214577
0.285506
0.394583
0.201464
0.273585
0.391603
0.317693
0.396967
0.408888
0.405908
0.646710
0.284910
0.479817
0.430942
0.537634
0.458956
0.487566
0.817776
0.836849
0.858903
1.600981
6.075501
30.330420
70.162416
163.883567
260.221958
398.885012
499.731898
586.929917
592.219830
520.643592
436.108708
309.154987
210.729837
106.113553
56.585670
22.001863
10.977983
6.780624
6.256700
6.309748
6.476641
6.681681
6.910563
7.142425
##ZVALUE=385
0.092983
0.098944
0.302792
0.139475
0.109673
0.049472
0.252724
0.170469
0.066757
0.147820
0.087619
0.086427
0.061989
0.244975
0.142455
0.076890
0.172853
0.221729
0.269413
0.141859
0.138879
0.268817
0.269413
0.203848
0.308752
0.212789
0.255704
0.108480
0.345707
0.178814
0.216961
0.193715
0.116825
0.091791
0.243783
0.261664
0.198483
0.319481
0.285506
0.268817
0.297427
0.136495
0.117421
0.250936
0.160933
0.204444
0.117421
0.098944
0.219941
0.247955
0.057817
0.252724
0.111461
0.313520
0.086427
0.214577
0.258684
0.465512
0.312924
0.332594
0.312924
0.289679
0.338554
0.416636
0.497699
0.432730
0.456572
0.503659
0.575781
0.540614
0.643730
0.766516
0.897646
1.129508
3.104806
17.610788
46.506524
116.717815
205.172896
358.145833
471.311808
575.642586
602.924824
572.085977
501.844883
374.683738
268.371701
148.742795
86.448789
37.159920
17.055869
7.233620
5.646944
5.854964
5.860925
5.975962
##ZVALUE=390
0.033975
0.192523
0.073910
0.145435
0.105500
0.129938
-0.013709
0.130534
0.216961
0.067949
0.147820
0.010729
0.081658
0.178814
0.089407
0.211596
0.104904
0.120997
0.087619
0.239611
0.106692
0.251532
0.162721
0.163913
0.125766
0.146627
0.023842
0.145435
0.139475
0.147820
0.128746
0.061989
0.149608
0.193715
0.309944
0.140667
0.048876
0.185966
0.217557
0.065565
0.138879
0.050664
0.043511
0.216961
0.176430
0.115633
0.146627
0.146627
0.240803
0.189543
0.235438
0.032783
0.251532
0.241995
0.275970
0.237823
0.327826
0.352859
0.300407
0.428557
0.276566
0.373721
0.333786
0.222921
0.373721
0.413656
0.368953
0.647902
0.509620
0.597835
0.634789
0.690818
0.723600
0.909567
0.857711
0.877976
1.515746
9.432435
29.821992
89.878440
169.093609
309.628844
421.694517
547.192693
605.291724
616.188645
564.069748
443.691611
337.769985
207.188725
122.026801
51.242709
25.525689
10.056496
5.936623
5.455613
##ZVALUE=395
0.103712
0.039935
0.127554
0.048876
0.117421
0.137687
0.097752
0.176430
0.133514
0.084639
0.126958
0.063777
0.068545
0.102520
-0.009537
0.062585
0.117421
0.081658
0.136495
0.152588
0.180602
0.213981
0.122786
0.085831
0.204444
0.187755
0.189543
0.086427
0.193715
0.196695
0.071526
0.403523
0.292659
0.219941
0.050664
0.176430
0.290871
0.130534
0.084639
0.180602
0.120997
0.232458
0.349879
0.180602
0.373721
0.273585
0.323653
0.148416
0.197887
0.122786
0.248551
0.172853
0.336766
0.250936
0.242591
0.147820
0.430942
0.448823
0.221729
0.194907
0.227690
0.372529
0.411868
0.299811
0.271797
0.528693
0.359416
0.392795
0.405908
0.479817
0.467896
0.510812
0.689626
0.568628
0.723600
0.632405
0.750422
0.794530
1.093745
5.204678
20.564795
72.440505
136.661530
250.947475
365.004539
512.380004
593.453646
636.423826
609.259605
511.998534
400.473475
250.445604
156.929493
70.073605
34.400821
12.923479
##ZVALUE=400
0.092983
0.059605
0.074506
0.149608
0.300407
0.147820
0.150800
0.073910
0.150800
0.097752
0.056624
0.154972
0.165701
0.056624
0.145435
0.122786
0.187755
0.157952
0.071526
0.055432
0.111461
0.093579
0.168681
0.148416
0.271797
0.071526
0.105500
0.195503
0.144839
0.164509
0.160933
0.192523
0.143647
0.148416
0.154972
0.167489
0.282526
0.097752
0.049472
0.221729
0.286698
0.248551
0.314713
0.224710
0.191927
0.149608
0.141859
0.134706
0.175834
0.161529
0.095963
0.191927
0.203848
0.113845
0.332594
0.282526
0.212789
0.214577
0.326633
0.304580
0.359416
0.183582
0.346899
0.444651
0.409484
0.275970
0.321865
0.295639
0.466704
0.510812
0.614524
0.706911
0.650883
0.562668
0.563860
0.498891
0.645518
0.508428
0.538826
0.485778
0.908971
2.748966
10.645986
39.593577
86.111426
188.807845
296.115875
447.344780
542.854667
616.818666
618.832707
539.625883
444.486737
295.870900
194.400549
98.363757
##END
