160.701	-29
166.742	2.67
172.777	96.67
178.805	382
184.826	1081.33
190.841	2288
196.849	3678.67
202.85	4615.33
208.845	4845
214.833	4693
220.815	4468.67
226.789	4308.67
232.758	4179.67
238.719	4014.33
244.674	3838
250.623	3661.67
256.565	3450
262.5	3274.67
268.429	3099
274.351	2950
280.267	2820
286.176	2707
292.079	2595
297.975	2504
303.865	2422.33
309.748	2348.33
315.625	2284.67
321.495	2232
327.359	2205
333.217	2182.67
339.068	2164.67
344.912	2158.33
350.751	2127.33
356.583	2132.67
362.408	2136
368.227	2136.33
374.04	2139.67
379.847	2181.33
385.647	2190.33
391.44	2180
397.228	2176.33
403.009	2181.33
408.784	2222.33
414.553	2283.33
420.315	2346
426.071	2360.67
431.821	2283.33
437.565	2205
443.302	2175.67
449.033	2160.33
454.758	2135
460.477	2122
466.189	2094.67
471.896	2084.33
477.596	2062
483.29	2059.33
488.978	2028.33
494.66	2016.67
500.335	1966.67
506.005	1932
511.668	1885.67
517.325	1854.67
522.977	1814.67
528.622	1779
534.261	1752
539.894	1732
545.521	1723
551.141	1693.67
556.756	1686.67
562.365	1668
567.968	1642.67
573.565	1629
579.155	1618.67
584.74	1599.67
590.319	1572.67
595.892	1560
601.459	1541.67
607.02	1534.67
612.575	1507.33
618.124	1489.33
623.667	1472.67
629.204	1455.33
634.735	1446.67
640.261	1448.67
645.781	1454.67
651.294	1448.33
656.802	1424.67
662.304	1392
667.8	1361
673.29	1351.33
678.775	1338
684.254	1323
689.726	1298.33
695.193	1291
700.655	1274.33
706.11	1268.67
711.56	1249
717.004	1238
722.442	1226.33
727.874	1211.67
733.301	1201.67
738.722	1194.33
744.137	1193.33
749.547	1185.67
754.951	1178.67
760.349	1168.33
765.741	1161
771.128	1141
776.509	1139.67
781.885	1131.67
787.254	1114.33
792.618	1110
797.977	1086.33
803.33	1085.67
808.677	1061
814.019	1041.33
819.355	1020.33
824.686	999.67
830.011	994.33
835.33	979
840.644	951.33
845.952	954
851.255	944.67
856.552	939.33
861.844	918.67
867.13	899
872.41	891.67
877.686	883
882.955	863
888.219	849.33
893.478	829.67
898.731	799.33
903.979	775.67
909.221	760
914.458	739.67
919.69	736
924.916	733
930.136	722.33
935.351	719.33
940.561	709.33
945.766	702.67
950.965	686.33
956.158	675
961.347	666
966.529	656
971.707	634
976.879	623.33
982.046	617
987.208	608.33
992.364	611.33
997.515	604
1002.66	608.67
1007.801	604.33
1012.936	615
1018.066	615
1023.19	612.67
1028.309	612.67
1033.423	609.33
1038.532	608
1043.636	604.67
1048.734	593.33
1053.827	579.33
1058.915	576.67
1063.998	574.67
1069.075	568
1074.147	565
1079.214	568.67
1084.276	570.33
1089.333	569
1094.385	574.33
1099.431	573.33
1104.472	565.33
1109.509	560
1114.54	555
1119.565	536.67
1124.586	534.33
1129.602	524.67
1134.613	519.33
1139.618	514.33
1144.619	512.33
1149.614	519.67
1154.604	520.67
1159.589	516.33
1164.57	525.33
1169.545	518.67
1174.515	522.33
1179.48	513.67
1184.44	509.67
1189.395	507
1194.345	501.67
1199.29	495.67
1204.23	500.33
1209.165	496.33
1214.095	507.67
1219.021	510
1223.941	512.33
1228.856	511.67
1233.766	516
1238.672	512.33
1243.572	509
1248.467	499.67
1253.358	493.67
1258.244	482.67
1263.124	473.33
1268	467
1272.871	465.33
1277.737	455.33
1282.599	452.67
1287.455	453.67
1292.306	451.67
1297.153	453.33
1301.995	456
1306.832	456.67
1311.664	452.33
1316.491	447
1321.314	444.33
1326.132	439.33
1330.945	428.33
1335.753	421
1340.556	411.67
1345.354	402
1350.148	397
1354.937	396
1359.722	391
1364.501	394.67
1369.276	392
1374.046	390.67
1378.811	385.67
1383.572	390.67
1388.327	390
1393.079	378.67
1397.825	377.67
1402.567	366
1407.304	365.67
1412.036	356
1416.764	359
1421.487	356.33
1426.205	358.67
1430.919	365
1435.628	362.33
1440.333	368.33
1445.032	363
1449.727	372
1454.418	377.33
1459.104	376.33
1463.785	370
1468.462	366.67
1473.134	362.67
1477.802	355.67
1482.465	349.67
1487.123	359.33
1491.777	358.33
1496.426	367
1501.071	379
1505.711	380.67
1510.347	389.33
1514.978	395
1519.604	401
1524.226	405.33
1528.844	413
1533.457	412.33
1538.065	416.33
1542.669	417.67
1547.269	427
1551.864	429
1556.454	436.67
1561.041	453
1565.622	458.33
1570.199	471
1574.772	492.67
1579.34	511.67
1583.904	531.33
1588.464	551
1593.019	571.67
1597.569	587.33
1602.115	608.67
1606.657	621.33
1611.195	641
1615.728	665
1620.256	685.67
1624.78	712.33
1629.3	728.67
1633.816	748.33
1638.327	772
1642.834	775.33
1647.336	778.67
1651.834	778.33
1656.328	769.67
1660.817	757
1665.302	739.33
1669.783	706.33
1674.259	677.67
1678.732	636.33
1683.199	596.33
1687.663	552.33
1692.122	521.33
1696.577	481
1701.028	456.67
1705.474	423.67
1709.917	402.33
1714.355	372.67
1718.788	350.33
1723.218	324.33
1727.643	299.33
1732.064	281
1736.481	256.67
1740.893	240
1745.301	217.67
1749.705	205.33
1754.105	190.33
1758.501	171.33
1762.893	161.33
1767.28	149.33
1771.663	148
1776.042	137
1780.417	130.33
1784.787	127.33
1789.154	128.33
1793.516	127
1797.874	121.33
1802.228	118.33
1806.578	116.67
1810.924	110
1815.266	96.67
1819.603	101
1823.937	96.33
1828.266	90.33
1832.591	86.67
1836.913	86.67
1841.23	80.33
1845.543	80.67
1849.852	81.33
1854.156	82.67
1858.457	83
1862.754	83.67
1867.047	82
1871.335	81
1875.62	80
1879.9	82.33
1884.177	79
1888.449	79
1892.718	83
1896.982	82.67
1901.243	76
1905.499	77
1909.752	78.33
1914	79.67
1918.245	80.33
1922.485	83.33
1926.722	85
1930.954	86.67
1935.183	90.67
1939.408	89.33
1943.628	93.67
1947.845	91.67
1952.058	96.33
1956.267	93
1960.472	89.67
1964.673	90.33
1968.87	91.33
1973.063	87
1977.252	91.67
1981.438	88.67
1985.619	87.67
1989.797	84.33
1993.971	88.33
1998.14	88.67
2002.306	91.33
2006.469	94.33
2010.627	90.33
2014.781	101
2018.932	96.33
2023.078	103.33
2027.221	102
2031.36	102
2035.495	99
2039.627	99.67
2043.754	96.67
2047.878	100
2051.998	102
2056.114	96
2060.226	105
2064.334	107.33
2068.439	109.67
2072.54	111
2076.637	116.33
2080.73	118
2084.82	119
2088.906	121.33
2092.988	120.33
2097.066	119.67
2101.14	120.33
2105.211	121.33
2109.278	115.33
2113.342	111.67
2117.401	114
2121.457	108.67
2125.509	109
2129.558	104.33
2133.602	105
2137.643	100.33
2141.681	98.33
2145.714	92.67
2149.744	91.33
2153.77	89.33
2157.793	89.33
2161.812	82.33
2165.827	81
2169.838	78.33
2173.846	73.33
2177.851	71
2181.851	64.67
2185.848	66
2189.841	61.67
2193.831	53.33
2197.817	54.67
2201.799	50.67
2205.778	48.67
2209.753	44.67
2213.725	44
2217.693	43
2221.657	43.67
2225.618	39
2229.575	34
2233.529	35.33
2237.479	30.67
2241.425	28.33
2245.368	23
2249.307	20
2253.243	17.33
2257.175	13
2261.104	11.33
2265.029	7
2268.95	7.33
2272.868	1.33
2276.783	1.33
2280.694	-3
2284.601	-4
2288.505	-9.33
2292.405	-10
2296.302	-9.33
2300.195	-13
2304.085	-15.67
2307.971	-15.67
2311.854	-19.67
2315.734	-22
2319.609	-23.33
2323.482	-24
2327.351	-28
2331.216	-24.33
2335.078	-28.33
2338.937	-28.33
2342.792	-31
2346.643	-33.33
2350.492	-37.33
2354.336	-37.33
2358.178	-37
2362.015	-31
2365.85	-37.67
2369.681	-35.33
2373.508	-37.67
2377.333	-38.33
2381.153	-36.33
2384.971	-40.33
2388.785	-42.67
2392.595	-41
2396.402	-43
2400.206	-40.67
2404.007	-46.33
2407.804	-46
2411.597	-42.67
2415.388	-45
2419.174	-45
2422.958	-46
2426.738	-48
2430.515	-49.67
2434.289	-48
2438.059	-49.33
2441.825	-48.67
2445.589	-50.67
2449.349	-51.33
2453.106	-52.33
2456.859	-50
2460.61	-52.33
2464.356	-52.67
2468.1	-51
2471.84	-56
2475.577	-54.33
2479.311	-55
2483.041	-53.67
2486.768	-57.33
2490.492	-55.33
2494.213	-57
2497.93	-56.33
2501.644	-57
2505.355	-57.67
2509.062	-59
2512.766	-55.67
2516.467	-61.67
2520.165	-55.33
2523.859	-59
2527.551	-57.33
2531.239	-59
2534.923	-61
2538.605	-60
2542.283	-58.33
2545.958	-60.33
2549.63	-60.33
2553.299	-62.33
2556.964	-61.33
2560.626	-60.67
2564.285	-60.33
2567.941	-61.67
2571.594	-62.67
2575.243	-61
2578.89	-64.67
2582.533	-64.67
2586.173	-65
2589.809	-65.67
2593.443	-66
2597.073	-65
2600.701	-66
2604.325	-69
2607.946	-64.67
2611.564	-66.67
2615.178	-65.33
2618.79	-67.67
2622.398	-67.33
2626.004	-66
2629.606	-67
2633.205	-69
2636.801	-67.33
2640.394	-65.67
2643.983	-65.67
2647.57	-67.33
2651.153	-67
2654.734	-66.33
2658.311	-65.67
2661.885	-68
2665.456	-64.67
2669.025	-64.67
2672.589	-66
2676.151	-66.67
2679.71	-67.33
2683.266	-66.33
2686.819	-65.33
2690.368	-66
2693.915	-67.33
2697.458	-66
2700.999	-68
2704.536	-64
2708.071	-65.67
2711.602	-65.67
2715.13	-65
2718.656	-64
2722.178	-61
2725.697	-65.67
2729.214	-61.33
2732.727	-60.67
2736.237	-59.33
2739.744	-59.67
2743.249	-56.67
2746.75	-57
2750.248	-55
2753.743	-55.67
2757.236	-54
2760.725	-51.67
2764.211	-53
2767.695	-51.33
2771.175	-48.33
2774.652	-48.33
2778.127	-43.67
2781.598	-44.33
2785.067	-45
2788.532	-46
2791.995	-43
2795.455	-44.67
2798.911	-38.67
2802.365	-40
2805.816	-38.67
2809.264	-37
2812.709	-34
2816.151	-34
2819.59	-35.33
2823.026	-28
2826.46	-28.33
2829.89	-26
2833.318	-27.33
2836.742	-21.33
2840.164	-19
2843.583	-15
2846.999	-12
2850.412	-9.33
2853.822	-7.33
2857.229	-7.33
2860.634	-1
2864.035	1
2867.434	8.67
2870.83	9.67
2874.223	16.33
2877.613	17.67
2881	22.67
2884.385	21.67
2887.766	28.67
2891.145	27.33
2894.521	33
2897.894	32.67
2901.264	38.67
2904.631	39.33
2907.996	45.33
2911.358	46.33
2914.717	52.33
2918.073	53.67
2921.426	58.67
2924.777	65.67
2928.124	68.67
2931.469	76.67
2934.811	83.67
2938.15	89.33
2941.487	95.67
2944.821	94
2948.152	103.33
2951.48	106.33
2954.805	107.33
2958.128	114.67
2961.447	123.33
2964.765	131.67
2968.079	136.33
2971.39	144.33
2974.699	153
2978.005	161
2981.308	170.33
2984.609	179
2987.907	195.67
2991.202	198.67
2994.494	215.33
2997.784	224
3001.07	234
3004.355	240
3007.636	249.67
3010.915	261.33
3014.191	274.33
3017.464	277
3020.734	287.33
3024.002	299
3027.267	299.67
3030.53	319.33
3033.789	326
3037.046	329
3040.301	345.67
3043.552	357
3046.801	376.67
3050.048	388.67
3053.291	410
3056.532	420.67
3059.771	441.67
3063.006	457
3066.239	475.67
3069.469	495
3072.697	512.67
3075.922	536.33
3079.144	556.67
3082.364	573
3085.581	588.67
3088.795	603
3092.007	629.33
3095.216	643
3098.423	663
3101.627	681.67
3104.828	708
3108.026	715.67
3111.222	745
3114.416	764.67
3117.607	786.33
3120.795	808.33
3123.98	833.33
3127.163	857
3130.344	870.67
3133.521	903.33
3136.696	921.67
3139.869	942
3143.039	963.67
3146.206	978.33
3149.371	991.67
3152.533	1009
3155.693	1015.33
3158.85	1025
3162.005	1036.67
3165.157	1052
3168.306	1049.33
3171.453	1054
3174.597	1051.67
3177.739	1066.67
3180.878	1080.67
3184.014	1070.33
3187.149	1083.67
3190.28	1082
3193.409	1089.67
3196.536	1100
3199.659	1101
3202.781	1108.33
3205.9	1102
3209.016	1113.33
3212.13	1110
3215.241	1110
3218.35	1107.33
3221.456	1089.67
3224.56	1088.67
3227.661	1078.67
3230.76	1069
3233.856	1059.67
3236.95	1054.67
3240.041	1051.67
3243.13	1045.67
3246.216	1036.33
3249.3	1033.33
3252.382	1033.33
3255.46	1034.67
3258.537	1018
3261.611	1019
3264.682	1018.67
3267.751	1016.67
3270.818	1019
3273.882	1016.33
3276.943	1014
3280.002	1007.67
3283.059	980
3286.113	974.67
3289.165	960.33
3292.214	947
3295.261	939.33
3298.306	916
3301.348	900
3304.387	895.67
3307.425	876.33
3310.459	859
3313.492	860
3316.521	839
3319.549	839
3322.574	824.67
3325.597	831.33
3328.617	821
3331.635	815.67
3334.65	811
3337.663	804
3340.674	801
3343.682	803.33
3346.688	799.67
3349.691	797
3352.692	792.67
3355.691	786.67
3358.687	777.67
3361.681	785
3364.673	770.67
3367.662	757.33
3370.649	752
3373.633	730
3376.615	730.33
3379.595	723.33
3382.572	719.33
3385.547	709
3388.52	699.33
3391.49	684.67
3394.458	676
3397.424	670.33
3400.387	657.33
3403.348	659.67
3406.307	649.33
3409.263	645
3412.217	637.67
3415.168	630.33
3418.118	626
3421.065	620.67
3424.009	613.33
3426.951	603
3429.891	594.33
3432.829	583.67
3435.764	575.33
3438.697	561.33
3441.628	546.67
3444.557	533
3447.483	520
3450.407	500.33
3453.328	496.33
3456.247	473
3459.164	464.67
3462.079	454.33
3464.991	441.33
3467.902	428
3470.809	414.33
3473.715	404.67
3476.618	388
3479.519	378.67
3482.418	373
3485.315	356.67
3488.209	348.33
3491.101	344
3493.99	327
3496.878	317.33
3499.763	311.67
3502.646	298
3505.527	288.33
3508.405	279.67
3511.281	264.67
3514.155	253.33
3517.027	240.67
3519.897	228
3522.764	219.67
3525.629	209.33
3528.492	198.33
3531.352	187
3534.211	170.67
3537.067	164.33
3539.921	154.67
3542.773	144
3545.622	134.33
3548.469	127.67
3551.315	121.67
3554.157	110
3556.998	103.67
3559.837	99.67
3562.673	92
3565.507	86.67
3568.339	80.67
3571.169	71
3573.996	68
3576.822	62
3579.645	59.67
3582.466	50
3585.285	47.33
3588.101	39.67
3590.916	34.33
3593.728	29.33
3596.538	23
3599.346	18
3602.152	15.67
3604.956	5.67
3607.757	5
3610.556	-1.33
3613.354	-5
3616.149	10.67
3618.942	22.67
3621.732	-11.67
3624.521	-18
3627.307	-24
3630.092	-26.33
3632.874	-32
3635.654	-28.33
3638.432	-35.67
3641.208	-38
3643.982	-38.67
3646.753	-42
3649.523	-43
3652.29	-47.67
3655.055	-50
3657.818	-53.33
3660.579	-56
3663.338	-55
3666.095	-59.67
3668.849	-62
3671.602	-67.33
3674.352	-66.33
3677.101	-69.67
3679.847	-72
3682.591	-71.67
3685.333	-74
3688.073	-74
3690.811	-79.33
3693.547	-78.67
3696.281	-81
3699.013	-84
3701.742	-84
3704.47	-85.33
3707.195	-85.67
3709.919	-85.67
3712.64	-87
3715.359	-87.67
3718.076	-88.67
3720.792	-90.67
3723.505	-93
3726.216	-93.67
3728.925	-92.33
3731.632	-94
3734.336	-94.67
3737.039	-96.67
3739.74	-96
3742.439	-94.67
3745.136	-95.33
3747.83	-96
3750.523	-96.33
3753.213	-95.67
3755.902	-96.67
3758.589	-98
3761.273	-98.67
3763.956	-100.67
3766.636	-100.67
3769.315	-101
3771.991	-101.33
3774.665	-103.67
3777.338	-103.67
3780.008	-103
3782.677	-104
3785.343	-103.33
3788.007	-104.67
3790.67	-106.67
3793.33	-104.67
3795.989	-106.67
3798.645	-105
3801.299	-105
3803.952	-104.33
3806.602	-106.33
3809.251	-105
3811.897	-103.67
3814.542	-106
3817.184	-106
3819.825	-106.33
3822.463	-106.67
3825.1	-108
3827.735	-108.33
3830.367	-107
3832.998	-108.33
3835.627	-108
3838.253	-109
3840.878	-108
3843.501	-109
3846.122	-109.67
3848.741	-109.33
3851.358	-109
3853.973	-112.67
3856.586	-108.33
3859.197	-108
3861.806	-108.67
3864.414	-109
3867.019	-110.67
3869.622	-108.33
3872.224	-106.33
3874.823	-105
3877.421	-102.33
3880.016	-97.67
3882.61	-92
3885.202	-89
3887.792	-90
3890.38	-98
3892.966	-103.67
3895.55	-108
3898.132	-107.67
3900.713	-108.33
3903.291	-109
3905.868	-110.67
3908.442	-110
3911.015	-110.33
3913.586	-110.67
3916.155	-111
3918.722	-110.33
3921.287	-110
3923.85	-110
3926.411	-109.33
3928.971	-110.67
3931.528	-111.33
3934.084	-110.67
3936.638	-111
3939.19	-110.33
3941.74	-110
3944.288	-111.67
3946.834	-111.33
3949.378	-110
3951.921	-111.33
3954.462	-111.33
3957	-108.67
3959.537	-110
3962.072	-110.33
3964.606	-110.67
3967.137	-110.67
3969.667	-111.33
3972.194	-110.33
3974.72	-111
3977.244	-109
3979.766	-109
3982.286	-108.67
3984.805	-109.67
3987.321	-109
3989.836	-111
3992.349	-111
3994.86	-106.67
3997.369	-107.33
3999.877	-109
4002.382	-109
4004.886	-109.67
4007.388	-109
4009.888	-110
4012.386	-110
4014.883	-108.33
4017.377	-112.67
4019.87	-112.33
4022.361	-108.33
4024.85	-109.33
4027.338	-112.33
4029.823	-113
4032.307	-111
4034.789	-110.67
4037.269	-111.33
4039.747	-110.67
4042.224	-111.33
4044.699	-111.33
4047.172	-113
4049.643	-112.33
4052.112	-111.33
4054.58	-109.33
4057.046	-111.67
4059.51	-111.67
4061.972	-111.67
4064.432	-109
4066.891	-110.67
4069.348	-109
4071.803	-109.33
4074.256	-111.67
4076.708	-111
4079.158	-109.33
4081.606	-108
4084.052	-108.67
4086.497	-109.33
4088.939	-108.67
4091.38	-108.67
4093.819	-109
4096.257	-111.33
4098.693	-112
4101.127	-113
4103.559	-113
4105.989	-68
4108.418	-62.67
4110.845	-61.67
4113.27	-60.33
4115.694	-50.33
4118.115	-43.67
4120.535	-109.67
4122.954	-108.33
4125.37	-108.67
4127.785	-108
4130.198	-111.33
4132.609	-108.67
4135.019	-113.33
4137.427	-113.67
4139.833	-111.67
4142.237	-113.67
