160.701	-29.88
166.742	2.12
172.777	94.12
178.805	373.79
184.826	1059.12
190.841	2219.46
196.849	3558.12
202.85	4428.79
208.845	4652.12
214.833	4490.12
220.815	4285.79
226.789	4140.12
232.758	3988.46
238.719	3854.46
244.674	3679.46
250.623	3507.12
256.565	3318.12
262.5	3152.12
268.429	2986.79
274.351	2840.46
280.267	2712.12
286.176	2597.79
292.079	2497.79
297.975	2407.79
303.865	2333.12
309.748	2254.79
315.625	2198.12
321.495	2140.79
327.359	2107.46
333.217	2090.12
339.068	2071.46
344.912	2064.79
350.751	2056.46
356.583	2052.79
362.408	2049.12
368.227	2045.46
374.04	2077.12
379.847	2082.12
385.647	2096.79
391.44	2103.46
397.228	2086.79
403.009	2096.79
408.784	2137.79
414.553	2185.79
420.315	2258.79
426.071	2270.79
431.821	2187.12
437.565	2113.79
443.302	2087.79
449.033	2067.12
454.758	2050.12
460.477	2039.79
466.189	2018.79
471.896	1997.12
477.596	1990.46
483.29	1959.12
488.978	1954.12
494.66	1940.46
500.335	1896.12
506.005	1866.12
511.668	1820.46
517.325	1782.46
522.977	1747.46
528.622	1717.12
534.261	1685.46
539.894	1661.46
545.521	1648.46
551.141	1630.79
556.756	1608.46
562.365	1600.12
567.968	1584.12
573.565	1565.46
579.155	1551.79
584.74	1532.46
590.319	1510.79
595.892	1501.12
601.459	1490.12
607.02	1471.12
612.575	1453.12
618.124	1429.79
623.667	1414.12
629.204	1399.46
634.735	1393.46
640.261	1400.46
645.781	1402.79
651.294	1405.12
656.802	1380.79
662.304	1334.46
667.8	1320.79
673.29	1308.46
678.775	1289.12
684.254	1278.46
689.726	1263.46
695.193	1256.12
700.655	1238.46
706.11	1224.46
711.56	1204.12
717.004	1191.79
722.442	1173.46
727.874	1161.79
733.301	1156.46
738.722	1157.79
744.137	1147.46
749.547	1141.79
754.951	1138.46
760.349	1118.12
765.741	1112.79
771.128	1100.12
776.509	1097.46
781.885	1090.12
787.254	1081.46
792.618	1068.79
797.977	1051.46
803.33	1045.12
808.677	1022.79
814.019	1005.46
819.355	989.12
824.686	971.12
830.011	960.46
835.33	956.46
840.644	945.12
845.952	920.12
851.255	910.79
856.552	904.46
861.844	892.12
867.13	882.79
872.41	871.12
877.686	860.79
882.955	852.79
888.219	828.12
893.478	803.79
898.731	768.46
903.979	757.12
909.221	738.79
914.458	720.79
919.69	713.79
924.916	701.12
930.136	702.12
935.351	693.46
940.561	686.12
945.766	678.79
950.965	668.46
956.158	656.79
961.347	645.46
966.529	632.46
971.707	610.79
976.879	602.79
982.046	598.12
987.208	592.12
992.364	588.79
997.515	595.46
1002.66	592.12
1007.801	595.46
1012.936	598.12
1018.066	600.12
1023.19	602.12
1028.309	595.46
1033.423	594.12
1038.532	587.46
1043.636	587.46
1048.734	580.12
1053.827	571.79
1058.915	560.46
1063.998	560.12
1069.075	551.79
1074.147	551.12
1079.214	555.79
1084.276	555.12
1089.333	561.79
1094.385	562.12
1099.431	560.12
1104.472	554.46
1109.509	545.12
1114.54	541.12
1119.565	527.79
1124.586	519.12
1129.602	514.46
1134.613	507.79
1139.618	500.79
1144.619	499.46
1149.614	502.46
1154.604	506.79
1159.589	505.79
1164.57	508.46
1169.545	506.79
1174.515	512.46
1179.48	498.46
1184.44	499.12
1189.395	488.12
1194.345	490.12
1199.29	483.46
1204.23	485.12
1209.165	489.12
1214.095	493.46
1219.021	500.46
1223.941	504.46
1228.856	502.12
1233.766	500.12
1238.672	499.12
1243.572	492.79
1248.467	492.12
1253.358	483.46
1258.244	475.79
1263.124	462.79
1268	455.79
1272.871	447.46
1277.737	449.12
1282.599	440.79
1287.455	441.79
1292.306	444.12
1297.153	444.79
1301.995	446.46
1306.832	451.12
1311.664	449.79
1316.491	443.12
1321.314	435.79
1326.132	432.12
1330.945	421.12
1335.753	414.46
1340.556	403.79
1345.354	397.79
1350.148	392.12
1354.937	390.12
1359.722	391.79
1364.501	384.12
1369.276	383.79
1374.046	384.46
1378.811	389.12
1383.572	382.12
1388.327	387.79
1393.079	377.12
1397.825	373.46
1402.567	365.12
1407.304	355.12
1412.036	353.46
1416.764	346.79
1421.487	350.46
1426.205	354.46
1430.919	355.79
1435.628	358.46
1440.333	359.46
1445.032	355.12
1449.727	367.46
1454.418	373.12
1459.104	369.79
1463.785	367.12
1468.462	360.46
1473.134	353.46
1477.802	350.79
1482.465	354.46
1487.123	351.46
1491.777	350.79
1496.426	363.12
1501.071	369.12
1505.711	371.79
1510.347	385.79
1514.978	398.12
1519.604	396.46
1524.226	399.12
1528.844	405.79
1533.457	408.79
1538.065	405.46
1542.669	413.12
1547.269	413.79
1551.864	419.12
1556.454	429.79
1561.041	442.79
1565.622	448.46
1570.199	459.46
1574.772	474.79
1579.34	494.12
1583.904	514.12
1588.464	529.79
1593.019	552.12
1597.569	571.79
1602.115	591.12
1606.657	608.46
1611.195	629.79
1615.728	643.46
1620.256	669.79
1624.78	684.46
1629.3	701.12
1633.816	726.46
1638.327	744.46
1642.834	751.46
1647.336	754.46
1651.834	760.79
1656.328	745.12
1660.817	736.12
1665.302	714.46
1669.783	688.79
1674.259	652.12
1678.732	623.12
1683.199	580.12
1687.663	545.46
1692.122	504.12
1696.577	479.46
1701.028	444.12
1705.474	415.12
1709.917	394.79
1714.355	367.46
1718.788	345.46
1723.218	320.79
1727.643	299.46
1732.064	281.46
1736.481	255.46
1740.893	236.12
1745.301	222.79
1749.705	202.79
1754.105	193.12
1758.501	173.46
1762.893	163.46
1767.28	156.12
1771.663	150.79
1776.042	138.12
1780.417	141.12
1784.787	132.79
1789.154	137.12
1793.516	131.12
1797.874	129.12
1802.228	127.46
1806.578	119.12
1810.924	119.46
1815.266	105.46
1819.603	105.46
1823.937	100.12
1828.266	94.46
1832.591	95.12
1836.913	90.79
1841.23	88.12
1845.543	83.12
1849.852	87.12
1854.156	83.79
1858.457	85.12
1862.754	85.46
1867.047	83.46
1871.335	84.46
1875.62	85.79
1879.9	86.12
1884.177	86.12
1888.449	84.12
1892.718	87.12
1896.982	84.12
1901.243	86.12
1905.499	85.46
1909.752	90.79
1914	91.79
1918.245	90.79
1922.485	93.12
1926.722	96.79
1930.954	97.12
1935.183	99.46
1939.408	97.79
1943.628	101.12
1947.845	102.79
1952.058	98.12
1956.267	101.12
1960.472	100.12
1964.673	98.79
1968.87	96.46
1973.063	92.46
1977.252	92.46
1981.438	90.79
1985.619	91.79
1989.797	89.79
1993.971	91.79
1998.14	92.46
2002.306	93.79
2006.469	94.46
2010.627	94.12
2014.781	97.12
2018.932	96.12
2023.078	98.46
2027.221	100.12
2031.36	100.46
2035.495	100.46
2039.627	98.46
2043.754	102.46
2047.878	102.79
2051.998	102.46
2056.114	100.12
2060.226	106.79
2064.334	109.46
2068.439	111.12
2072.54	114.46
2076.637	116.46
2080.73	119.46
2084.82	123.46
2088.906	124.46
2092.988	122.79
2097.066	121.79
2101.14	118.79
2105.211	116.12
2109.278	113.12
2113.342	116.12
2117.401	114.79
2121.457	112.12
2125.509	113.79
2129.558	106.46
2133.602	103.12
2137.643	101.46
2141.681	103.46
2145.714	96.46
2149.744	94.79
2153.77	93.12
2157.793	92.12
2161.812	87.46
2165.827	85.46
2169.838	77.79
2173.846	73.46
2177.851	66.46
2181.851	66.79
2185.848	61.12
2189.841	59.12
2193.831	58.46
2197.817	51.12
2201.799	53.79
2205.778	52.12
2209.753	48.79
2213.725	47.12
2217.693	46.46
2221.657	43.79
2225.618	42.79
2229.575	37.79
2233.529	35.12
2237.479	31.46
2241.425	29.12
2245.368	21.12
2249.307	21.12
2253.243	22.46
2257.175	13.46
2261.104	14.12
2265.029	11.79
2268.95	7.79
2272.868	6.12
2276.783	0.46
2280.694	-1.54
2284.601	-1.54
2288.505	-5.88
2292.405	-5.88
2296.302	-9.21
2300.195	-13.54
2304.085	-15.88
2307.971	-12.88
2311.854	-16.88
2315.734	-20.21
2319.609	-21.88
2323.482	-24.21
2327.351	-26.21
2331.216	-22.54
2335.078	-27.21
2338.937	-29.54
2342.792	-30.21
2346.643	-33.88
2350.492	-33.21
2354.336	-33.54
2358.178	-33.88
2362.015	-33.88
2365.85	-33.21
2369.681	-35.21
2373.508	-38.21
2377.333	-37.88
2381.153	-37.21
2384.971	-40.21
2388.785	-37.88
2392.595	-39.88
2396.402	-40.21
2400.206	-41.54
2404.007	-42.88
2407.804	-43.54
2411.597	-41.21
2415.388	-43.21
2419.174	-45.21
2422.958	-45.21
2426.738	-45.88
2430.515	-44.54
2434.289	-46.54
2438.059	-47.54
2441.825	-47.21
2445.589	-47.54
2449.349	-48.54
2453.106	-46.21
2456.859	-48.21
2460.61	-51.88
2464.356	-50.88
2468.1	-51.21
2471.84	-51.54
2475.577	-52.21
2479.311	-52.54
2483.041	-53.54
2486.768	-55.21
2490.492	-52.54
2494.213	-54.54
2497.93	-54.88
2501.644	-52.88
2505.355	-54.88
2509.062	-55.21
2512.766	-54.54
2516.467	-53.21
2520.165	-54.88
2523.859	-57.21
2527.551	-56.54
2531.239	-56.88
2534.923	-56.54
2538.605	-58.21
2542.283	-58.88
2545.958	-56.21
2549.63	-60.54
2553.299	-59.88
2556.964	-61.54
2560.626	-58.21
2564.285	-57.54
2567.941	-56.21
2571.594	-60.21
2575.243	-59.54
2578.89	-64.21
2582.533	-61.21
2586.173	-61.88
2589.809	-61.88
2593.443	-61.21
2597.073	-61.54
2600.701	-61.54
2604.325	-64.21
2607.946	-60.54
2611.564	-63.88
2615.178	-63.54
2618.79	-64.21
2622.398	-64.88
2626.004	-60.21
2629.606	-63.21
2633.205	-63.88
2636.801	-65.54
2640.394	-63.88
2643.983	-63.88
2647.57	-65.88
2651.153	-66.54
2654.734	-68.21
2658.311	-65.54
2661.885	-65.54
2665.456	-64.88
2669.025	-63.54
2672.589	-64.88
2676.151	-64.54
2679.71	-65.54
2683.266	-66.21
2686.819	-64.88
2690.368	-65.54
2693.915	-66.21
2697.458	-64.54
2700.999	-64.88
2704.536	-63.54
2708.071	-63.88
2711.602	-65.88
2715.13	-62.54
2718.656	-60.54
2722.178	-61.21
2725.697	-59.88
2729.214	-61.88
2732.727	-57.54
2736.237	-55.88
2739.744	-56.54
2743.249	-53.54
2746.75	-55.54
2750.248	-54.54
2753.743	-51.54
2757.236	-48.88
2760.725	-49.54
2764.211	-50.88
2767.695	-48.54
2771.175	-46.21
2774.652	-46.88
2778.127	-46.54
2781.598	-45.88
2785.067	-43.88
2788.532	-42.54
2791.995	-41.88
2795.455	-41.88
2798.911	-40.21
2802.365	-38.54
2805.816	-34.88
2809.264	-34.21
2812.709	-31.54
2816.151	-32.54
2819.59	-31.88
2823.026	-28.88
2826.46	-27.88
2829.89	-26.88
2833.318	-24.88
2836.742	-20.88
2840.164	-15.88
2843.583	-17.21
2846.999	-11.88
2850.412	-10.54
2853.822	-10.21
2857.229	-8.21
2860.634	-4.21
2864.035	-0.21
2867.434	7.79
2870.83	7.46
2874.223	15.12
2877.613	13.79
2881	17.79
2884.385	21.12
2887.766	26.46
2891.145	28.12
2894.521	28.79
2897.894	33.46
2901.264	36.79
2904.631	36.46
2907.996	40.46
2911.358	45.46
2914.717	49.46
2918.073	52.46
2921.426	56.12
2924.777	66.12
2928.124	67.46
2931.469	72.12
2934.811	76.79
2938.15	83.46
2941.487	89.12
2944.821	94.79
2948.152	99.79
2951.48	100.79
2954.805	108.12
2958.128	110.12
2961.447	117.12
2964.765	121.79
2968.079	128.46
2971.39	137.46
2974.699	146.46
2978.005	153.79
2981.308	165.12
2984.609	174.12
2987.907	186.46
2991.202	192.79
2994.494	201.12
2997.784	213.12
3001.07	221.79
3004.355	232.12
3007.636	241.79
3010.915	250.79
3014.191	262.46
3017.464	269.79
3020.734	277.46
3024.002	284.12
3027.267	292.79
3030.53	301.12
3033.789	305.46
3037.046	323.79
3040.301	332.46
3043.552	347.12
3046.801	362.46
3050.048	372.79
3053.291	390.46
3056.532	406.46
3059.771	422.12
3063.006	435.79
3066.239	458.12
3069.469	479.12
3072.697	493.46
3075.922	518.12
3079.144	537.12
3082.364	549.12
3085.581	565.79
3088.795	582.46
3092.007	601.46
3095.216	606.46
3098.423	630.46
3101.627	649.46
3104.828	676.46
3108.026	693.79
3111.222	714.46
3114.416	735.12
3117.607	753.12
3120.795	775.79
3123.98	797.12
3127.163	825.12
3130.344	846.46
3133.521	865.79
3136.696	887.46
3139.869	910.79
3143.039	915.12
3146.206	936.79
3149.371	950.46
3152.533	971.79
3155.693	977.46
3158.85	990.12
3162.005	991.46
3165.157	1002.46
3168.306	1011.12
3171.453	1013.46
3174.597	1013.79
3177.739	1020.79
3180.878	1023.46
3184.014	1033.79
3187.149	1040.46
3190.28	1048.79
3193.409	1047.46
3196.536	1056.12
3199.659	1057.46
3202.781	1064.46
3205.9	1065.12
3209.016	1063.46
3212.13	1062.79
3215.241	1058.12
3218.35	1048.79
3221.456	1050.12
3224.56	1036.79
3227.661	1034.79
3230.76	1020.46
3233.856	1015.46
3236.95	1017.79
3240.041	1006.12
3243.13	1003.79
3246.216	989.46
3249.3	988.79
3252.382	981.46
3255.46	997.46
3258.537	980.46
3261.611	975.79
3264.682	983.12
3267.751	982.46
3270.818	974.79
3273.882	966.12
3276.943	960.79
3280.002	962.46
3283.059	956.46
3286.113	930.79
3289.165	921.79
3292.214	901.12
3295.261	894.79
3298.306	878.79
3301.348	868.12
3304.387	854.46
3307.425	840.46
3310.459	828.12
3313.492	818.79
3316.521	809.79
3319.549	795.79
3322.574	797.12
3325.597	790.46
3328.617	777.79
3331.635	780.46
3334.65	777.12
3337.663	775.46
3340.674	767.46
3343.682	764.79
3346.688	766.46
3349.691	761.12
3352.692	756.12
3355.691	752.79
3358.687	749.79
3361.681	745.46
3364.673	730.12
3367.662	722.79
3370.649	715.12
3373.633	706.46
3376.615	697.12
3379.595	689.46
3382.572	685.12
3385.547	677.12
3388.52	660.46
3391.49	651.46
3394.458	646.12
3397.424	645.79
3400.387	633.79
3403.348	628.46
3406.307	619.12
3409.263	619.46
3412.217	604.46
3415.168	603.79
3418.118	594.79
3421.065	590.46
3424.009	581.46
3426.951	578.12
3429.891	569.46
3432.829	556.79
3435.764	551.79
3438.697	534.79
3441.628	521.46
3444.557	508.12
3447.483	492.79
3450.407	479.79
3453.328	467.79
3456.247	452.46
3459.164	443.12
3462.079	434.79
3464.991	423.79
3467.902	405.46
3470.809	396.12
3473.715	380.12
3476.618	368.12
3479.519	362.79
3482.418	354.12
3485.315	338.46
3488.209	329.46
3491.101	325.46
3493.99	315.12
3496.878	303.12
3499.763	291.12
3502.646	284.46
3505.527	273.12
3508.405	268.46
3511.281	254.46
3514.155	244.79
3517.027	230.79
3519.897	221.12
3522.764	207.79
3525.629	200.79
3528.492	186.46
3531.352	177.46
3534.211	165.79
3537.067	155.46
3539.921	146.12
3542.773	140.12
3545.622	131.12
3548.469	117.12
3551.315	109.79
3554.157	104.12
3556.998	94.46
3559.837	94.46
3562.673	88.46
3565.507	79.46
3568.339	75.12
3571.169	68.79
3573.996	58.46
3576.822	58.46
3579.645	50.12
3582.466	43.79
3585.285	37.79
3588.101	33.46
3590.916	28.79
3593.728	26.46
3596.538	16.46
3599.346	13.46
3602.152	8.46
3604.956	4.79
3607.757	-0.54
3610.556	-2.54
3613.354	-6.54
3616.149	-9.88
3618.942	-16.21
3621.732	-16.21
3624.521	-21.54
3627.307	-23.21
3630.092	-27.88
3632.874	-31.54
3635.654	-30.54
3638.432	-34.21
3641.208	-35.21
3643.982	-39.21
3646.753	-44.88
3649.523	-44.54
3652.29	-46.88
3655.055	-49.54
3657.818	-53.88
3660.579	-56.54
3663.338	-56.54
3666.095	-60.21
3668.849	-62.54
3671.602	-64.54
3674.352	-67.21
3677.101	-67.54
3679.847	-70.54
3682.591	-71.21
3685.333	-75.21
3688.073	-73.54
3690.811	-76.88
3693.547	-75.54
3696.281	-78.88
3699.013	-81.21
3701.742	-82.88
3704.47	-84.88
3707.195	-84.21
3709.919	-85.88
3712.64	-84.88
3715.359	-87.88
3718.076	-88.54
3720.792	-87.88
3723.505	-91.21
3726.216	-90.88
3728.925	-92.54
3731.632	-90.88
3734.336	-94.21
3737.039	-94.21
3739.74	-94.88
3742.439	-92.54
3745.136	-94.88
3747.83	-94.54
3750.523	-97.54
3753.213	-95.21
3755.902	-96.21
3758.589	-96.21
3761.273	-95.54
3763.956	-99.54
3766.636	-98.88
3769.315	-99.54
3771.991	-98.88
3774.665	-100.54
3777.338	-100.88
3780.008	-100.21
3782.677	-99.21
3785.343	-100.21
3788.007	-100.88
3790.67	-102.21
3793.33	-101.21
3795.989	-103.21
3798.645	-102.21
3801.299	-103.21
3803.952	-102.21
3806.602	-104.54
3809.251	-103.88
3811.897	-102.88
3814.542	-105.54
3817.184	-106.21
3819.825	-104.54
3822.463	-105.88
3825.1	-105.21
3827.735	-107.54
3830.367	-105.54
3832.998	-105.21
3835.627	-107.21
3838.253	-106.54
3840.878	-107.21
3843.501	-107.88
3846.122	-106.54
3848.741	-106.54
3851.358	-106.88
3853.973	-108.54
3856.586	-107.54
3859.197	-105.21
3861.806	-105.54
3864.414	-106.21
3867.019	-106.54
3869.622	-105.21
3872.224	-105.54
3874.823	-100.54
3877.421	-99.21
3880.016	-94.54
3882.61	-87.88
3885.202	-87.21
3887.792	-89.21
3890.38	-94.88
3892.966	-101.21
3895.55	-103.88
3898.132	-107.21
3900.713	-103.54
3903.291	-106.21
3905.868	-108.21
3908.442	-106.88
3911.015	-106.21
3913.586	-107.21
3916.155	-108.21
3918.722	-108.21
3921.287	-108.21
3923.85	-109.54
3926.411	-107.54
3928.971	-107.88
3931.528	-110.21
3934.084	-109.21
3936.638	-109.88
3939.19	-108.21
3941.74	-109.54
3944.288	-111.21
3946.834	-108.21
3949.378	-107.21
3951.921	-108.21
3954.462	-108.54
3957	-107.21
3959.537	-108.21
3962.072	-107.54
3964.606	-106.21
3967.137	-107.88
3969.667	-108.88
3972.194	-108.54
3974.72	-107.21
3977.244	-105.54
3979.766	-104.54
3982.286	-105.88
3984.805	-105.54
3987.321	-107.21
3989.836	-104.88
3992.349	-106.88
3994.86	-106.21
3997.369	-104.88
3999.877	-105.21
4002.382	-107.54
4004.886	-105.88
4007.388	-106.21
4009.888	-106.21
4012.386	-106.88
4014.883	-106.88
4017.377	-109.54
4019.87	-109.54
4022.361	-107.21
4024.85	-107.88
4027.338	-109.21
4029.823	-109.54
4032.307	-107.54
4034.789	-110.88
4037.269	-108.54
4039.747	-109.88
4042.224	-111.21
4044.699	-108.21
4047.172	-110.54
4049.643	-110.54
4052.112	-107.88
4054.58	-107.54
4057.046	-110.21
4059.51	-109.88
4061.972	-108.21
4064.432	-107.54
4066.891	-108.54
4069.348	-106.54
4071.803	-107.88
4074.256	-107.54
4076.708	-107.21
4079.158	-106.21
4081.606	-105.21
4084.052	-105.54
4086.497	-107.21
4088.939	-107.54
4091.38	-106.88
4093.819	-106.21
4096.257	-111.88
4098.693	-108.88
4101.127	-110.54
4103.559	-111.21
4105.989	-67.54
4108.418	-63.54
4110.845	-61.54
4113.27	-57.21
4115.694	-48.88
4118.115	-43.21
4120.535	-106.21
4122.954	-104.21
4125.37	-105.21
4127.785	-105.88
4130.198	-106.54
4132.609	-107.21
4135.019	-109.88
4137.427	-109.88
4139.833	-110.21
4142.237	-110.21
