160.701	-31.29
166.742	1.71
172.777	95.71
178.805	385.37
184.826	1081.04
190.841	2294.04
196.849	3669.04
202.85	4618.04
208.845	4828.38
214.833	4647.38
220.815	4453.71
226.789	4283.71
232.758	4145.71
238.719	3998.37
244.674	3824.71
250.623	3631.04
256.565	3435.38
262.5	3255.04
268.429	3088.04
274.351	2939.71
280.267	2786.04
286.176	2666.38
292.079	2582.38
297.975	2473.71
303.865	2386.04
309.748	2328.04
315.625	2260.04
321.495	2209.38
327.359	2170.04
333.217	2151.71
339.068	2135.04
344.912	2118.71
350.751	2119.04
356.583	2116.71
362.408	2096.71
368.227	2108.71
374.04	2127.38
379.847	2142.71
385.647	2157.38
391.44	2151.37
397.228	2157.04
403.009	2152.38
408.784	2185.38
414.553	2262.71
420.315	2319.38
426.071	2331.04
431.821	2247.38
437.565	2176.71
443.302	2154.04
449.033	2131.38
454.758	2114.38
460.477	2096.04
466.189	2072.04
471.896	2047.04
477.596	2044.38
483.29	2026.04
488.978	2013.71
494.66	1990.04
500.335	1957.04
506.005	1928.71
511.668	1878.71
517.325	1827.71
522.977	1795.71
528.622	1771.37
534.261	1737.04
539.894	1721.71
545.521	1693.71
551.141	1673.38
556.756	1657.04
562.365	1651.71
567.968	1629.04
573.565	1613.04
579.155	1594.71
584.74	1571.37
590.319	1574.71
595.892	1550.38
601.459	1532.71
607.02	1514.38
612.575	1489.38
618.124	1470.37
623.667	1460.38
629.204	1441.38
634.735	1429.04
640.261	1429.71
645.781	1444.38
651.294	1444.71
656.802	1425.04
662.304	1376.38
667.8	1351.04
673.29	1338.38
678.775	1330.04
684.254	1310.04
689.726	1293.71
695.193	1286.37
700.655	1265.38
706.11	1249.71
711.56	1240.38
717.004	1222.71
722.442	1216.37
727.874	1194.04
733.301	1185.04
738.722	1185.04
744.137	1179.38
749.547	1167.71
754.951	1171.04
760.349	1159.37
765.741	1143.71
771.128	1131.38
776.509	1126.37
781.885	1120.04
787.254	1117.37
792.618	1108.04
797.977	1079.38
803.33	1071.38
808.677	1051.71
814.019	1041.38
819.355	1016.04
824.686	1000.04
830.011	987.71
835.33	977.04
840.644	964.71
845.952	950.38
851.255	943.71
856.552	924.04
861.844	912.04
867.13	905.38
872.41	891.71
877.686	876.38
882.955	862.04
888.219	845.71
893.478	812.38
898.731	790.71
903.979	767.71
909.221	752.71
914.458	741.38
919.69	733.71
924.916	720.71
930.136	723.37
935.351	711.38
940.561	704.71
945.766	690.04
950.965	683.38
956.158	672.04
961.347	660.38
966.529	645.04
971.707	631.71
976.879	618.04
982.046	613.71
987.208	608.04
992.364	599.04
997.515	595.04
1002.66	605.38
1007.801	609.04
1012.936	610.04
1018.066	610.38
1023.19	612.37
1028.309	610.37
1033.423	603.71
1038.532	599.37
1043.636	594.04
1048.734	590.37
1053.827	583.37
1058.915	572.71
1063.998	562.38
1069.075	560.71
1074.147	556.04
1079.214	559.37
1084.276	561.71
1089.333	563.04
1094.385	564.71
1099.431	573.04
1104.472	563.04
1109.509	557.38
1114.54	544.71
1119.565	533.37
1124.586	532.04
1129.602	521.37
1134.613	519.71
1139.618	512.38
1144.619	518.04
1149.614	515.71
1154.604	518.04
1159.589	514.71
1164.57	522.71
1169.545	509.71
1174.515	521.71
1179.48	515.71
1184.44	514.38
1189.395	502.71
1194.345	500.38
1199.29	502.71
1204.23	495.04
1209.165	502.04
1214.095	499.71
1219.021	508.04
1223.941	508.38
1228.856	511.37
1233.766	507.71
1238.672	501.38
1243.572	505.71
1248.467	501.71
1253.358	494.71
1258.244	487.04
1263.124	477.71
1268	467.04
1272.871	458.71
1277.737	452.04
1282.599	448.71
1287.455	456.37
1292.306	451.71
1297.153	452.04
1301.995	452.04
1306.832	451.38
1311.664	456.37
1316.491	450.04
1321.314	444.71
1326.132	439.71
1330.945	430.38
1335.753	420.37
1340.556	409.37
1345.354	408.71
1350.148	399.04
1354.937	398.71
1359.722	397.04
1364.501	390.04
1369.276	390.38
1374.046	394.38
1378.811	390.71
1383.572	391.04
1388.327	385.71
1393.079	379.71
1397.825	373.38
1402.567	366.38
1407.304	365.04
1412.036	358.71
1416.764	358.71
1421.487	358.04
1426.205	364.71
1430.919	361.04
1435.628	367.04
1440.333	367.38
1445.032	366.38
1449.727	369.04
1454.418	371.04
1459.104	373.71
1463.785	370.38
1468.462	366.38
1473.134	362.71
1477.802	354.04
1482.465	353.71
1487.123	357.04
1491.777	359.04
1496.426	367.38
1501.071	373.04
1505.711	375.37
1510.347	392.38
1514.978	397.71
1519.604	401.71
1524.226	413.38
1528.844	414.38
1533.457	411.37
1538.065	415.71
1542.669	418.38
1547.269	424.37
1551.864	433.38
1556.454	438.38
1561.041	452.71
1565.622	457.04
1570.199	473.04
1574.772	490.38
1579.34	512.71
1583.904	530.38
1588.464	549.71
1593.019	572.38
1597.569	589.71
1602.115	607.38
1606.657	635.38
1611.195	650.71
1615.728	665.38
1620.256	687.04
1624.78	709.71
1629.3	726.38
1633.816	747.71
1638.327	763.38
1642.834	770.37
1647.336	775.71
1651.834	777.04
1656.328	772.04
1660.817	763.04
1665.302	736.04
1669.783	706.71
1674.259	669.71
1678.732	636.38
1683.199	607.71
1687.663	558.71
1692.122	520.37
1696.577	483.71
1701.028	457.71
1705.474	424.04
1709.917	392.04
1714.355	371.71
1718.788	348.04
1723.218	322.38
1727.643	303.37
1732.064	279.71
1736.481	256.04
1740.893	236.38
1745.301	220.71
1749.705	201.38
1754.105	186.04
1758.501	172.04
1762.893	162.04
1767.28	149.38
1771.663	143.71
1776.042	138.38
1780.417	136.04
1784.787	129.38
1789.154	130.04
1793.516	128.37
1797.874	121.71
1802.228	123.71
1806.578	116.04
1810.924	110.38
1815.266	103.38
1819.603	100.37
1823.937	96.38
1828.266	91.71
1832.591	85.71
1836.913	88.04
1841.23	87.38
1845.543	81.38
1849.852	84.71
1854.156	83.04
1858.457	80.71
1862.754	82.38
1867.047	79.04
1871.335	77.71
1875.62	81.38
1879.9	79.71
1884.177	77.04
1888.449	79.04
1892.718	78.04
1896.982	78.71
1901.243	79.38
1905.499	77.04
1909.752	78.04
1914	78.71
1918.245	83.38
1922.485	82.38
1926.722	84.37
1930.954	89.37
1935.183	92.71
1939.408	93.04
1943.628	101.04
1947.845	94.71
1952.058	93.38
1956.267	94.71
1960.472	91.04
1964.673	88.04
1968.87	91.04
1973.063	85.71
1977.252	86.38
1981.438	87.04
1985.619	90.38
1989.797	83.04
1993.971	86.04
1998.14	87.38
2002.306	88.71
2006.469	96.71
2010.627	96.37
2014.781	97.37
2018.932	98.04
2023.078	97.38
2027.221	98.71
2031.36	97.71
2035.495	96.38
2039.627	98.71
2043.754	101.38
2047.878	100.38
2051.998	103.38
2056.114	100.38
2060.226	107.04
2064.334	110.38
2068.439	113.04
2072.54	116.04
2076.637	113.04
2080.73	116.38
2084.82	121.04
2088.906	120.04
2092.988	119.71
2097.066	120.71
2101.14	117.71
2105.211	117.04
2109.278	117.71
2113.342	115.71
2117.401	112.37
2121.457	111.38
2125.509	106.71
2129.558	103.71
2133.602	103.37
2137.643	99.37
2141.681	95.71
2145.714	96.71
2149.744	93.04
2153.77	93.71
2157.793	92.37
2161.812	88.71
2165.827	81.71
2169.838	79.04
2173.846	73.38
2177.851	69.71
2181.851	69.38
2185.848	65.04
2189.841	59.38
2193.831	58.38
2197.817	55.04
2201.799	57.04
2205.778	54.38
2209.753	47.71
2213.725	48.37
2217.693	44.71
2221.657	46.71
2225.618	41.04
2229.575	39.04
2233.529	33.38
2237.479	29.71
2241.425	30.71
2245.368	25.37
2249.307	20.37
2253.243	18.04
2257.175	13.04
2261.104	13.04
2265.029	8.38
2268.95	6.38
2272.868	0.38
2276.783	0.38
2280.694	0.37
2284.601	-2.62
2288.505	-5.63
2292.405	-7.62
2296.302	-11.62
2300.195	-13.29
2304.085	-14.63
2307.971	-15.29
2311.854	-17.29
2315.734	-23.96
2319.609	-23.96
2323.482	-23.96
2327.351	-25.62
2331.216	-24.63
2335.078	-26.96
2338.937	-26.29
2342.792	-30.29
2346.643	-31.29
2350.492	-34.96
2354.336	-34.62
2358.178	-36.63
2362.015	-33.29
2365.85	-34.96
2369.681	-35.96
2373.508	-33.29
2377.333	-38.63
2381.153	-37.29
2384.971	-38.96
2388.785	-41.29
2392.595	-41.96
2396.402	-38.62
2400.206	-45.29
2404.007	-47.29
2407.804	-44.96
2411.597	-45.29
2415.388	-43.63
2419.174	-45.96
2422.958	-46.62
2426.738	-48.96
2430.515	-46.62
2434.289	-49.29
2438.059	-47.96
2441.825	-49.29
2445.589	-47.96
2449.349	-47.29
2453.106	-47.62
2456.859	-48.63
2460.61	-50.29
2464.356	-51.63
2468.1	-51.62
2471.84	-51.96
2475.577	-54.29
2479.311	-52.62
2483.041	-52.29
2486.768	-56.63
2490.492	-55.63
2494.213	-56.63
2497.93	-57.96
2501.644	-55.96
2505.355	-56.63
2509.062	-56.62
2512.766	-56.29
2516.467	-58.96
2520.165	-57.29
2523.859	-60.62
2527.551	-60.29
2531.239	-57.96
2534.923	-60.29
2538.605	-58.63
2542.283	-60.29
2545.958	-58.29
2549.63	-61.62
2553.299	-59.29
2556.964	-60.96
2560.626	-60.29
2564.285	-61.29
2567.941	-59.29
2571.594	-61.96
2575.243	-58.96
2578.89	-63.29
2582.533	-62.62
2586.173	-61.96
2589.809	-64.62
2593.443	-62.63
2597.073	-63.96
2600.701	-65.63
2604.325	-68.29
2607.946	-67.62
2611.564	-67.96
2615.178	-65.96
2618.79	-68.29
2622.398	-67.29
2626.004	-66.29
2629.606	-66.63
2633.205	-67.29
2636.801	-67.62
2640.394	-67.29
2643.983	-66.96
2647.57	-70.29
2651.153	-68.96
2654.734	-67.96
2658.311	-65.63
2661.885	-67.63
2665.456	-65.29
2669.025	-65.96
2672.589	-63.63
2676.151	-65.29
2679.71	-66.63
2683.266	-67.96
2686.819	-65.96
2690.368	-66.96
2693.915	-66.62
2697.458	-64.96
2700.999	-64.62
2704.536	-63.63
2708.071	-62.62
2711.602	-66.96
2715.13	-62.96
2718.656	-62.96
2722.178	-62.62
2725.697	-64.29
2729.214	-62.62
2732.727	-60.96
2736.237	-57.96
2739.744	-58.96
2743.249	-55.63
2746.75	-60.29
2750.248	-56.62
2753.743	-56.96
2757.236	-53.96
2760.725	-51.96
2764.211	-55.96
2767.695	-51.29
2771.175	-47.62
2774.652	-48.63
2778.127	-46.96
2781.598	-46.29
2785.067	-45.96
2788.532	-41.96
2791.995	-44.62
2795.455	-41.62
2798.911	-38.96
2802.365	-38.62
2805.816	-37.29
2809.264	-34.62
2812.709	-34.96
2816.151	-30.96
2819.59	-31.63
2823.026	-28.96
2826.46	-28.29
2829.89	-23.96
2833.318	-24.96
2836.742	-21.62
2840.164	-18.62
2843.583	-17.96
2846.999	-13.29
2850.412	-10.62
2853.822	-7.62
2857.229	-8.29
2860.634	-0.62
2864.035	3.71
2867.434	8.04
2870.83	7.38
2874.223	16.38
2877.613	16.37
2881	23.04
2884.385	23.71
2887.766	29.04
2891.145	28.37
2894.521	32.04
2897.894	34.37
2901.264	38.71
2904.631	41.38
2907.996	44.38
2911.358	47.04
2914.717	51.37
2918.073	56.71
2921.426	61.04
2924.777	68.04
2928.124	70.71
2931.469	75.38
2934.811	83.71
2938.15	88.04
2941.487	93.38
2944.821	94.71
2948.152	98.71
2951.48	107.71
2954.805	113.71
2958.128	117.38
2961.447	125.71
2964.765	131.37
2968.079	137.04
2971.39	142.38
2974.699	152.04
2978.005	163.04
2981.308	177.04
2984.609	186.71
2987.907	191.71
2991.202	204.38
2994.494	218.71
2997.784	227.71
3001.07	241.37
3004.355	246.71
3007.636	256.04
3010.915	271.38
3014.191	278.38
3017.464	284.04
3020.734	296.71
3024.002	299.38
3027.267	306.04
3030.53	320.71
3033.789	326.04
3037.046	344.04
3040.301	347.71
3043.552	371.04
3046.801	378.04
3050.048	391.37
3053.291	408.38
3056.532	426.04
3059.771	445.04
3063.006	465.04
3066.239	483.38
3069.469	501.71
3072.697	523.38
3075.922	538.38
3079.144	564.37
3082.364	579.37
3085.581	592.71
3088.795	617.04
3092.007	632.38
3095.216	645.37
3098.423	674.38
3101.627	693.38
3104.828	707.71
3108.026	729.04
3111.222	753.04
3114.416	764.38
3117.607	788.04
3120.795	817.04
3123.98	841.38
3127.163	862.04
3130.344	890.71
3133.521	916.71
3136.696	921.04
3139.869	952.38
3143.039	968.04
3146.206	989.04
3149.371	1001.71
3152.533	1015.71
3155.693	1022.38
3158.85	1039.38
3162.005	1037.37
3165.157	1047.04
3168.306	1058.71
3171.453	1063.04
3174.597	1066.71
3177.739	1074.71
3180.878	1070.71
3184.014	1079.71
3187.149	1082.71
3190.28	1092.04
3193.409	1093.37
3196.536	1103.04
3199.659	1113.37
3202.781	1109.38
3205.9	1115.71
3209.016	1120.71
3212.13	1121.04
3215.241	1113.38
3218.35	1106.04
3221.456	1098.04
3224.56	1090.38
3227.661	1085.71
3230.76	1077.04
3233.856	1064.38
3236.95	1064.71
3240.041	1058.37
3243.13	1049.38
3246.216	1045.04
3249.3	1042.38
3252.382	1040.38
3255.46	1038.37
3258.537	1033.04
3261.611	1028.04
3264.682	1025.38
3267.751	1018.04
3270.818	1016.38
3273.882	1020.04
3276.943	1010.04
3280.002	995.38
3283.059	987.71
3286.113	975.71
3289.165	959.04
3292.214	949.38
3295.261	930.71
3298.306	911.38
3301.348	904.04
3304.387	884.71
3307.425	881.38
3310.459	872.71
3313.492	858.71
3316.521	842.38
3319.549	834.04
3322.574	828.04
3325.597	826.04
3328.617	827.37
3331.635	811.71
3334.65	808.04
3337.663	808.38
3340.674	817.38
3343.682	805.04
3346.688	807.04
3349.691	799.04
3352.692	799.38
3355.691	796.71
3358.687	785.71
3361.681	779.04
3364.673	766.71
3367.662	760.38
3370.649	758.71
3373.633	741.37
3376.615	728.04
3379.595	726.04
3382.572	717.71
3385.547	703.37
3388.52	688.38
3391.49	682.04
3394.458	680.04
3397.424	678.71
3400.387	664.71
3403.348	662.04
3406.307	651.38
3409.263	644.04
3412.217	634.04
3415.168	624.04
3418.118	626.04
3421.065	622.71
3424.009	615.38
3426.951	610.71
3429.891	596.04
3432.829	587.71
3435.764	576.71
3438.697	563.04
3441.628	547.38
3444.557	538.38
3447.483	524.71
3450.407	514.04
3453.328	491.38
3456.247	485.04
3459.164	466.71
3462.079	455.04
3464.991	444.04
3467.902	429.37
3470.809	417.04
3473.715	398.38
3476.618	392.71
3479.519	383.38
3482.418	372.04
3485.315	361.04
3488.209	351.04
3491.101	345.04
3493.99	334.04
3496.878	320.37
3499.763	308.38
3502.646	298.71
3505.527	292.38
3508.405	278.37
3511.281	272.71
3514.155	261.04
3517.027	249.04
3519.897	238.04
3522.764	222.04
3525.629	217.71
3528.492	200.04
3531.352	189.37
3534.211	179.71
3537.067	172.71
3539.921	161.38
3542.773	155.38
3545.622	137.71
3548.469	134.71
3551.315	123.04
3554.157	115.38
3556.998	108.04
3559.837	103.04
3562.673	97.04
3565.507	89.04
3568.339	79.04
3571.169	78.04
3573.996	73.38
3576.822	69.71
3579.645	61.71
3582.466	52.71
3585.285	46.71
3588.101	42.04
3590.916	38.38
3593.728	32.37
3596.538	24.71
3599.346	20.04
3602.152	14.71
3604.956	10.37
3607.757	8.04
3610.556	2.71
3613.354	0.71
3616.149	-5.29
3618.942	-9.62
3621.732	-11.96
3624.521	-15.62
3627.307	-19.29
3630.092	-20.62
3632.874	-25.29
3635.654	-25.96
3638.432	-29.62
3641.208	-35.29
3643.982	-34.29
3646.753	-42.62
3649.523	-43.62
3652.29	-44.63
3655.055	-48.29
3657.818	-49.63
3660.579	-53.29
3663.338	-55.63
3666.095	-60.96
3668.849	-61.96
3671.602	-65.29
3674.352	-66.62
3677.101	-69.29
3679.847	-71.29
3682.591	-70.96
3685.333	-72.96
3688.073	-74.29
3690.811	-76.96
3693.547	-76.96
3696.281	-78.29
3699.013	-80.29
3701.742	-80.96
3704.47	-83.96
3707.195	-82.62
3709.919	-83.62
3712.64	-83.96
3715.359	-87.96
3718.076	-88.29
3720.792	-89.29
3723.505	-90.96
3726.216	-91.96
3728.925	-91.63
3731.632	-93.63
3734.336	-93.96
3737.039	-93.62
3739.74	-95.29
3742.439	-94.96
3745.136	-96.29
3747.83	-97.62
3750.523	-97.62
3753.213	-98.29
3755.902	-96.96
3758.589	-98.62
3761.273	-96.62
3763.956	-101.63
3766.636	-98.62
3769.315	-101.29
3771.991	-100.29
3774.665	-101.63
3777.338	-100.29
3780.008	-100.96
3782.677	-100.29
3785.343	-100.29
3788.007	-102.29
3790.67	-104.96
3793.33	-103.29
3795.989	-102.96
3798.645	-101.96
3801.299	-102.29
3803.952	-101.96
3806.602	-104.63
3809.251	-104.96
3811.897	-104.63
3814.542	-106.62
3817.184	-105.29
3819.825	-106.29
3822.463	-105.96
3825.1	-107.62
3827.735	-110.62
3830.367	-106.29
3832.998	-108.29
3835.627	-108.63
3838.253	-108.96
3840.878	-108.62
3843.501	-108.62
3846.122	-109.62
3848.741	-109.96
3851.358	-108.29
3853.973	-109.96
3856.586	-106.62
3859.197	-106.96
3861.806	-108.29
3864.414	-108.29
3867.019	-106.29
3869.622	-107.29
3872.224	-104.96
3874.823	-102.96
3877.421	-101.29
3880.016	-96.96
3882.61	-91.29
3885.202	-88.62
3887.792	-90.63
3890.38	-98.29
3892.966	-103.96
3895.55	-105.96
3898.132	-108.96
3900.713	-108.29
3903.291	-108.62
3905.868	-110.62
3908.442	-108.62
3911.015	-110.63
3913.586	-111.62
3916.155	-111.29
3918.722	-109.96
3921.287	-109.96
3923.85	-110.29
3926.411	-110.29
3928.971	-108.62
3931.528	-109.96
3934.084	-108.96
3936.638	-110.96
3939.19	-107.29
3941.74	-109.62
3944.288	-109.96
3946.834	-108.62
3949.378	-108.96
3951.921	-111.63
3954.462	-110.62
3957	-109.29
3959.537	-109.29
3962.072	-109.96
3964.606	-110.96
3967.137	-109.62
3969.667	-109.96
3972.194	-110.29
3974.72	-110.96
3977.244	-109.62
3979.766	-108.63
3982.286	-108.96
3984.805	-108.29
3987.321	-107.29
3989.836	-108.62
3992.349	-108.62
3994.86	-109.29
3997.369	-107.62
3999.877	-109.63
4002.382	-109.29
4004.886	-108.96
4007.388	-106.96
4009.888	-108.29
4012.386	-109.62
4014.883	-108.96
4017.377	-112.96
4019.87	-109.63
4022.361	-107.62
4024.85	-108.29
4027.338	-111.96
4029.823	-108.96
4032.307	-111.29
4034.789	-111.29
4037.269	-109.96
4039.747	-110.96
4042.224	-113.96
4044.699	-110.62
4047.172	-111.29
4049.643	-111.96
4052.112	-109.96
4054.58	-109.96
4057.046	-111.96
4059.51	-108.96
4061.972	-109.96
4064.432	-108.96
4066.891	-108.29
4069.348	-108.29
4071.803	-107.62
4074.256	-108.29
4076.708	-111.63
4079.158	-108.29
4081.606	-108.62
4084.052	-107.62
4086.497	-107.96
4088.939	-108.29
4091.38	-110.96
4093.819	-108.62
4096.257	-113.96
4098.693	-113.96
4101.127	-114.96
4103.559	-112.62
4105.989	-68.62
4108.418	-65.62
4110.845	-65.29
4113.27	-58.63
4115.694	-51.29
4118.115	-44.96
4120.535	-110.96
4122.954	-110.96
4125.37	-109.62
4127.785	-108.62
4130.198	-112.29
4132.609	-110.62
4135.019	-113.96
4137.427	-112.62
4139.833	-111.96
4142.237	-112.96
