160.701	-28.46
166.742	1.88
172.777	94.87
178.805	384.21
184.826	1082.21
190.841	2282.54
196.849	3660.88
202.85	4584.88
208.845	4815.88
214.833	4644.21
220.815	4430.88
226.789	4273.87
232.758	4137.54
238.719	3978.54
244.674	3802.54
250.623	3623.21
256.565	3444.54
262.5	3242.87
268.429	3074.54
274.351	2932.54
280.267	2779.87
286.176	2672.21
292.079	2562.87
297.975	2482.21
303.865	2381.54
309.748	2314.87
315.625	2246.87
321.495	2207.87
327.359	2174.87
333.217	2144.21
339.068	2120.88
344.912	2114.54
350.751	2093.87
356.583	2083.21
362.408	2081.88
368.227	2094.54
374.04	2118.87
379.847	2136.54
385.647	2147.54
391.44	2145.54
397.228	2134.87
403.009	2147.54
408.784	2189.54
414.553	2232.54
420.315	2306.21
426.071	2320.54
431.821	2228.21
437.565	2167.21
443.302	2133.21
449.033	2117.54
454.758	2100.87
460.477	2087.87
466.189	2057.21
471.896	2049.54
477.596	2020.21
483.29	2012.54
488.978	2011.88
494.66	1987.87
500.335	1957.54
506.005	1901.87
511.668	1863.21
517.325	1823.21
522.977	1798.54
528.622	1757.54
534.261	1723.87
539.894	1705.54
545.521	1679.88
551.141	1663.54
556.756	1647.87
562.365	1635.54
567.968	1624.88
573.565	1601.87
579.155	1585.88
584.74	1570.21
590.319	1558.21
595.892	1532.21
601.459	1519.54
607.02	1495.21
612.575	1482.88
618.124	1451.54
623.667	1452.54
629.204	1434.87
634.735	1422.21
640.261	1423.54
645.781	1431.21
651.294	1437.54
656.802	1411.21
662.304	1374.54
667.8	1343.88
673.29	1330.88
678.775	1318.54
684.254	1308.21
689.726	1298.87
695.193	1279.87
700.655	1256.87
706.11	1253.88
711.56	1241.21
717.004	1223.88
722.442	1210.21
727.874	1196.21
733.301	1185.87
738.722	1169.54
744.137	1173.54
749.547	1162.87
754.951	1168.88
760.349	1150.87
765.741	1137.21
771.128	1132.54
776.509	1121.87
781.885	1108.54
787.254	1109.54
792.618	1093.21
797.977	1078.88
803.33	1071.21
808.677	1048.88
814.019	1041.21
819.355	1015.21
824.686	1004.21
830.011	973.54
835.33	972.21
840.644	957.54
845.952	948.54
851.255	930.87
856.552	914.87
861.844	907.88
867.13	892.87
872.41	885.21
877.686	866.54
882.955	847.21
888.219	835.21
893.478	807.54
898.731	781.21
903.979	760.87
909.221	744.21
914.458	736.21
919.69	727.21
924.916	716.21
930.136	703.21
935.351	705.54
940.561	699.21
945.766	691.87
950.965	671.54
956.158	669.87
961.347	652.21
966.529	647.54
971.707	634.54
976.879	619.21
982.046	606.87
987.208	605.87
992.364	594.21
997.515	596.21
1002.66	607.88
1007.801	603.54
1012.936	600.54
1018.066	605.87
1023.19	612.21
1028.309	603.54
1033.423	600.21
1038.532	596.87
1043.636	593.21
1048.734	577.54
1053.827	575.87
1058.915	566.54
1063.998	560.21
1069.075	554.88
1074.147	554.54
1079.214	561.54
1084.276	551.21
1089.333	555.54
1094.385	561.21
1099.431	565.21
1104.472	564.54
1109.509	551.21
1114.54	545.21
1119.565	534.87
1124.586	528.54
1129.602	522.54
1134.613	516.21
1139.618	509.88
1144.619	506.54
1149.614	507.88
1154.604	511.87
1159.589	520.21
1164.57	513.54
1169.545	510.54
1174.515	518.54
1179.48	513.21
1184.44	502.21
1189.395	506.21
1194.345	496.21
1199.29	494.88
1204.23	488.87
1209.165	491.54
1214.095	494.87
1219.021	500.87
1223.941	502.87
1228.856	504.21
1233.766	502.87
1238.672	502.21
1243.572	496.87
1248.467	496.54
1253.358	481.87
1258.244	482.21
1263.124	465.21
1268	462.88
1272.871	454.54
1277.737	449.21
1282.599	452.87
1287.455	449.87
1292.306	448.88
1297.153	446.87
1301.995	452.21
1306.832	438.87
1311.664	453.87
1316.491	450.21
1321.314	434.87
1326.132	431.88
1330.945	424.54
1335.753	415.21
1340.556	410.54
1345.354	404.54
1350.148	396.21
1354.937	395.87
1359.722	392.21
1364.501	385.54
1369.276	387.87
1374.046	385.54
1378.811	385.87
1383.572	385.87
1388.327	386.21
1393.079	377.87
1397.825	369.21
1402.567	366.21
1407.304	360.21
1412.036	356.87
1416.764	349.21
1421.487	344.88
1426.205	350.54
1430.919	353.87
1435.628	357.21
1440.333	366.21
1445.032	361.21
1449.727	363.54
1454.418	368.21
1459.104	368.21
1463.785	362.21
1468.462	363.21
1473.134	354.54
1477.802	347.54
1482.465	351.21
1487.123	358.54
1491.777	356.54
1496.426	364.87
1501.071	371.54
1505.711	375.21
1510.347	384.87
1514.978	400.54
1519.604	400.54
1524.226	399.87
1528.844	410.21
1533.457	412.21
1538.065	407.21
1542.669	413.21
1547.269	415.54
1551.864	428.88
1556.454	427.88
1561.041	445.88
1565.622	449.21
1570.199	471.54
1574.772	481.21
1579.34	504.21
1583.904	526.21
1588.464	542.21
1593.019	561.21
1597.569	579.88
1602.115	599.87
1606.657	621.54
1611.195	644.21
1615.728	662.54
1620.256	676.87
1624.78	699.87
1629.3	719.88
1633.816	735.88
1638.327	752.21
1642.834	770.54
1647.336	769.54
1651.834	770.21
1656.328	767.54
1660.817	749.54
1665.302	728.21
1669.783	707.21
1674.259	661.21
1678.732	633.21
1683.199	591.21
1687.663	548.54
1692.122	517.21
1696.577	487.54
1701.028	451.54
1705.474	420.21
1709.917	391.54
1714.355	369.87
1718.788	342.21
1723.218	319.54
1727.643	297.54
1732.064	274.21
1736.481	253.54
1740.893	233.54
1745.301	217.21
1749.705	203.21
1754.105	183.54
1758.501	168.88
1762.893	157.21
1767.28	145.54
1771.663	144.87
1776.042	134.54
1780.417	130.21
1784.787	127.87
1789.154	127.54
1793.516	122.21
1797.874	116.87
1802.228	115.87
1806.578	114.21
1810.924	108.88
1815.266	96.21
1819.603	99.54
1823.937	89.87
1828.266	90.54
1832.591	85.87
1836.913	83.88
1841.23	86.21
1845.543	78.21
1849.852	80.54
1854.156	77.54
1858.457	76.88
1862.754	75.21
1867.047	77.87
1871.335	79.21
1875.62	77.88
1879.9	74.21
1884.177	75.87
1888.449	74.21
1892.718	73.87
1896.982	75.87
1901.243	75.88
1905.499	75.54
1909.752	78.21
1914	75.54
1918.245	82.21
1922.485	79.54
1926.722	82.21
1930.954	90.54
1935.183	89.21
1939.408	90.87
1943.628	91.21
1947.845	95.87
1952.058	93.87
1956.267	87.54
1960.472	89.87
1964.673	88.21
1968.87	88.88
1973.063	84.54
1977.252	85.54
1981.438	83.21
1985.619	83.54
1989.797	82.88
1993.971	85.21
1998.14	85.21
2002.306	89.88
2006.469	90.87
2010.627	92.21
2014.781	94.54
2018.932	96.21
2023.078	94.87
2027.221	95.54
2031.36	93.21
2035.495	97.21
2039.627	95.21
2043.754	92.87
2047.878	99.21
2051.998	95.88
2056.114	99.54
2060.226	103.54
2064.334	107.54
2068.439	109.21
2072.54	107.87
2076.637	114.21
2080.73	113.54
2084.82	118.54
2088.906	115.88
2092.988	117.54
2097.066	115.88
2101.14	114.21
2105.211	117.21
2109.278	115.21
2113.342	109.21
2117.401	111.54
2121.457	101.54
2125.509	109.21
2129.558	104.21
2133.602	101.54
2137.643	97.54
2141.681	98.54
2145.714	96.21
2149.744	89.87
2153.77	87.54
2157.793	83.87
2161.812	83.21
2165.827	82.87
2169.838	76.54
2173.846	74.21
2177.851	65.21
2181.851	65.21
2185.848	60.21
2189.841	60.54
2193.831	54.21
2197.817	52.54
2201.799	50.54
2205.778	50.21
2209.753	45.54
2213.725	46.21
2217.693	48.54
2221.657	40.87
2225.618	38.21
2229.575	33.54
2233.529	32.88
2237.479	28.87
2241.425	25.54
2245.368	25.21
2249.307	18.87
2253.243	15.21
2257.175	10.21
2261.104	9.87
2265.029	8.88
2268.95	3.87
2272.868	1.21
2276.783	0.87
2280.694	-3.13
2284.601	-3.46
2288.505	-7.79
2292.405	-12.79
2296.302	-10.79
2300.195	-15.13
2304.085	-18.79
2307.971	-19.46
2311.854	-21.46
2315.734	-21.46
2319.609	-22.46
2323.482	-25.12
2327.351	-28.46
2331.216	-25.79
2335.078	-26.12
2338.937	-30.46
2342.792	-32.46
2346.643	-33.46
2350.492	-35.13
2354.336	-35.79
2358.178	-32.79
2362.015	-37.12
2365.85	-35.79
2369.681	-37.12
2373.508	-36.79
2377.333	-39.79
2381.153	-37.13
2384.971	-39.46
2388.785	-41.79
2392.595	-37.46
2396.402	-40.79
2400.206	-43.79
2404.007	-45.46
2407.804	-44.79
2411.597	-43.79
2415.388	-46.79
2419.174	-47.12
2422.958	-48.46
2426.738	-47.79
2430.515	-49.12
2434.289	-51.79
2438.059	-52.12
2441.825	-49.79
2445.589	-50.79
2449.349	-50.12
2453.106	-49.79
2456.859	-53.46
2460.61	-55.13
2464.356	-52.79
2468.1	-54.13
2471.84	-54.12
2475.577	-57.46
2479.311	-53.13
2483.041	-57.13
2486.768	-54.79
2490.492	-57.79
2494.213	-58.79
2497.93	-57.79
2501.644	-56.12
2505.355	-56.13
2509.062	-57.46
2512.766	-59.12
2516.467	-58.79
2520.165	-56.13
2523.859	-59.13
2527.551	-59.79
2531.239	-58.79
2534.923	-58.13
2538.605	-60.46
2542.283	-60.13
2545.958	-59.46
2549.63	-62.13
2553.299	-60.46
2556.964	-60.79
2560.626	-61.12
2564.285	-62.13
2567.941	-62.46
2571.594	-62.79
2575.243	-62.12
2578.89	-66.46
2582.533	-63.12
2586.173	-65.79
2589.809	-66.13
2593.443	-65.79
2597.073	-64.79
2600.701	-66.79
2604.325	-67.79
2607.946	-66.79
2611.564	-69.12
2615.178	-68.46
2618.79	-68.13
2622.398	-68.46
2626.004	-66.46
2629.606	-66.13
2633.205	-68.79
2636.801	-66.79
2640.394	-65.79
2643.983	-67.79
2647.57	-68.13
2651.153	-68.12
2654.734	-67.46
2658.311	-67.79
2661.885	-66.79
2665.456	-66.46
2669.025	-65.46
2672.589	-66.13
2676.151	-67.13
2679.71	-67.79
2683.266	-67.79
2686.819	-66.46
2690.368	-67.46
2693.915	-69.79
2697.458	-68.79
2700.999	-66.79
2704.536	-67.13
2708.071	-66.46
2711.602	-67.46
2715.13	-67.46
2718.656	-65.13
2722.178	-64.46
2725.697	-63.13
2729.214	-64.13
2732.727	-60.46
2736.237	-60.13
2739.744	-58.79
2743.249	-55.79
2746.75	-58.46
2750.248	-57.13
2753.743	-55.46
2757.236	-52.46
2760.725	-53.12
2764.211	-51.46
2767.695	-49.79
2771.175	-49.13
2774.652	-50.46
2778.127	-46.79
2781.598	-47.12
2785.067	-44.79
2788.532	-44.79
2791.995	-43.79
2795.455	-44.79
2798.911	-43.12
2802.365	-43.12
2805.816	-37.46
2809.264	-38.46
2812.709	-33.46
2816.151	-33.46
2819.59	-34.13
2823.026	-30.79
2826.46	-29.79
2829.89	-26.12
2833.318	-23.46
2836.742	-22.13
2840.164	-17.13
2843.583	-18.79
2846.999	-15.12
2850.412	-12.46
2853.822	-10.13
2857.229	-8.46
2860.634	-1.79
2864.035	3.21
2867.434	7.54
2870.83	9.21
2874.223	14.88
2877.613	15.54
2881	22.21
2884.385	25.21
2887.766	26.21
2891.145	26.54
2894.521	33.54
2897.894	32.21
2901.264	37.54
2904.631	34.87
2907.996	42.21
2911.358	44.54
2914.717	51.87
2918.073	49.54
2921.426	57.21
2924.777	59.87
2928.124	67.87
2931.469	75.21
2934.811	77.54
2938.15	84.87
2941.487	87.54
2944.821	94.54
2948.152	102.54
2951.48	103.87
2954.805	114.21
2958.128	115.54
2961.447	122.54
2964.765	128.87
2968.079	134.21
2971.39	145.21
2974.699	154.54
2978.005	159.88
2981.308	171.88
2984.609	183.88
2987.907	192.54
2991.202	202.21
2994.494	209.88
2997.784	220.21
3001.07	230.21
3004.355	239.54
3007.636	250.54
3010.915	263.54
3014.191	269.87
3017.464	277.21
3020.734	283.54
3024.002	295.21
3027.267	303.54
3030.53	316.87
3033.789	321.54
3037.046	340.54
3040.301	347.87
3043.552	364.88
3046.801	374.88
3050.048	389.87
3053.291	406.21
3056.532	431.21
3059.771	448.88
3063.006	464.54
3066.239	486.54
3069.469	498.87
3072.697	514.87
3075.922	536.54
3079.144	555.87
3082.364	578.54
3085.581	588.54
3088.795	612.54
3092.007	631.21
3095.216	646.54
3098.423	669.21
3101.627	690.21
3104.828	712.21
3108.026	730.21
3111.222	749.54
3114.416	769.54
3117.607	792.21
3120.795	817.21
3123.98	842.54
3127.163	863.54
3130.344	888.21
3133.521	911.21
3136.696	930.88
3139.869	946.21
3143.039	962.87
3146.206	986.54
3149.371	1002.54
3152.533	1012.54
3155.693	1021.87
3158.85	1040.21
3162.005	1041.54
3165.157	1047.21
3168.306	1062.21
3171.453	1058.21
3174.597	1063.21
3177.739	1071.54
3180.878	1075.21
3184.014	1072.54
3187.149	1078.54
3190.28	1089.87
3193.409	1098.54
3196.536	1103.21
3199.659	1104.87
3202.781	1108.21
3205.9	1118.88
3209.016	1107.21
3212.13	1112.88
3215.241	1103.54
3218.35	1096.21
3221.456	1095.54
3224.56	1091.54
3227.661	1085.21
3230.76	1076.54
3233.856	1068.54
3236.95	1061.21
3240.041	1049.87
3243.13	1049.54
3246.216	1036.54
3249.3	1029.87
3252.382	1032.21
3255.46	1028.21
3258.537	1020.88
3261.611	1031.54
3264.682	1018.87
3267.751	1020.54
3270.818	1018.21
3273.882	1010.54
3276.943	1000.54
3280.002	990.54
3283.059	987.54
3286.113	974.87
3289.165	957.54
3292.214	941.88
3295.261	928.87
3298.306	910.21
3301.348	897.54
3304.387	880.54
3307.425	864.87
3310.459	857.88
3313.492	849.21
3316.521	843.88
3319.549	835.21
3322.574	822.21
3325.597	813.21
3328.617	814.54
3331.635	808.54
3334.65	800.21
3337.663	808.87
3340.674	798.54
3343.682	796.87
3346.688	797.21
3349.691	795.54
3352.692	790.54
3355.691	785.21
3358.687	781.21
3361.681	769.21
3364.673	756.87
3367.662	751.21
3370.649	740.87
3373.633	732.87
3376.615	727.87
3379.595	711.54
3382.572	715.87
3385.547	709.21
3388.52	687.21
3391.49	685.54
3394.458	676.54
3397.424	665.21
3400.387	663.21
3403.348	651.21
3406.307	648.54
3409.263	640.87
3412.217	629.54
3415.168	624.21
3418.118	619.54
3421.065	606.54
3424.009	607.54
3426.951	596.88
3429.891	593.54
3432.829	584.21
3435.764	566.21
3438.697	557.54
3441.628	542.87
3444.557	528.87
3447.483	518.54
3450.407	504.21
3453.328	487.21
3456.247	476.21
3459.164	466.21
3462.079	450.87
3464.991	432.21
3467.902	422.87
3470.809	410.88
3473.715	392.21
3476.618	386.21
3479.519	372.21
3482.418	360.54
3485.315	353.88
3488.209	348.87
3491.101	330.88
3493.99	320.21
3496.878	315.21
3499.763	303.54
3502.646	292.21
3505.527	288.54
3508.405	276.21
3511.281	261.87
3514.155	246.21
3517.027	238.54
3519.897	224.54
3522.764	217.54
3525.629	203.54
3528.492	193.54
3531.352	182.87
3534.211	169.21
3537.067	156.54
3539.921	151.88
3542.773	143.21
3545.622	134.21
3548.469	125.54
3551.315	113.54
3554.157	109.21
3556.998	101.21
3559.837	95.54
3562.673	88.54
3565.507	81.54
3568.339	75.54
3571.169	72.54
3573.996	60.88
3576.822	62.54
3579.645	54.54
3582.466	46.87
3585.285	40.54
3588.101	32.21
3590.916	30.54
3593.728	25.54
3596.538	18.87
3599.346	13.87
3602.152	8.87
3604.956	2.87
3607.757	0.88
3610.556	-1.79
3613.354	-5.46
3616.149	-9.79
3618.942	-17.46
3621.732	-16.46
3624.521	-21.46
3627.307	-24.79
3630.092	-28.79
3632.874	-31.46
3635.654	-31.46
3638.432	-34.46
3641.208	-40.46
3643.982	-38.13
3646.753	-45.13
3649.523	-44.13
3652.29	-46.79
3655.055	-50.46
3657.818	-54.13
3660.579	-58.79
3663.338	-57.79
3666.095	-62.12
3668.849	-63.13
3671.602	-67.79
3674.352	-67.79
3677.101	-67.46
3679.847	-70.46
3682.591	-72.46
3685.333	-75.79
3688.073	-76.13
3690.811	-78.13
3693.547	-80.79
3696.281	-80.12
3699.013	-83.46
3701.742	-82.79
3704.47	-84.13
3707.195	-85.79
3709.919	-85.13
3712.64	-86.13
3715.359	-86.13
3718.076	-88.46
3720.792	-88.13
3723.505	-91.12
3726.216	-90.13
3728.925	-92.46
3731.632	-93.13
3734.336	-93.79
3737.039	-94.46
3739.74	-95.12
3742.439	-94.46
3745.136	-95.79
3747.83	-96.13
3750.523	-97.46
3753.213	-96.46
3755.902	-98.79
3758.589	-98.12
3761.273	-97.79
3763.956	-100.79
3766.636	-100.12
3769.315	-100.79
3771.991	-101.79
3774.665	-102.13
3777.338	-102.79
3780.008	-101.79
3782.677	-101.46
3785.343	-102.79
3788.007	-104.79
3790.67	-105.13
3793.33	-104.79
3795.989	-103.46
3798.645	-103.79
3801.299	-102.79
3803.952	-104.46
3806.602	-103.79
3809.251	-104.79
3811.897	-104.13
3814.542	-106.13
3817.184	-104.13
3819.825	-104.79
3822.463	-106.79
3825.1	-104.79
3827.735	-106.13
3830.367	-105.46
3832.998	-106.79
3835.627	-108.46
3838.253	-107.13
3840.878	-108.79
3843.501	-108.12
3846.122	-110.12
3848.741	-107.79
3851.358	-109.13
3853.973	-111.46
3856.586	-108.79
3859.197	-107.79
3861.806	-109.13
3864.414	-110.46
3867.019	-109.46
3869.622	-109.79
3872.224	-107.79
3874.823	-103.13
3877.421	-100.46
3880.016	-97.12
3882.61	-89.79
3885.202	-88.12
3887.792	-90.13
3890.38	-98.13
3892.966	-101.46
3895.55	-105.46
3898.132	-107.13
3900.713	-107.79
3903.291	-107.12
3905.868	-108.79
3908.442	-108.12
3911.015	-108.13
3913.586	-110.12
3916.155	-109.79
3918.722	-109.13
3921.287	-108.79
3923.85	-109.79
3926.411	-110.46
3928.971	-110.12
3931.528	-110.79
3934.084	-112.46
3936.638	-110.12
3939.19	-110.13
3941.74	-109.79
3944.288	-112.46
3946.834	-110.46
3949.378	-109.79
3951.921	-111.13
3954.462	-110.79
3957	-107.79
3959.537	-109.79
3962.072	-109.13
3964.606	-108.12
3967.137	-108.13
3969.667	-108.79
3972.194	-108.46
3974.72	-96.13
3977.244	-105.12
3979.766	-105.79
3982.286	-108.12
3984.805	-107.12
3987.321	-108.46
3989.836	-107.79
3992.349	-109.13
3994.86	-107.46
3997.369	-104.79
3999.877	-108.13
4002.382	-109.12
4004.886	-109.79
4007.388	-108.12
4009.888	-110.12
4012.386	-111.12
4014.883	-110.46
4017.377	-111.79
4019.87	-111.79
4022.361	-109.79
4024.85	-108.79
4027.338	-111.12
4029.823	-111.12
4032.307	-111.46
4034.789	-110.12
4037.269	-110.46
4039.747	-109.79
4042.224	-111.46
4044.699	-109.79
4047.172	-110.13
4049.643	-110.46
4052.112	-110.13
4054.58	-108.46
4057.046	-109.79
4059.51	-108.46
4061.972	-110.79
4064.432	-108.79
4066.891	-109.13
4069.348	-106.46
4071.803	-107.46
4074.256	-109.13
4076.708	-109.13
4079.158	-106.12
4081.606	-108.13
4084.052	-106.79
4086.497	-108.46
4088.939	-109.79
4091.38	-109.46
4093.819	-108.12
4096.257	-111.79
4098.693	-111.46
4101.127	-113.46
4103.559	-111.79
4105.989	-66.46
4108.418	-62.46
4110.845	-62.46
4113.27	-57.79
4115.694	-50.13
4118.115	-43.13
4120.535	-109.79
4122.954	-109.46
4125.37	-108.79
4127.785	-108.12
4130.198	-111.12
4132.609	-108.13
4135.019	-113.79
4137.427	-112.46
4139.833	-113.79
4142.237	-112.46
