160.701	-32.83
166.742	-0.83
172.777	94.17
178.805	386.5
184.826	1085.17
190.841	2267.5
196.849	3596.83
202.85	4481.17
208.845	4661.17
214.833	4482.17
220.815	4301.17
226.789	4137.83
232.758	4007.17
238.719	3847.17
244.674	3666.17
250.623	3509.17
256.565	3324.17
262.5	3161.17
268.429	2967.17
274.351	2842.5
280.267	2709.17
286.176	2589.17
292.079	2497.5
297.975	2400.5
303.865	2338.17
309.748	2246.83
315.625	2199.5
321.495	2145.5
327.359	2110.5
333.217	2086.83
339.068	2069.17
344.912	2057.5
350.751	2038.83
356.583	2046.83
362.408	2040.83
368.227	2050.17
374.04	2067.83
379.847	2077.83
385.647	2099.83
391.44	2091.5
397.228	2095.17
403.009	2087.83
408.784	2136.83
414.553	2194.5
420.315	2273.83
426.071	2266.17
431.821	2190.83
437.565	2108.5
443.302	2077.5
449.033	2057.17
454.758	2053.17
460.477	2027.83
466.189	2012.83
471.896	1990.17
477.596	1989.17
483.29	1963.17
488.978	1946.5
494.66	1924.83
500.335	1899.17
506.005	1859.5
511.668	1808.5
517.325	1779.83
522.977	1748.17
528.622	1708.17
534.261	1682.5
539.894	1661.83
545.521	1644.17
551.141	1636.5
556.756	1616.83
562.365	1598.83
567.968	1577.17
573.565	1562.17
579.155	1537.5
584.74	1531.17
590.319	1510.83
595.892	1501.17
601.459	1490.17
607.02	1464.83
612.575	1439.5
618.124	1421.17
623.667	1405.17
629.204	1393.5
634.735	1382.5
640.261	1392.83
645.781	1409.5
651.294	1401.5
656.802	1383.17
662.304	1340.83
667.8	1311.17
673.29	1295.17
678.775	1280.83
684.254	1279.83
689.726	1264.83
695.193	1250.17
700.655	1233.5
706.11	1215.17
711.56	1203.83
717.004	1185.5
722.442	1168.5
727.874	1161.17
733.301	1154.5
738.722	1144.5
744.137	1146.5
749.547	1138.83
754.951	1131.83
760.349	1128.83
765.741	1111.17
771.128	1096.17
776.509	1097.5
781.885	1085.17
787.254	1076.5
792.618	1064.5
797.977	1049.5
803.33	1043.5
808.677	1021.17
814.019	1011.83
819.355	988.83
824.686	965.5
830.011	958.5
835.33	946.5
840.644	937.5
845.952	924.83
851.255	908.5
856.552	897.17
861.844	883.83
867.13	870.83
872.41	859.17
877.686	860.17
882.955	840.83
888.219	814.5
893.478	796.17
898.731	766.17
903.979	750.83
909.221	731.5
914.458	720.17
919.69	710.17
924.916	701.83
930.136	690.5
935.351	691.5
940.561	681.17
945.766	677.83
950.965	665.83
956.158	650.17
961.347	639.5
966.529	630.17
971.707	615.17
976.879	600.5
982.046	593.17
987.208	587.17
992.364	588.5
997.515	586.5
1002.66	586.83
1007.801	584.83
1012.936	588.5
1018.066	594.17
1023.19	589.5
1028.309	594.5
1033.423	596.17
1038.532	590.83
1043.636	576.5
1048.734	574.5
1053.827	562.17
1058.915	560.17
1063.998	552.83
1069.075	545.5
1074.147	540.17
1079.214	548.5
1084.276	550.17
1089.333	549.5
1094.385	550.5
1099.431	554.17
1104.472	545.83
1109.509	537.5
1114.54	532.5
1119.565	522.83
1124.586	516.83
1129.602	508.83
1134.613	502.83
1139.618	506.83
1144.619	495.83
1149.614	506.5
1154.604	505.5
1159.589	508.5
1164.57	504.5
1169.545	507.17
1174.515	503.5
1179.48	498.5
1184.44	495.83
1189.395	488.83
1194.345	486.83
1199.29	482.17
1204.23	480.17
1209.165	485.83
1214.095	488.5
1219.021	491.17
1223.941	490.17
1228.856	500.5
1233.766	492.5
1238.672	498.83
1243.572	496.17
1248.467	486.83
1253.358	477.5
1258.244	466.5
1263.124	459.17
1268	446.83
1272.871	447.83
1277.737	441.17
1282.599	437.17
1287.455	436.17
1292.306	440.5
1297.153	439.83
1301.995	441.83
1306.832	436.17
1311.664	444.17
1316.491	434.17
1321.314	434.83
1326.132	429.83
1330.945	420.83
1335.753	405.83
1340.556	396.83
1345.354	393.83
1350.148	382.17
1354.937	389.17
1359.722	378.17
1364.501	374.83
1369.276	373.83
1374.046	382.5
1378.811	378.83
1383.572	381.17
1388.327	371.83
1393.079	368.17
1397.825	356.83
1402.567	352.17
1407.304	352.5
1412.036	345.83
1416.764	344.17
1421.487	341.83
1426.205	349.17
1430.919	348.17
1435.628	354.5
1440.333	357.5
1445.032	358.5
1449.727	358.17
1454.418	365.5
1459.104	362.5
1463.785	355.5
1468.462	357.83
1473.134	353.17
1477.802	346.17
1482.465	341.83
1487.123	346.5
1491.777	352.17
1496.426	356.5
1501.071	364.5
1505.711	370.5
1510.347	378.83
1514.978	391.5
1519.604	384.83
1524.226	397.5
1528.844	395.83
1533.457	399.5
1538.065	403.17
1542.669	406.83
1547.269	412.83
1551.864	409.5
1556.454	424.17
1561.041	429.17
1565.622	433.17
1570.199	457.17
1574.772	474.83
1579.34	490.5
1583.904	516.83
1588.464	524.17
1593.019	542.5
1597.569	563.83
1602.115	582.5
1606.657	606.5
1611.195	619.5
1615.728	641.83
1620.256	657.17
1624.78	687.83
1629.3	704.5
1633.816	722.17
1638.327	734.17
1642.834	749.83
1647.336	750.17
1651.834	748.5
1656.328	747.83
1660.817	730.17
1665.302	702.83
1669.783	676.83
1674.259	648.17
1678.732	613.17
1683.199	579.83
1687.663	534.17
1692.122	496.17
1696.577	467.17
1701.028	434.17
1705.474	407.83
1709.917	379.5
1714.355	354.5
1718.788	329.5
1723.218	307.17
1727.643	288.17
1732.064	267.83
1736.481	249.83
1740.893	231.83
1745.301	213.5
1749.705	196.17
1754.105	184.83
1758.501	167.17
1762.893	157.83
1767.28	146.83
1771.663	145.17
1776.042	133.17
1780.417	125.83
1784.787	121.17
1789.154	122.5
1793.516	117.83
1797.874	114.5
1802.228	113.83
1806.578	107.5
1810.924	103.17
1815.266	93.5
1819.603	96.5
1823.937	90.83
1828.266	86.83
1832.591	83.17
1836.913	83.5
1841.23	78.83
1845.543	77.17
1849.852	78.83
1854.156	76.17
1858.457	77.17
1862.754	77.17
1867.047	79.17
1871.335	74.83
1875.62	74.83
1879.9	77.83
1884.177	76.17
1888.449	77.17
1892.718	73.83
1896.982	77.17
1901.243	78.17
1905.499	74.17
1909.752	75.17
1914	74.83
1918.245	80.83
1922.485	75.83
1926.722	78.83
1930.954	88.17
1935.183	87.17
1939.408	86.83
1943.628	90.5
1947.845	86.83
1952.058	89.5
1956.267	89.83
1960.472	87.17
1964.673	83.17
1968.87	85.83
1973.063	82.5
1977.252	81.5
1981.438	81.17
1985.619	82.17
1989.797	80.5
1993.971	84.5
1998.14	84.5
2002.306	85.17
2006.469	85.17
2010.627	88.17
2014.781	94.17
2018.932	93.83
2023.078	95.17
2027.221	95.17
2031.36	91.5
2035.495	95.17
2039.627	93.5
2043.754	96.17
2047.878	93.17
2051.998	96.5
2056.114	97.83
2060.226	99.17
2064.334	100.83
2068.439	101.5
2072.54	106.17
2076.637	105.83
2080.73	112.17
2084.82	111.17
2088.906	114.5
2092.988	112.5
2097.066	113.83
2101.14	113.17
2105.211	110.83
2109.278	107.83
2113.342	106.83
2117.401	106.5
2121.457	102.5
2125.509	106.5
2129.558	103.17
2133.602	101.17
2137.643	97.83
2141.681	96.17
2145.714	92.17
2149.744	89.17
2153.77	85.5
2157.793	84.5
2161.812	81.5
2165.827	78.83
2169.838	75.5
2173.846	71.83
2177.851	61.83
2181.851	62.5
2185.848	59.17
2189.841	53.5
2193.831	53.17
2197.817	47.17
2201.799	46.83
2205.778	48.17
2209.753	44.17
2213.725	43.83
2217.693	41.5
2221.657	42.17
2225.618	37.83
2229.575	34.17
2233.529	28.5
2237.479	30.17
2241.425	27.5
2245.368	21.17
2249.307	17.5
2253.243	17.17
2257.175	8.83
2261.104	10.5
2265.029	6.5
2268.95	3.17
2272.868	2.5
2276.783	-1.5
2280.694	-2.5
2284.601	-8.17
2288.505	-8.5
2292.405	-10.83
2296.302	-11.5
2300.195	-15.17
2304.085	-17.5
2307.971	-18.5
2311.854	-19.5
2315.734	-20.5
2319.609	-23.5
2323.482	-23.17
2327.351	-27.5
2331.216	-24.5
2335.078	-27.83
2338.937	-30.5
2342.792	-30.5
2346.643	-37.17
2350.492	-35.5
2354.336	-37.17
2358.178	-39.83
2362.015	-35.5
2365.85	-37.17
2369.681	-38.5
2373.508	-37.17
2377.333	-42.17
2381.153	-36.17
2384.971	-38.17
2388.785	-40.83
2392.595	-40.83
2396.402	-40.83
2400.206	-39.83
2404.007	-44.17
2407.804	-43.83
2411.597	-43.5
2415.388	-43.83
2419.174	-45.17
2422.958	-46.5
2426.738	-45.83
2430.515	-47.83
2434.289	-49.5
2438.059	-52.5
2441.825	-51.17
2445.589	-49.17
2449.349	-54.5
2453.106	-51.83
2456.859	-51.17
2460.61	-52.83
2464.356	-54.5
2468.1	-53.83
2471.84	-54.83
2475.577	-55.83
2479.311	-54.17
2483.041	-53.83
2486.768	-56.17
2490.492	-54.83
2494.213	-55.83
2497.93	-55.17
2501.644	-56.83
2505.355	-56.5
2509.062	-56.5
2512.766	-57.17
2516.467	-57.83
2520.165	-56.17
2523.859	-59.5
2527.551	-59.5
2531.239	-60.83
2534.923	-60.17
2538.605	-61.17
2542.283	-58.5
2545.958	-60.5
2549.63	-60.17
2553.299	-59.83
2556.964	-63.83
2560.626	-61.83
2564.285	-61.17
2567.941	-60.83
2571.594	-62.17
2575.243	-62.17
2578.89	-66.83
2582.533	-63.17
2586.173	-63.5
2589.809	-65.83
2593.443	-64.5
2597.073	-65.17
2600.701	-66.17
2604.325	-68.5
2607.946	-66.83
2611.564	-68.5
2615.178	-64.5
2618.79	-69.17
2622.398	-69.5
2626.004	-67.83
2629.606	-66.83
2633.205	-65.83
2636.801	-69.83
2640.394	-66.17
2643.983	-66.5
2647.57	-67.5
2651.153	-66.17
2654.734	-66.5
2658.311	-63.83
2661.885	-68.17
2665.456	-65.83
2669.025	-66.17
2672.589	-67.17
2676.151	-67.17
2679.71	-67.83
2683.266	-69.5
2686.819	-67.17
2690.368	-66.5
2693.915	-69.5
2697.458	-67.83
2700.999	-64.5
2704.536	-63.83
2708.071	-64.5
2711.602	-65.83
2715.13	-64.5
2718.656	-64.5
2722.178	-63.17
2725.697	-61.5
2729.214	-61.83
2732.727	-60.5
2736.237	-57.83
2739.744	-57.83
2743.249	-55.5
2746.75	-56.5
2750.248	-56.17
2753.743	-52.83
2757.236	-55.5
2760.725	-53.17
2764.211	-54.5
2767.695	-53.17
2771.175	-50.83
2774.652	-52.83
2778.127	-48.83
2781.598	-50.5
2785.067	-47.83
2788.532	-47.17
2791.995	-44.17
2795.455	-45.5
2798.911	-39.5
2802.365	-38.83
2805.816	-36.83
2809.264	-37.83
2812.709	-33.17
2816.151	-30.83
2819.59	-29.83
2823.026	-30.5
2826.46	-27.5
2829.89	-29.83
2833.318	-22.83
2836.742	-20.5
2840.164	-18.5
2843.583	-16.5
2846.999	-14.17
2850.412	-14.17
2853.822	-11.5
2857.229	-12.17
2860.634	-5.5
2864.035	-1.5
2867.434	4.5
2870.83	8.5
2874.223	14.83
2877.613	14.83
2881	17.17
2884.385	18.17
2887.766	22.5
2891.145	24.83
2894.521	31.17
2897.894	30.83
2901.264	35.83
2904.631	37.5
2907.996	38.5
2911.358	43.5
2914.717	46.5
2918.073	49.17
2921.426	55.83
2924.777	61.83
2928.124	64.17
2931.469	70.83
2934.811	74.5
2938.15	81.83
2941.487	89.17
2944.821	91.17
2948.152	95.83
2951.48	103.17
2954.805	100.83
2958.128	111.5
2961.447	117.5
2964.765	118.83
2968.079	124.83
2971.39	136.17
2974.699	145.17
2978.005	155.5
2981.308	161.17
2984.609	169.83
2987.907	180.83
2991.202	195.5
2994.494	199.17
2997.784	209.83
3001.07	222.83
3004.355	231.17
3007.636	239.5
3010.915	246.5
3014.191	253.17
3017.464	268.5
3020.734	272.83
3024.002	285.5
3027.267	295.17
3030.53	307.17
3033.789	310.5
3037.046	320.83
3040.301	334.17
3043.552	346.17
3046.801	360.83
3050.048	370.5
3053.291	393.17
3056.532	400.5
3059.771	416.83
3063.006	440.83
3066.239	457.83
3069.469	475.83
3072.697	493.17
3075.922	508.5
3079.144	531.17
3082.364	548.83
3085.581	572.83
3088.795	579.5
3092.007	600.83
3095.216	615.17
3098.423	640.17
3101.627	659.17
3104.828	676.17
3108.026	695.83
3111.222	712.83
3114.416	739.17
3117.607	755.5
3120.795	782.17
3123.98	796.17
3127.163	822.17
3130.344	843.5
3133.521	867.83
3136.696	881.17
3139.869	911.83
3143.039	928.17
3146.206	943.83
3149.371	969.83
3152.533	966.83
3155.693	984.5
3158.85	983.83
3162.005	995.17
3165.157	998.5
3168.306	1004.17
3171.453	1013.83
3174.597	1015.17
3177.739	1024.17
3180.878	1028.83
3184.014	1035.5
3187.149	1040.83
3190.28	1046.17
3193.409	1048.83
3196.536	1041.5
3199.659	1053.83
3202.781	1062.5
3205.9	1066.17
3209.016	1062.83
3212.13	1067.17
3215.241	1067.5
3218.35	1064.83
3221.456	1057.5
3224.56	1044.83
3227.661	1046.17
3230.76	1035.5
3233.856	1030.83
3236.95	1016.5
3240.041	1013.83
3243.13	1011.83
3246.216	1000.5
3249.3	1000.83
3252.382	990.83
3255.46	992.5
3258.537	995.5
3261.611	983.5
3264.682	978.83
3267.751	975.5
3270.818	974.83
3273.882	963.17
3276.943	958.83
3280.002	961.5
3283.059	943.83
3286.113	931.17
3289.165	918.5
3292.214	906.83
3295.261	887.17
3298.306	885.5
3301.348	865.83
3304.387	855.83
3307.425	846.83
3310.459	832.83
3313.492	813.83
3316.521	805.5
3319.549	798.83
3322.574	790.17
3325.597	796.83
3328.617	781.83
3331.635	779.5
3334.65	774.5
3337.663	777.83
3340.674	768.83
3343.682	769.83
3346.688	763.17
3349.691	767.17
3352.692	760.83
3355.691	758.83
3358.687	750.17
3361.681	752.17
3364.673	733.5
3367.662	727.83
3370.649	722.17
3373.633	717.5
3376.615	696.5
3379.595	692.5
3382.572	686.83
3385.547	679.83
3388.52	669.5
3391.49	654.5
3394.458	648.5
3397.424	645.17
3400.387	634.83
3403.348	627.17
3406.307	619.17
3409.263	611.83
3412.217	609.83
3415.168	599.17
3418.118	599.83
3421.065	587.83
3424.009	579.83
3426.951	579.83
3429.891	567.83
3432.829	556.17
3435.764	553.5
3438.697	538.83
3441.628	529.5
3444.557	510.17
3447.483	487.83
3450.407	481.17
3453.328	474.17
3456.247	446.83
3459.164	438.17
3462.079	430.5
3464.991	418.5
3467.902	399.83
3470.809	392.5
3473.715	377.17
3476.618	366.83
3479.519	357.5
3482.418	349.17
3485.315	336.83
3488.209	327.17
3491.101	318.17
3493.99	308.83
3496.878	299.5
3499.763	288.17
3502.646	280.83
3505.527	268.83
3508.405	261.17
3511.281	248.17
3514.155	239.17
3517.027	226.17
3519.897	213.83
3522.764	209.17
3525.629	188.17
3528.492	186.17
3531.352	171.17
3534.211	162.5
3537.067	151.5
3539.921	142.5
3542.773	136.17
3545.622	125.5
3548.469	116.5
3551.315	106.5
3554.157	97.5
3556.998	93.17
3559.837	90.5
3562.673	81.17
3565.507	69.83
3568.339	66.83
3571.169	62.83
3573.996	55.5
3576.822	53.5
3579.645	45.17
3582.466	39.83
3585.285	34.83
3588.101	28.5
3590.916	27.5
3593.728	16.17
3596.538	12.17
3599.346	9.17
3602.152	4.17
3604.956	0.17
3607.757	0.17
3610.556	-4.83
3613.354	-9.83
3616.149	-15.83
3618.942	-18.17
3621.732	-20.5
3624.521	-21.5
3627.307	-28.17
3630.092	-36.17
3632.874	-33.17
3635.654	-33.83
3638.432	-38.83
3641.208	-39.83
3643.982	-43.83
3646.753	-46.5
3649.523	-47.17
3652.29	-49.5
3655.055	-52.17
3657.818	-56.5
3660.579	-60.17
3663.338	-58.5
3666.095	-64.17
3668.849	-64.17
3671.602	-70.83
3674.352	-66.17
3677.101	-67.17
3679.847	-73.83
3682.591	-74.17
3685.333	-74.17
3688.073	-77.83
3690.811	-77.83
3693.547	-79.5
3696.281	-81.5
3699.013	-83.83
3701.742	-83.17
3704.47	-86.17
3707.195	-87.17
3709.919	-86.17
3712.64	-85.17
3715.359	-87.83
3718.076	-89.17
3720.792	-89.17
3723.505	-91.17
3726.216	-93.17
3728.925	-91.17
3731.632	-93.83
3734.336	-93.5
3737.039	-94.5
3739.74	-96.83
3742.439	-94.5
3745.136	-95.5
3747.83	-98.83
3750.523	-96.5
3753.213	-99.83
3755.902	-96.17
3758.589	-98.5
3761.273	-97.83
3763.956	-100.83
3766.636	-100.17
3769.315	-101.5
3771.991	-100.17
3774.665	-101.83
3777.338	-100.5
3780.008	-99.83
3782.677	-101.17
3785.343	-101.17
3788.007	-102.17
3790.67	-104.83
3793.33	-103.5
3795.989	-103.17
3798.645	-104.17
3801.299	-103.17
3803.952	-103.17
3806.602	-106.5
3809.251	-105.17
3811.897	-105.83
3814.542	-107.83
3817.184	-105.83
3819.825	-106.5
3822.463	-107.83
3825.1	-107.17
3827.735	-107.83
3830.367	-107.17
3832.998	-106.83
3835.627	-107.5
3838.253	-106.83
3840.878	-107.5
3843.501	-107.5
3846.122	-107.5
3848.741	-108.83
3851.358	-107.17
3853.973	-109.5
3856.586	-107.5
3859.197	-107.5
3861.806	-107.5
3864.414	-111.17
3867.019	-110.17
3869.622	-108.17
3872.224	-106.83
3874.823	-103.83
3877.421	-103.5
3880.016	-98.5
3882.61	-94.17
3885.202	-92.17
3887.792	-91.83
3890.38	-98.5
3892.966	-102.83
3895.55	-105.5
3898.132	-106.5
3900.713	-107.17
3903.291	-109.17
3905.868	-107.83
3908.442	-107.83
3911.015	-109.5
3913.586	-109.5
3916.155	-109.5
3918.722	-108.5
3921.287	-108.83
3923.85	-109.83
3926.411	-109.83
3928.971	-108.83
3931.528	-110.5
3934.084	-109.5
3936.638	-110.5
3939.19	-110.17
3941.74	-110.5
3944.288	-110.17
3946.834	-111.17
3949.378	-107.5
3951.921	-108.83
3954.462	-108.17
3957	-107.83
3959.537	-107.5
3962.072	-109.5
3964.606	-108.5
3967.137	-109.17
3969.667	-107.83
3972.194	-110.17
3974.72	-107.5
3977.244	-107.5
3979.766	-106.5
3982.286	-108.5
3984.805	-108.83
3987.321	-108.17
3989.836	-108.83
3992.349	-110.83
3994.86	-108.5
3997.369	-105.83
3999.877	-109.17
4002.382	-110.17
4004.886	-107.83
4007.388	-109.17
4009.888	-107.5
4012.386	-109.5
4014.883	-108.17
4017.377	-109.5
4019.87	-110.5
4022.361	-107.17
4024.85	-107.5
4027.338	-109.5
4029.823	-110.83
4032.307	-107.83
4034.789	-109.5
4037.269	-110.17
4039.747	-111.83
4042.224	-112.17
4044.699	-109.83
4047.172	-112.17
4049.643	-110.17
4052.112	-108.5
4054.58	-107.83
4057.046	-110.83
4059.51	-109.17
4061.972	-109.17
4064.432	-107.17
4066.891	-109.17
4069.348	-107.5
4071.803	-107.5
4074.256	-108.83
4076.708	-109.83
4079.158	-106.5
4081.606	-106.17
4084.052	-107.5
4086.497	-108.5
4088.939	-109.5
4091.38	-108.83
4093.819	-109.17
4096.257	-110.83
4098.693	-109.5
4101.127	-109.5
4103.559	-110.83
4105.989	-67.83
4108.418	-65.17
4110.845	-63.5
4113.27	-57.83
4115.694	-52.5
4118.115	-42.83
4120.535	-110.83
4122.954	-110.17
4125.37	-108.17
4127.785	-108.17
4130.198	-110.83
4132.609	-109.5
4135.019	-111.5
4137.427	-111.83
4139.833	-111.17
4142.237	-112.5
