160.701	-6.38
166.742	0.96
172.777	23.62
178.805	92.96
184.826	251.29
190.841	506.29
196.849	799.62
202.85	980.62
208.845	1029.62
214.833	1001.96
220.815	965.62
226.789	940.96
232.758	926.62
238.719	909.29
244.674	879.96
250.623	846.96
256.565	814.62
262.5	781.29
268.429	758.96
274.351	737.96
280.267	713.29
286.176	701.62
292.079	680.62
297.975	673.29
303.865	660.29
309.748	642.96
315.625	630.96
321.495	634.96
327.359	625.29
333.217	625.62
339.068	619.96
344.912	627.29
350.751	625.29
356.583	621.62
362.408	620.29
368.227	633.62
374.04	648.96
379.847	654.62
385.647	670.96
391.44	661.96
397.228	655.96
403.009	659.29
408.784	685.29
414.553	737.62
420.315	786.62
426.071	796.96
431.821	726.96
437.565	681.29
443.302	665.96
449.033	655.29
454.758	648.62
460.477	639.96
466.189	630.62
471.896	626.29
477.596	621.96
483.29	617.96
488.978	606.96
494.66	610.29
500.335	590.96
506.005	566.62
511.668	541.96
517.325	523.62
522.977	506.29
528.622	490.62
534.261	481.29
539.894	471.96
545.521	463.62
551.141	462.96
556.756	461.62
562.365	456.29
567.968	441.62
573.565	444.62
579.155	445.96
584.74	439.96
590.319	440.29
595.892	435.96
601.459	426.29
607.02	425.62
612.575	425.29
618.124	413.96
623.667	408.96
629.204	408.62
634.735	411.96
640.261	425.62
645.781	437.29
651.294	446.62
656.802	423.62
662.304	401.62
667.8	386.62
673.29	381.29
678.775	378.62
684.254	374.62
689.726	375.29
695.193	370.96
700.655	361.96
706.11	368.96
711.56	358.62
717.004	356.62
722.442	359.29
727.874	351.96
733.301	350.29
738.722	347.62
744.137	354.96
749.547	357.29
754.951	358.96
760.349	357.29
765.741	353.62
771.128	343.62
776.509	346.96
781.885	342.62
787.254	347.29
792.618	339.29
797.977	344.29
803.33	341.29
808.677	332.96
814.019	326.96
819.355	318.29
824.686	326.62
830.011	312.62
835.33	315.29
840.644	308.96
845.952	308.62
851.255	300.96
856.552	292.96
861.844	292.96
867.13	298.62
872.41	284.62
877.686	286.29
882.955	282.62
888.219	281.29
893.478	268.62
898.731	260.96
903.979	257.62
909.221	253.62
914.458	250.96
919.69	247.29
924.916	244.96
930.136	244.96
935.351	244.29
940.561	244.29
945.766	242.96
950.965	241.29
956.158	240.29
961.347	233.62
966.529	230.96
971.707	225.29
976.879	225.29
982.046	221.62
987.208	219.29
992.364	216.29
997.515	216.96
1002.66	221.62
1007.801	221.96
1012.936	224.29
1018.066	224.96
1023.19	228.29
1028.309	228.29
1033.423	226.96
1038.532	228.29
1043.636	219.96
1048.734	222.96
1053.827	219.29
1058.915	218.62
1063.998	209.62
1069.075	212.96
1074.147	210.29
1079.214	214.29
1084.276	210.62
1089.333	217.96
1094.385	214.62
1099.431	212.29
1104.472	210.62
1109.509	205.29
1114.54	205.62
1119.565	202.29
1124.586	196.29
1129.602	194.96
1134.613	191.29
1139.618	191.62
1144.619	192.96
1149.614	192.29
1154.604	199.29
1159.589	192.29
1164.57	199.62
1169.545	194.62
1174.515	195.62
1179.48	191.62
1184.44	190.62
1189.395	184.96
1194.345	188.29
1199.29	186.29
1204.23	185.96
1209.165	188.29
1214.095	185.29
1219.021	188.62
1223.941	192.29
1228.856	190.62
1233.766	192.29
1238.672	187.96
1243.572	186.96
1248.467	186.62
1253.358	183.62
1258.244	182.29
1263.124	176.96
1268	174.62
1272.871	171.62
1277.737	167.29
1282.599	166.29
1287.455	168.96
1292.306	165.96
1297.153	168.29
1301.995	171.96
1306.832	168.29
1311.664	171.29
1316.491	171.62
1321.314	168.96
1326.132	169.62
1330.945	164.29
1335.753	158.29
1340.556	156.62
1345.354	154.96
1350.148	151.62
1354.937	146.96
1359.722	148.96
1364.501	152.62
1369.276	145.96
1374.046	147.62
1378.811	150.62
1383.572	148.62
1388.327	145.96
1393.079	145.29
1397.825	144.96
1402.567	144.29
1407.304	138.62
1412.036	137.96
1416.764	132.29
1421.487	135.96
1426.205	134.62
1430.919	135.62
1435.628	137.62
1440.333	139.62
1445.032	137.96
1449.727	140.96
1454.418	140.62
1459.104	139.29
1463.785	140.29
1468.462	135.62
1473.134	135.96
1477.802	134.62
1482.465	134.29
1487.123	131.62
1491.777	134.96
1496.426	134.29
1501.071	135.62
1505.711	134.96
1510.347	139.29
1514.978	149.29
1519.604	142.29
1524.226	144.29
1528.844	146.62
1533.457	144.62
1538.065	144.62
1542.669	144.29
1547.269	142.96
1551.864	147.29
1556.454	146.62
1561.041	146.29
1565.622	149.96
1570.199	149.96
1574.772	160.62
1579.34	160.96
1583.904	162.96
1588.464	164.29
1593.019	173.29
1597.569	173.29
1602.115	177.29
1606.657	182.96
1611.195	183.29
1615.728	187.96
1620.256	189.62
1624.78	194.29
1629.3	199.29
1633.816	201.62
1638.327	203.29
1642.834	210.96
1647.336	209.29
1651.834	213.29
1656.328	210.29
1660.817	200.62
1665.302	197.29
1669.783	191.96
1674.259	183.96
1678.732	177.96
1683.199	173.96
1687.663	159.96
1692.122	147.62
1696.577	146.62
1701.028	141.96
1705.474	130.29
1709.917	128.62
1714.355	122.62
1718.788	117.96
1723.218	111.62
1727.643	107.62
1732.064	101.96
1736.481	100.96
1740.893	92.29
1745.301	86.96
1749.705	84.29
1754.105	80.29
1758.501	77.29
1762.893	74.62
1767.28	70.29
1771.663	69.62
1776.042	69.62
1780.417	64.62
1784.787	66.96
1789.154	66.62
1793.516	67.29
1797.874	64.62
1802.228	64.29
1806.578	63.96
1810.924	61.96
1815.266	53.62
1819.603	60.29
1823.937	55.62
1828.266	52.29
1832.591	53.62
1836.913	55.96
1841.23	52.29
1845.543	51.96
1849.852	53.62
1854.156	54.96
1858.457	52.96
1862.754	52.62
1867.047	50.62
1871.335	52.29
1875.62	51.96
1879.9	52.29
1884.177	51.96
1888.449	53.62
1892.718	49.96
1896.982	52.62
1901.243	48.96
1905.499	50.96
1909.752	52.62
1914	51.29
1918.245	49.96
1922.485	54.29
1926.722	53.96
1930.954	54.96
1935.183	56.96
1939.408	51.29
1943.628	56.29
1947.845	54.29
1952.058	53.29
1956.267	51.96
1960.472	49.62
1964.673	49.96
1968.87	47.96
1973.063	49.62
1977.252	46.29
1981.438	46.62
1985.619	47.96
1989.797	45.62
1993.971	45.29
1998.14	45.62
2002.306	44.62
2006.469	47.96
2010.627	45.96
2014.781	49.96
2018.932	47.96
2023.078	47.62
2027.221	46.62
2031.36	46.62
2035.495	44.96
2039.627	44.62
2043.754	46.62
2047.878	44.62
2051.998	47.29
2056.114	42.29
2060.226	45.62
2064.334	47.29
2068.439	46.29
2072.54	46.96
2076.637	50.29
2080.73	47.96
2084.82	50.96
2088.906	49.62
2092.988	53.29
2097.066	48.96
2101.14	49.29
2105.211	46.29
2109.278	49.29
2113.342	47.29
2117.401	46.62
2121.457	45.62
2125.509	45.29
2129.558	44.96
2133.602	46.29
2137.643	41.62
2141.681	42.29
2145.714	40.62
2149.744	38.29
2153.77	39.96
2157.793	39.96
2161.812	39.62
2165.827	36.96
2169.838	36.96
2173.846	33.62
2177.851	33.62
2181.851	32.29
2185.848	32.62
2189.841	28.96
2193.831	32.29
2197.817	26.96
2201.799	27.62
2205.778	29.29
2209.753	25.96
2213.725	27.29
2217.693	28.62
2221.657	26.96
2225.618	26.62
2229.575	23.62
2233.529	23.62
2237.479	21.62
2241.425	20.96
2245.368	18.62
2249.307	20.96
2253.243	22.62
2257.175	17.62
2261.104	18.29
2265.029	17.96
2268.95	15.96
2272.868	13.62
2276.783	14.96
2280.694	12.96
2284.601	10.96
2288.505	11.29
2292.405	11.96
2296.302	10.62
2300.195	9.96
2304.085	6.96
2307.971	9.29
2311.854	7.62
2315.734	6.29
2319.609	8.29
2323.482	5.62
2327.351	4.29
2331.216	6.62
2335.078	5.29
2338.937	3.96
2342.792	3.96
2346.643	4.96
2350.492	1.62
2354.336	3.29
2358.178	1.96
2362.015	2.96
2365.85	3.62
2369.681	1.29
2373.508	2.29
2377.333	1.29
2381.153	2.62
2384.971	4.29
2388.785	0.62
2392.595	0.96
2396.402	1.96
2400.206	1.29
2404.007	0.29
2407.804	-1.04
2411.597	0.29
2415.388	1.62
2419.174	1.62
2422.958	-0.38
2426.738	-1.71
2430.515	-1.71
2434.289	-1.71
2438.059	-3.38
2441.825	-3.71
2445.589	-2.71
2449.349	-2.04
2453.106	-0.71
2456.859	-1.04
2460.61	-3.38
2464.356	-2.04
2468.1	-3.04
2471.84	-3.38
2475.577	-1.38
2479.311	-2.71
2483.041	-3.38
2486.768	-3.38
2490.492	-4.04
2494.213	-4.38
2497.93	-2.71
2501.644	-1.38
2505.355	-4.71
2509.062	-6.04
2512.766	-3.38
2516.467	-5.71
2520.165	-5.04
2523.859	-5.71
2527.551	-5.71
2531.239	-5.38
2534.923	-5.71
2538.605	-4.71
2542.283	-5.71
2545.958	-4.04
2549.63	-4.71
2553.299	-5.38
2556.964	-8.04
2560.626	-5.38
2564.285	-6.71
2567.941	-4.71
2571.594	-6.71
2575.243	-7.71
2578.89	-9.38
2582.533	-8.71
2586.173	-9.71
2589.809	-11.04
2593.443	-9.38
2597.073	-9.71
2600.701	-9.04
2604.325	-10.38
2607.946	-7.71
2611.564	-8.71
2615.178	-7.04
2618.79	-9.71
2622.398	-10.71
2626.004	-7.04
2629.606	-8.38
2633.205	-11.04
2636.801	-9.71
2640.394	-9.04
2643.983	-8.71
2647.57	-11.38
2651.153	-11.04
2654.734	-11.04
2658.311	-9.04
2661.885	-11.71
2665.456	-10.04
2669.025	-8.38
2672.589	-10.38
2676.151	-10.38
2679.71	-12.04
2683.266	-10.04
2686.819	-8.71
2690.368	-10.71
2693.915	-12.04
2697.458	-11.04
2700.999	-9.04
2704.536	-9.38
2708.071	-10.71
2711.602	-10.71
2715.13	-10.04
2718.656	-8.71
2722.178	-10.04
2725.697	-11.71
2729.214	-12.04
2732.727	-7.04
2736.237	-7.71
2739.744	-7.04
2743.249	-6.38
2746.75	-11.71
2750.248	-9.04
2753.743	-8.71
2757.236	-7.04
2760.725	-7.71
2764.211	-9.38
2767.695	-6.38
2771.175	-4.38
2774.652	-6.04
2778.127	-6.04
2781.598	-5.71
2785.067	-8.71
2788.532	-7.71
2791.995	-8.04
2795.455	-7.38
2798.911	-5.38
2802.365	-5.71
2805.816	-4.04
2809.264	-6.04
2812.709	-5.71
2816.151	-3.38
2819.59	-4.04
2823.026	-1.71
2826.46	-4.04
2829.89	-2.71
2833.318	-0.04
2836.742	-1.04
2840.164	0.96
2843.583	-2.04
2846.999	-0.04
2850.412	-0.38
2853.822	1.96
2857.229	0.62
2860.634	3.29
2864.035	6.29
2867.434	7.62
2870.83	7.29
2874.223	11.62
2877.613	11.29
2881	11.29
2884.385	8.29
2887.766	12.62
2891.145	10.62
2894.521	13.96
2897.894	12.29
2901.264	12.62
2904.631	15.29
2907.996	13.96
2911.358	12.29
2914.717	13.62
2918.073	16.62
2921.426	17.29
2924.777	20.96
2928.124	20.62
2931.469	22.62
2934.811	24.96
2938.15	27.96
2941.487	25.29
2944.821	24.62
2948.152	28.29
2951.48	29.62
2954.805	27.29
2958.128	28.29
2961.447	30.96
2964.765	33.29
2968.079	34.62
2971.39	32.29
2974.699	34.96
2978.005	40.62
2981.308	40.96
2984.609	42.96
2987.907	48.96
2991.202	45.96
2994.494	50.96
2997.784	53.62
3001.07	56.29
3004.355	55.96
3007.636	61.62
3010.915	62.96
3014.191	63.96
3017.464	64.96
3020.734	64.96
3024.002	66.29
3027.267	70.62
3030.53	71.62
3033.789	71.29
3037.046	78.62
3040.301	79.29
3043.552	81.96
3046.801	88.62
3050.048	86.96
3053.291	94.29
3056.532	95.29
3059.771	101.29
3063.006	104.29
3066.239	110.29
3069.469	112.62
3072.697	117.62
3075.922	122.62
3079.144	126.62
3082.364	132.29
3085.581	136.96
3088.795	138.62
3092.007	144.29
3095.216	145.62
3098.423	150.96
3101.627	157.62
3104.828	165.29
3108.026	168.62
3111.222	170.96
3114.416	177.29
3117.607	182.62
3120.795	184.96
3123.98	190.29
3127.163	201.62
3130.344	201.96
3133.521	206.62
3136.696	212.62
3139.869	215.29
3143.039	220.96
3146.206	226.29
3149.371	228.29
3152.533	229.96
3155.693	233.62
3158.85	235.29
3162.005	233.96
3165.157	238.96
3168.306	242.62
3171.453	239.29
3174.597	241.62
3177.739	243.62
3180.878	246.29
3184.014	245.29
3187.149	251.96
3190.28	245.96
3193.409	246.29
3196.536	248.96
3199.659	252.29
3202.781	251.29
3205.9	250.96
3209.016	251.96
3212.13	252.62
3215.241	249.96
3218.35	251.96
3221.456	248.62
3224.56	246.96
3227.661	246.62
3230.76	247.62
3233.856	244.96
3236.95	244.29
3240.041	241.29
3243.13	241.62
3246.216	236.62
3249.3	236.96
3252.382	236.96
3255.46	237.29
3258.537	229.29
3261.611	230.96
3264.682	231.29
3267.751	231.62
3270.818	234.96
3273.882	233.96
3276.943	230.96
3280.002	230.96
3283.059	229.62
3286.113	223.96
3289.165	220.62
3292.214	216.29
3295.261	219.96
3298.306	213.62
3301.348	208.29
3304.387	206.96
3307.425	199.96
3310.459	196.62
3313.492	192.29
3316.521	191.96
3319.549	190.62
3322.574	189.29
3325.597	188.62
3328.617	189.96
3331.635	183.96
3334.65	187.62
3337.663	187.96
3340.674	185.29
3343.682	186.62
3346.688	186.96
3349.691	182.29
3352.692	184.62
3355.691	183.29
3358.687	180.96
3361.681	176.96
3364.673	175.29
3367.662	171.96
3370.649	172.29
3373.633	167.62
3376.615	171.29
3379.595	163.29
3382.572	165.62
3385.547	161.96
3388.52	160.96
3391.49	157.29
3394.458	156.29
3397.424	157.29
3400.387	151.96
3403.348	152.62
3406.307	149.29
3409.263	149.96
3412.217	146.96
3415.168	145.29
3418.118	147.62
3421.065	142.62
3424.009	145.29
3426.951	139.29
3429.891	139.62
3432.829	134.62
3435.764	132.96
3438.697	131.29
3441.628	127.29
3444.557	120.96
3447.483	121.62
3450.407	117.96
3453.328	116.29
3456.247	110.29
3459.164	108.96
3462.079	104.96
3464.991	102.96
3467.902	100.29
3470.809	97.29
3473.715	92.29
3476.618	93.96
3479.519	88.96
3482.418	84.62
3485.315	82.29
3488.209	78.96
3491.101	78.29
3493.99	76.29
3496.878	72.62
3499.763	71.29
3502.646	68.62
3505.527	67.96
3508.405	66.62
3511.281	61.96
3514.155	59.29
3517.027	58.29
3519.897	53.62
3522.764	54.29
3525.629	49.62
3528.492	45.96
3531.352	43.62
3534.211	39.62
3537.067	36.62
3539.921	34.96
3542.773	34.62
3545.622	30.62
3548.469	26.62
3551.315	27.29
3554.157	23.96
3556.998	23.29
3559.837	24.96
3562.673	21.96
3565.507	19.62
3568.339	18.96
3571.169	19.29
3573.996	15.62
3576.822	16.96
3579.645	15.96
3582.466	10.62
3585.285	10.29
3588.101	6.29
3590.916	8.62
3593.728	3.62
3596.538	1.96
3599.346	0.62
3602.152	-0.71
3604.956	-2.04
3607.757	0.62
3610.556	-1.71
3613.354	-0.38
3616.149	-3.38
3618.942	-4.71
3621.732	-3.71
3624.521	-5.71
3627.307	-6.71
3630.092	-7.38
3632.874	-9.38
3635.654	-6.38
3638.432	-8.38
3641.208	-9.71
3643.982	-12.04
3646.753	-12.71
3649.523	-13.04
3652.29	-10.38
3655.055	-13.04
3657.818	-17.38
3660.579	-17.38
3663.338	-16.71
3666.095	-16.04
3668.849	-14.71
3671.602	-18.04
3674.352	-16.38
3677.101	-15.38
3679.847	-18.71
3682.591	-15.71
3685.333	-18.38
3688.073	-18.04
3690.811	-18.71
3693.547	-18.38
3696.281	-20.04
3699.013	-19.04
3701.742	-21.38
3704.47	-22.04
3707.195	-20.71
3709.919	-22.71
3712.64	-20.38
3715.359	-22.04
3718.076	-21.71
3720.792	-19.38
3723.505	-21.71
3726.216	-23.71
3728.925	-21.04
3731.632	-20.71
3734.336	-23.04
3737.039	-23.04
3739.74	-23.04
3742.439	-23.04
3745.136	-23.71
3747.83	-24.38
3750.523	-25.38
3753.213	-24.71
3755.902	-24.71
3758.589	-23.04
3761.273	-24.71
3763.956	-26.04
3766.636	-24.38
3769.315	-25.71
3771.991	-25.71
3774.665	-27.04
3777.338	-25.71
3780.008	-24.71
3782.677	-24.38
3785.343	-24.38
3788.007	-24.71
3790.67	-27.04
3793.33	-25.04
3795.989	-26.04
3798.645	-26.04
3801.299	-24.38
3803.952	-25.04
3806.602	-27.38
3809.251	-25.71
3811.897	-27.38
3814.542	-29.04
3817.184	-28.04
3819.825	-26.38
3822.463	-27.38
3825.1	-29.38
3827.735	-28.04
3830.367	-25.04
3832.998	-27.71
3835.627	-26.38
3838.253	-27.71
3840.878	-28.71
3843.501	-28.38
3846.122	-26.71
3848.741	-26.71
3851.358	-25.71
3853.973	-30.71
3856.586	-27.71
3859.197	-26.71
3861.806	-27.71
3864.414	-26.04
3867.019	-27.38
3869.622	-26.71
3872.224	-27.04
3874.823	-24.04
3877.421	-24.04
3880.016	-22.04
3882.61	-17.38
3885.202	-17.71
3887.792	-17.04
3890.38	-22.38
3892.966	-24.04
3895.55	-25.71
3898.132	-27.38
3900.713	-24.04
3903.291	-27.04
3905.868	-27.71
3908.442	-27.04
3911.015	-27.04
3913.586	-29.71
3916.155	-28.71
3918.722	-28.38
3921.287	-27.71
3923.85	-28.71
3926.411	-27.04
3928.971	-27.38
3931.528	-27.38
3934.084	-27.71
3936.638	-26.71
3939.19	-27.71
3941.74	-27.71
3944.288	-27.38
3946.834	-27.04
3949.378	-26.04
3951.921	-26.71
3954.462	-27.38
3957	-27.04
3959.537	-26.04
3962.072	-28.04
3964.606	-25.71
3967.137	-27.38
3969.667	-27.38
3972.194	-27.71
3974.72	-27.71
3977.244	-28.71
3979.766	-26.38
3982.286	-27.38
3984.805	-27.71
3987.321	-27.04
3989.836	-28.71
3992.349	-30.38
3994.86	-27.04
3997.369	-25.71
3999.877	-28.04
4002.382	-28.71
4004.886	-28.04
4007.388	-28.71
4009.888	-28.71
4012.386	-29.38
4014.883	-28.04
4017.377	-28.04
4019.87	-30.04
4022.361	-25.71
4024.85	-27.38
4027.338	-29.71
4029.823	-30.38
4032.307	-28.04
4034.789	-28.38
4037.269	-28.38
4039.747	-29.71
4042.224	-28.38
4044.699	-27.04
4047.172	-28.38
4049.643	-29.04
4052.112	-28.38
4054.58	-26.71
4057.046	-30.71
4059.51	-30.04
4061.972	-27.71
4064.432	-26.71
4066.891	-26.71
4069.348	-25.71
4071.803	-27.38
4074.256	-27.38
4076.708	-28.04
4079.158	-24.04
4081.606	-22.38
4084.052	-24.04
4086.497	-26.04
4088.939	-26.38
4091.38	-27.04
4093.819	-26.71
4096.257	-27.04
4098.693	-26.04
4101.127	-27.38
4103.559	-27.04
4105.989	-10.71
4108.418	-11.71
4110.845	-11.38
4113.27	-11.38
4115.694	-9.71
4118.115	-7.71
4120.535	-27.38
4122.954	-26.71
4125.37	-26.71
4127.785	-26.38
4130.198	-28.04
4132.609	-26.71
4135.019	-28.38
4137.427	-28.71
4139.833	-26.71
4142.237	-27.38
