160.701	-6.42
166.742	0.58
172.777	26.58
178.805	100.58
184.826	267.58
190.841	550.25
196.849	854.25
202.85	1053.92
208.845	1103.58
214.833	1066.25
220.815	1033.92
226.789	1007.92
232.758	980.92
238.719	961.92
244.674	931.58
250.623	897.92
256.565	862.25
262.5	831.58
268.429	804.25
274.351	781.25
280.267	753.25
286.176	730.92
292.079	718.25
297.975	703.58
303.865	689.92
309.748	677.25
315.625	664.25
321.495	658.25
327.359	658.58
333.217	654.25
339.068	647.25
344.912	652.92
350.751	651.58
356.583	650.58
362.408	650.25
368.227	652.92
374.04	671.92
379.847	688.25
385.647	701.58
391.44	688.92
397.228	685.25
403.009	675.25
408.784	706.25
414.553	759.92
420.315	814.58
426.071	822.25
431.821	752.58
437.565	704.25
443.302	683.92
449.033	679.25
454.758	668.58
460.477	668.25
466.189	658.25
471.896	649.92
477.596	645.58
483.29	638.92
488.978	639.25
494.66	628.92
500.335	620.58
506.005	594.25
511.668	565.25
517.325	546.58
522.977	530.92
528.622	519.92
534.261	504.58
539.894	496.58
545.521	493.58
551.141	486.25
556.756	480.58
562.365	477.25
567.968	472.25
573.565	466.25
579.155	468.25
584.74	462.58
590.319	453.92
595.892	455.25
601.459	448.25
607.02	446.92
612.575	436.58
618.124	438.58
623.667	437.58
629.204	428.92
634.735	434.25
640.261	442.25
645.781	454.25
651.294	464.58
656.802	444.58
662.304	423.25
667.8	409.92
673.29	407.92
678.775	401.58
684.254	395.25
689.726	386.92
695.193	381.25
700.655	385.92
706.11	379.25
711.56	379.58
717.004	373.25
722.442	371.58
727.874	371.25
733.301	368.92
738.722	367.92
744.137	372.58
749.547	376.92
754.951	376.92
760.349	371.25
765.741	366.25
771.128	360.25
776.509	368.25
781.885	361.92
787.254	360.58
792.618	354.92
797.977	357.92
803.33	351.25
808.677	349.25
814.019	342.92
819.355	338.58
824.686	334.92
830.011	331.92
835.33	322.58
840.644	323.58
845.952	321.58
851.255	314.92
856.552	312.92
861.844	311.25
867.13	303.92
872.41	297.25
877.686	296.92
882.955	288.92
888.219	283.25
893.478	277.58
898.731	268.92
903.979	262.92
909.221	263.92
914.458	258.25
919.69	257.92
924.916	256.92
930.136	257.25
935.351	256.25
940.561	257.25
945.766	253.25
950.965	249.92
956.158	248.92
961.347	244.58
966.529	239.25
971.707	237.25
976.879	231.92
982.046	225.92
987.208	223.58
992.364	224.92
997.515	226.25
1002.66	231.92
1007.801	223.58
1012.936	230.25
1018.066	230.58
1023.19	234.25
1028.309	231.92
1033.423	232.25
1038.532	231.92
1043.636	225.92
1048.734	225.58
1053.827	224.25
1058.915	220.92
1063.998	220.58
1069.075	215.25
1074.147	218.25
1079.214	219.58
1084.276	221.58
1089.333	214.92
1094.385	223.25
1099.431	220.25
1104.472	215.25
1109.509	216.25
1114.54	211.92
1119.565	210.58
1124.586	207.58
1129.602	202.25
1134.613	201.92
1139.618	199.58
1144.619	199.58
1149.614	201.92
1154.604	204.58
1159.589	202.25
1164.57	205.58
1169.545	202.25
1174.515	202.58
1179.48	199.25
1184.44	198.25
1189.395	194.58
1194.345	193.25
1199.29	192.25
1204.23	193.58
1209.165	197.58
1214.095	195.25
1219.021	199.92
1223.941	198.25
1228.856	200.58
1233.766	201.25
1238.672	197.92
1243.572	195.58
1248.467	195.92
1253.358	191.92
1258.244	186.58
1263.124	183.25
1268	181.92
1272.871	178.58
1277.737	176.92
1282.599	172.25
1287.455	170.92
1292.306	175.58
1297.153	176.58
1301.995	178.58
1306.832	174.25
1311.664	178.58
1316.491	175.25
1321.314	177.25
1326.132	176.58
1330.945	169.92
1335.753	167.25
1340.556	163.58
1345.354	159.58
1350.148	159.58
1354.937	158.58
1359.722	156.58
1364.501	153.25
1369.276	150.25
1374.046	150.92
1378.811	152.25
1383.572	151.92
1388.327	153.58
1393.079	148.58
1397.825	146.25
1402.567	148.58
1407.304	144.58
1412.036	139.25
1416.764	143.25
1421.487	140.58
1426.205	140.58
1430.919	140.58
1435.628	143.25
1440.333	144.25
1445.032	140.92
1449.727	142.25
1454.418	143.92
1459.104	140.25
1463.785	139.92
1468.462	139.25
1473.134	137.58
1477.802	137.58
1482.465	136.25
1487.123	136.58
1491.777	139.25
1496.426	141.25
1501.071	143.92
1505.711	143.58
1510.347	146.92
1514.978	151.58
1519.604	147.58
1524.226	153.25
1528.844	149.25
1533.457	152.92
1538.065	148.25
1542.669	151.58
1547.269	148.92
1551.864	154.25
1556.454	151.25
1561.041	153.25
1565.622	154.58
1570.199	160.58
1574.772	161.92
1579.34	168.92
1583.904	174.58
1588.464	179.58
1593.019	180.25
1597.569	186.58
1602.115	192.58
1606.657	191.25
1611.195	192.58
1615.728	199.58
1620.256	199.92
1624.78	204.25
1629.3	211.25
1633.816	213.58
1638.327	220.92
1642.834	218.25
1647.336	220.92
1651.834	219.92
1656.328	222.25
1660.817	217.58
1665.302	214.25
1669.783	205.58
1674.259	194.58
1678.732	192.92
1683.199	178.92
1687.663	171.58
1692.122	159.92
1696.577	149.58
1701.028	148.58
1705.474	143.25
1709.917	134.58
1714.355	126.58
1718.788	122.25
1723.218	117.25
1727.643	108.58
1732.064	107.92
1736.481	102.92
1740.893	96.58
1745.301	88.92
1749.705	87.92
1754.105	82.25
1758.501	80.92
1762.893	76.92
1767.28	74.58
1771.663	72.92
1776.042	68.92
1780.417	67.58
1784.787	65.25
1789.154	66.58
1793.516	66.25
1797.874	64.58
1802.228	64.58
1806.578	62.92
1810.924	60.92
1815.266	52.25
1819.603	59.25
1823.937	56.25
1828.266	56.25
1832.591	53.25
1836.913	57.25
1841.23	54.58
1845.543	53.92
1849.852	55.25
1854.156	53.58
1858.457	55.92
1862.754	56.25
1867.047	53.58
1871.335	53.92
1875.62	54.58
1879.9	52.58
1884.177	49.92
1888.449	50.58
1892.718	50.92
1896.982	52.58
1901.243	49.25
1905.499	52.92
1909.752	52.58
1914	50.58
1918.245	50.92
1922.485	50.58
1926.722	52.92
1930.954	58.25
1935.183	56.92
1939.408	56.58
1943.628	56.58
1947.845	55.58
1952.058	54.25
1956.267	54.58
1960.472	51.92
1964.673	50.92
1968.87	51.25
1973.063	46.58
1977.252	47.58
1981.438	45.58
1985.619	46.92
1989.797	45.58
1993.971	43.58
1998.14	43.92
2002.306	48.58
2006.469	46.58
2010.627	48.25
2014.781	49.92
2018.932	47.58
2023.078	47.25
2027.221	50.58
2031.36	47.92
2035.495	47.58
2039.627	44.92
2043.754	48.25
2047.878	44.92
2051.998	45.92
2056.114	44.25
2060.226	46.25
2064.334	44.58
2068.439	47.92
2072.54	46.58
2076.637	49.58
2080.73	49.92
2084.82	54.58
2088.906	50.92
2092.988	53.58
2097.066	51.92
2101.14	51.58
2105.211	51.58
2109.278	51.25
2113.342	51.25
2117.401	50.58
2121.457	47.92
2125.509	46.58
2129.558	46.25
2133.602	44.58
2137.643	41.25
2141.681	44.92
2145.714	41.25
2149.744	42.25
2153.77	40.58
2157.793	40.92
2161.812	38.25
2165.827	37.58
2169.838	35.58
2173.846	34.92
2177.851	35.58
2181.851	33.92
2185.848	33.58
2189.841	30.58
2193.831	31.25
2197.817	32.25
2201.799	30.58
2205.778	33.25
2209.753	28.25
2213.725	26.58
2217.693	25.58
2221.657	26.25
2225.618	27.58
2229.575	23.58
2233.529	24.92
2237.479	20.58
2241.425	23.25
2245.368	20.25
2249.307	18.92
2253.243	20.25
2257.175	16.92
2261.104	20.92
2265.029	16.92
2268.95	15.58
2272.868	17.92
2276.783	14.58
2280.694	13.58
2284.601	13.92
2288.505	9.58
2292.405	8.92
2296.302	12.58
2300.195	8.92
2304.085	6.58
2307.971	9.58
2311.854	5.25
2315.734	4.25
2319.609	5.92
2323.482	3.92
2327.351	4.58
2331.216	6.25
2335.078	4.25
2338.937	3.92
2342.792	2.25
2346.643	3.92
2350.492	4.92
2354.336	1.58
2358.178	2.25
2362.015	3.25
2365.85	1.58
2369.681	0.58
2373.508	1.58
2377.333	-2.08
2381.153	2.25
2384.971	0.25
2388.785	-2.75
2392.595	-2.08
2396.402	0.58
2400.206	-1.42
2404.007	-2.42
2407.804	-0.42
2411.597	1.58
2415.388	2.58
2419.174	-0.75
2422.958	0.58
2426.738	-1.08
2430.515	-2.08
2434.289	-1.75
2438.059	-2.75
2441.825	-3.08
2445.589	-3.42
2449.349	-3.75
2453.106	-1.42
2456.859	-5.08
2460.61	-4.75
2464.356	-5.42
2468.1	-3.75
2471.84	-7.08
2475.577	-4.08
2479.311	-3.08
2483.041	-3.75
2486.768	-5.08
2490.492	-4.42
2494.213	-5.08
2497.93	-4.75
2501.644	-0.75
2505.355	-3.42
2509.062	-4.08
2512.766	-4.42
2516.467	-3.42
2520.165	-3.75
2523.859	-9.08
2527.551	-6.42
2531.239	-5.75
2534.923	-6.42
2538.605	-6.75
2542.283	-5.42
2545.958	-7.42
2549.63	-7.75
2553.299	-7.08
2556.964	-7.42
2560.626	-7.75
2564.285	-6.75
2567.941	-6.42
2571.594	-7.75
2575.243	-7.75
2578.89	-10.42
2582.533	-8.42
2586.173	-9.75
2589.809	-8.08
2593.443	-8.75
2597.073	-9.42
2600.701	-10.42
2604.325	-12.75
2607.946	-11.42
2611.564	-10.42
2615.178	-9.75
2618.79	-12.42
2622.398	-12.75
2626.004	-11.42
2629.606	-10.42
2633.205	-10.75
2636.801	-11.42
2640.394	-10.08
2643.983	-10.42
2647.57	-12.75
2651.153	-10.75
2654.734	-9.42
2658.311	-9.08
2661.885	-12.75
2665.456	-11.75
2669.025	-9.08
2672.589	-12.42
2676.151	-13.75
2679.71	-11.42
2683.266	-14.42
2686.819	-12.42
2690.368	-12.75
2693.915	-12.42
2697.458	-12.42
2700.999	-12.08
2704.536	-10.42
2708.071	-10.42
2711.602	-11.42
2715.13	-12.08
2718.656	-10.75
2722.178	-9.42
2725.697	-10.42
2729.214	-9.08
2732.727	-10.75
2736.237	-9.08
2739.744	-9.75
2743.249	-8.42
2746.75	-10.42
2750.248	-10.08
2753.743	-12.42
2757.236	-9.08
2760.725	-9.08
2764.211	-9.08
2767.695	-8.75
2771.175	-5.75
2774.652	-7.75
2778.127	-7.75
2781.598	-8.08
2785.067	-6.42
2788.532	-4.42
2791.995	-7.75
2795.455	-8.42
2798.911	-7.75
2802.365	-8.08
2805.816	-5.42
2809.264	-5.08
2812.709	-6.42
2816.151	-3.75
2819.59	-5.08
2823.026	-3.75
2826.46	-6.42
2829.89	-3.08
2833.318	-4.42
2836.742	-1.75
2840.164	-3.42
2843.583	-3.75
2846.999	1.58
2850.412	0.58
2853.822	2.25
2857.229	1.25
2860.634	4.58
2864.035	4.25
2867.434	5.25
2870.83	5.58
2874.223	8.25
2877.613	4.58
2881	7.58
2884.385	7.92
2887.766	8.25
2891.145	9.92
2894.521	11.25
2897.894	11.58
2901.264	13.58
2904.631	10.25
2907.996	15.25
2911.358	13.58
2914.717	15.25
2918.073	15.92
2921.426	18.25
2924.777	18.58
2928.124	17.58
2931.469	20.58
2934.811	20.92
2938.15	23.25
2941.487	23.58
2944.821	25.58
2948.152	25.25
2951.48	24.58
2954.805	27.58
2958.128	28.58
2961.447	29.92
2964.765	32.92
2968.079	34.25
2971.39	34.25
2974.699	35.25
2978.005	39.25
2981.308	45.58
2984.609	44.92
2987.907	49.92
2991.202	49.92
2994.494	52.25
2997.784	52.92
3001.07	59.25
3004.355	61.58
3007.636	62.25
3010.915	64.92
3014.191	69.25
3017.464	68.92
3020.734	73.25
3024.002	74.25
3027.267	76.25
3030.53	79.58
3033.789	81.92
3037.046	85.92
3040.301	87.58
3043.552	89.58
3046.801	96.25
3050.048	98.58
3053.291	101.58
3056.532	106.92
3059.771	108.92
3063.006	113.58
3066.239	118.92
3069.469	123.92
3072.697	126.58
3075.922	132.58
3079.144	136.58
3082.364	143.58
3085.581	146.58
3088.795	152.25
3092.007	155.92
3095.216	161.92
3098.423	168.25
3101.627	169.92
3104.828	176.25
3108.026	182.25
3111.222	180.58
3114.416	190.92
3117.607	196.25
3120.795	199.92
3123.98	206.58
3127.163	211.58
3130.344	219.25
3133.521	225.25
3136.696	226.92
3139.869	230.58
3143.039	238.92
3146.206	245.92
3149.371	246.25
3152.533	247.92
3155.693	253.58
3158.85	253.58
3162.005	256.92
3165.157	254.92
3168.306	261.58
3171.453	258.92
3174.597	265.25
3177.739	268.92
3180.878	266.92
3184.014	263.92
3187.149	265.25
3190.28	270.92
3193.409	265.58
3196.536	268.58
3199.659	271.92
3202.781	276.58
3205.9	273.25
3209.016	272.92
3212.13	276.58
3215.241	272.25
3218.35	274.92
3221.456	270.92
3224.56	268.92
3227.661	267.92
3230.76	261.25
3233.856	264.25
3236.95	264.58
3240.041	261.25
3243.13	261.58
3246.216	256.58
3249.3	254.92
3252.382	252.92
3255.46	257.58
3258.537	253.92
3261.611	251.58
3264.682	255.25
3267.751	251.58
3270.818	254.58
3273.882	249.92
3276.943	250.25
3280.002	246.25
3283.059	247.25
3286.113	243.92
3289.165	237.25
3292.214	232.58
3295.261	230.92
3298.306	230.58
3301.348	223.92
3304.387	219.25
3307.425	220.25
3310.459	212.92
3313.492	211.92
3316.521	205.25
3319.549	204.92
3322.574	201.25
3325.597	200.92
3328.617	201.92
3331.635	198.92
3334.65	200.92
3337.663	203.25
3340.674	200.25
3343.682	198.58
3346.688	197.25
3349.691	200.92
3352.692	198.25
3355.691	195.58
3358.687	194.58
3361.681	189.92
3364.673	188.92
3367.662	190.92
3370.649	185.58
3373.633	183.92
3376.615	186.25
3379.595	176.58
3382.572	177.25
3385.547	175.92
3388.52	176.58
3391.49	167.58
3394.458	168.58
3397.424	168.58
3400.387	164.58
3403.348	167.25
3406.307	163.92
3409.263	162.58
3412.217	159.25
3415.168	157.58
3418.118	156.58
3421.065	156.25
3424.009	150.58
3426.951	146.25
3429.891	146.92
3432.829	140.92
3435.764	143.25
3438.697	140.25
3441.628	137.58
3444.557	129.92
3447.483	128.92
3450.407	124.25
3453.328	124.25
3456.247	117.92
3459.164	114.25
3462.079	110.92
3464.991	107.58
3467.902	105.58
3470.809	103.25
3473.715	97.92
3476.618	98.58
3479.519	94.58
3482.418	90.92
3485.315	87.92
3488.209	87.25
3491.101	84.25
3493.99	79.92
3496.878	76.92
3499.763	75.92
3502.646	74.92
3505.527	69.25
3508.405	68.58
3511.281	62.92
3514.155	64.58
3517.027	57.58
3519.897	57.25
3522.764	55.58
3525.629	52.58
3528.492	48.92
3531.352	50.25
3534.211	46.25
3537.067	43.25
3539.921	37.92
3542.773	36.58
3545.622	34.58
3548.469	28.92
3551.315	24.58
3554.157	24.92
3556.998	23.25
3559.837	23.92
3562.673	22.92
3565.507	17.92
3568.339	18.25
3571.169	15.58
3573.996	15.58
3576.822	14.92
3579.645	15.92
3582.466	11.92
3585.285	10.25
3588.101	9.25
3590.916	7.92
3593.728	6.58
3596.538	3.58
3599.346	4.58
3602.152	1.25
3604.956	-2.08
3607.757	-0.08
3610.556	-4.08
3613.354	-4.08
3616.149	-7.75
3618.942	-5.75
3621.732	-7.08
3624.521	-8.42
3627.307	-8.08
3630.092	-8.42
3632.874	-8.75
3635.654	-8.08
3638.432	-9.08
3641.208	-9.08
3643.982	-9.42
3646.753	-12.08
3649.523	-11.42
3652.29	-12.75
3655.055	-13.75
3657.818	-16.42
3660.579	-17.42
3663.338	-18.75
3666.095	-18.42
3668.849	-19.08
3671.602	-19.42
3674.352	-19.08
3677.101	-18.42
3679.847	-19.08
3682.591	-19.42
3685.333	-20.08
3688.073	-19.08
3690.811	-19.08
3693.547	-20.42
3696.281	-20.08
3699.013	-22.42
3701.742	-19.42
3704.47	-21.75
3707.195	-21.75
3709.919	-20.08
3712.64	-22.75
3715.359	-23.42
3718.076	-23.75
3720.792	-23.42
3723.505	-28.75
3726.216	-26.08
3728.925	-25.42
3731.632	-24.75
3734.336	-24.75
3737.039	-24.75
3739.74	-26.08
3742.439	-24.08
3745.136	-25.75
3747.83	-24.42
3750.523	-26.75
3753.213	-23.75
3755.902	-24.75
3758.589	-23.42
3761.273	-23.42
3763.956	-26.42
3766.636	-26.08
3769.315	-27.75
3771.991	-28.42
3774.665	-29.08
3777.338	-27.75
3780.008	-27.75
3782.677	-27.08
3785.343	-29.42
3788.007	-26.75
3790.67	-28.75
3793.33	-27.08
3795.989	-28.42
3798.645	-26.75
3801.299	-26.75
3803.952	-24.75
3806.602	-28.08
3809.251	-26.75
3811.897	-26.75
3814.542	-29.42
3817.184	-28.75
3819.825	-29.08
3822.463	-29.42
3825.1	-29.42
3827.735	-30.42
3830.367	-28.42
3832.998	-30.08
3835.627	-31.75
3838.253	-31.08
3840.878	-30.08
3843.501	-30.08
3846.122	-28.08
3848.741	-30.08
3851.358	-29.75
3853.973	-30.42
3856.586	-28.42
3859.197	-27.08
3861.806	-28.42
3864.414	-28.75
3867.019	-30.75
3869.622	-28.75
3872.224	-27.42
3874.823	-26.75
3877.421	-27.42
3880.016	-24.42
3882.61	-21.08
3885.202	-19.42
3887.792	-21.08
3890.38	-23.42
3892.966	-26.42
3895.55	-26.42
3898.132	-27.75
3900.713	-26.42
3903.291	-27.75
3905.868	-30.42
3908.442	-29.42
3911.015	-29.42
3913.586	-29.75
3916.155	-29.75
3918.722	-29.42
3921.287	-29.42
3923.85	-28.75
3926.411	-28.75
3928.971	-27.42
3931.528	-28.42
3934.084	-28.75
3936.638	-28.75
3939.19	-28.42
3941.74	-29.42
3944.288	-30.08
3946.834	-29.08
3949.378	-27.75
3951.921	-29.75
3954.462	-29.42
3957	-29.08
3959.537	-29.75
3962.072	-31.08
3964.606	-30.08
3967.137	-27.75
3969.667	-29.75
3972.194	-31.08
3974.72	-29.42
3977.244	-27.75
3979.766	-29.08
3982.286	-28.75
3984.805	-28.42
3987.321	-29.08
3989.836	-30.42
3992.349	-31.42
3994.86	-29.42
3997.369	-26.42
3999.877	-30.75
4002.382	-32.08
4004.886	-31.42
4007.388	-29.75
4009.888	-30.08
4012.386	-30.75
4014.883	-31.42
4017.377	-30.75
4019.87	-31.42
4022.361	-29.08
4024.85	-29.75
4027.338	-31.42
4029.823	-30.08
4032.307	-30.08
4034.789	-30.75
4037.269	-30.75
4039.747	-29.42
4042.224	-32.08
4044.699	-29.08
4047.172	-30.75
4049.643	-31.08
4052.112	-28.75
4054.58	-28.42
4057.046	-32.08
4059.51	-29.75
4061.972	-31.75
4064.432	-28.75
4066.891	-29.75
4069.348	-29.75
4071.803	-28.42
4074.256	-29.75
4076.708	-29.42
4079.158	-28.08
4081.606	-27.42
4084.052	-27.42
4086.497	-28.42
4088.939	-26.75
4091.38	-28.42
4093.819	-26.75
4096.257	-29.75
4098.693	-29.42
4101.127	-29.42
4103.559	-28.75
4105.989	-12.75
4108.418	-11.42
4110.845	-12.75
4113.27	-12.08
4115.694	-11.08
4118.115	-10.08
4120.535	-27.08
4122.954	-29.08
4125.37	-28.08
4127.785	-27.08
4130.198	-31.08
4132.609	-29.08
4135.019	-30.42
4137.427	-31.08
4139.833	-29.42
4142.237	-30.42
