160.701	-6.21
166.742	4.12
172.777	24.12
178.805	80.12
184.826	213.12
190.841	437.79
196.849	680.46
202.85	832.46
208.845	872.12
214.833	842.79
220.815	809.79
226.789	781.12
232.758	778.12
238.719	751.12
244.674	729.12
250.623	708.79
256.565	680.46
262.5	651.46
268.429	623.79
274.351	607.12
280.267	595.12
286.176	572.46
292.079	563.46
297.975	557.12
303.865	542.79
309.748	538.46
315.625	522.46
321.495	521.79
327.359	522.12
333.217	520.12
339.068	519.12
344.912	516.12
350.751	518.79
356.583	522.46
362.408	518.79
368.227	526.79
374.04	536.79
379.847	559.12
385.647	563.12
391.44	555.46
397.228	550.79
403.009	551.12
408.784	575.12
414.553	631.12
420.315	685.46
426.071	685.12
431.821	620.12
437.565	583.46
443.302	553.46
449.033	544.46
454.758	541.46
460.477	535.12
466.189	531.79
471.896	520.46
477.596	513.12
483.29	514.46
488.978	509.12
494.66	498.46
500.335	489.12
506.005	472.12
511.668	445.79
517.325	433.46
522.977	402.79
528.622	398.79
534.261	392.79
539.894	387.79
545.521	380.12
551.141	373.46
556.756	371.79
562.365	362.79
567.968	358.46
573.565	353.79
579.155	352.79
584.74	351.79
590.319	346.46
595.892	345.12
601.459	347.12
607.02	345.46
612.575	336.46
618.124	331.12
623.667	327.46
629.204	327.12
634.735	327.12
640.261	341.12
645.781	352.79
651.294	365.79
656.802	341.79
662.304	320.79
667.8	306.79
673.29	300.79
678.775	297.12
684.254	294.79
689.726	289.79
695.193	287.79
700.655	282.79
706.11	279.79
711.56	280.12
717.004	283.12
722.442	273.12
727.874	275.46
733.301	278.12
738.722	277.12
744.137	277.12
749.547	278.79
754.951	280.12
760.349	279.46
765.741	270.46
771.128	268.12
776.509	267.46
781.885	265.12
787.254	268.12
792.618	267.12
797.977	269.79
803.33	263.79
808.677	264.46
814.019	257.79
819.355	254.12
824.686	248.79
830.011	243.79
835.33	241.79
840.644	243.12
845.952	240.12
851.255	234.12
856.552	227.12
861.844	222.12
867.13	220.12
872.41	217.46
877.686	214.12
882.955	212.46
888.219	210.46
893.478	204.12
898.731	197.12
903.979	191.46
909.221	191.12
914.458	185.79
919.69	184.79
924.916	181.12
930.136	182.12
935.351	180.79
940.561	174.79
945.766	177.46
950.965	177.79
956.158	172.46
961.347	170.79
966.529	168.79
971.707	165.79
976.879	163.12
982.046	162.46
987.208	159.46
992.364	159.79
997.515	161.46
1002.66	163.79
1007.801	161.46
1012.936	163.79
1018.066	165.12
1023.19	164.79
1028.309	164.12
1033.423	162.46
1038.532	165.12
1043.636	163.12
1048.734	164.12
1053.827	159.46
1058.915	160.79
1063.998	159.46
1069.075	159.12
1074.147	159.46
1079.214	157.79
1084.276	161.12
1089.333	161.79
1094.385	160.12
1099.431	158.79
1104.472	156.46
1109.509	152.79
1114.54	149.79
1119.565	145.12
1124.586	144.46
1129.602	145.79
1134.613	140.46
1139.618	143.46
1144.619	140.46
1149.614	139.46
1154.604	144.12
1159.589	141.46
1164.57	145.46
1169.545	141.46
1174.515	148.12
1179.48	142.12
1184.44	141.12
1189.395	139.79
1194.345	142.46
1199.29	138.12
1204.23	138.79
1209.165	138.46
1214.095	137.12
1219.021	139.79
1223.941	142.12
1228.856	141.79
1233.766	140.12
1238.672	139.46
1243.572	137.12
1248.467	135.12
1253.358	136.12
1258.244	133.12
1263.124	128.12
1268	124.79
1272.871	127.12
1277.737	123.12
1282.599	123.79
1287.455	121.79
1292.306	120.79
1297.153	122.79
1301.995	122.12
1306.832	125.79
1311.664	124.79
1316.491	124.46
1321.314	121.12
1326.132	122.79
1330.945	120.46
1335.753	116.12
1340.556	113.46
1345.354	112.79
1350.148	107.46
1354.937	109.12
1359.722	108.46
1364.501	109.12
1369.276	107.46
1374.046	109.46
1378.811	107.46
1383.572	109.12
1388.327	107.12
1393.079	104.46
1397.825	100.79
1402.567	100.12
1407.304	100.46
1412.036	96.46
1416.764	97.12
1421.487	96.79
1426.205	98.79
1430.919	94.46
1435.628	96.79
1440.333	99.79
1445.032	101.12
1449.727	101.12
1454.418	103.46
1459.104	101.12
1463.785	100.79
1468.462	99.79
1473.134	98.12
1477.802	96.12
1482.465	96.79
1487.123	97.46
1491.777	97.46
1496.426	96.79
1501.071	104.46
1505.711	99.12
1510.347	102.12
1514.978	105.12
1519.604	103.79
1524.226	106.12
1528.844	104.79
1533.457	106.46
1538.065	108.12
1542.669	105.46
1547.269	108.46
1551.864	108.46
1556.454	110.46
1561.041	112.12
1565.622	106.79
1570.199	114.46
1574.772	115.46
1579.34	122.79
1583.904	124.46
1588.464	125.79
1593.019	133.79
1597.569	130.79
1602.115	137.12
1606.657	142.79
1611.195	140.79
1615.728	143.46
1620.256	146.12
1624.78	150.46
1629.3	158.12
1633.816	158.12
1638.327	161.79
1642.834	165.12
1647.336	163.79
1651.834	163.79
1656.328	163.79
1660.817	161.79
1665.302	159.79
1669.783	151.79
1674.259	145.46
1678.732	142.12
1683.199	134.79
1687.663	123.79
1692.122	114.79
1696.577	114.12
1701.028	106.12
1705.474	102.79
1709.917	95.46
1714.355	90.79
1718.788	89.12
1723.218	81.79
1727.643	78.46
1732.064	73.12
1736.481	70.12
1740.893	65.46
1745.301	60.79
1749.705	60.12
1754.105	58.46
1758.501	51.46
1762.893	51.46
1767.28	48.46
1771.663	47.79
1776.042	48.79
1780.417	46.46
1784.787	45.46
1789.154	46.12
1793.516	44.46
1797.874	42.12
1802.228	43.46
1806.578	42.79
1810.924	42.46
1815.266	35.12
1819.603	39.12
1823.937	37.79
1828.266	35.79
1832.591	36.12
1836.913	34.79
1841.23	35.46
1845.543	34.46
1849.852	33.46
1854.156	33.79
1858.457	35.46
1862.754	35.46
1867.047	33.46
1871.335	34.79
1875.62	35.79
1879.9	37.12
1884.177	34.79
1888.449	34.12
1892.718	31.12
1896.982	37.12
1901.243	33.46
1905.499	33.79
1909.752	35.12
1914	34.79
1918.245	34.79
1922.485	30.79
1926.722	35.12
1930.954	36.12
1935.183	37.46
1939.408	34.12
1943.628	38.12
1947.845	34.79
1952.058	38.12
1956.267	36.46
1960.472	34.46
1964.673	33.12
1968.87	31.46
1973.063	30.46
1977.252	32.79
1981.438	29.46
1985.619	31.46
1989.797	29.79
1993.971	28.12
1998.14	28.79
2002.306	30.12
2006.469	29.46
2010.627	28.12
2014.781	31.79
2018.932	30.46
2023.078	31.79
2027.221	31.79
2031.36	33.12
2035.495	30.46
2039.627	30.79
2043.754	33.46
2047.878	30.46
2051.998	32.12
2056.114	31.12
2060.226	31.79
2064.334	32.79
2068.439	32.12
2072.54	31.46
2076.637	32.46
2080.73	32.79
2084.82	35.79
2088.906	35.12
2092.988	36.12
2097.066	34.79
2101.14	34.79
2105.211	35.12
2109.278	34.12
2113.342	35.46
2117.401	35.79
2121.457	35.46
2125.509	35.46
2129.558	30.79
2133.602	33.46
2137.643	29.12
2141.681	29.79
2145.714	28.12
2149.744	31.12
2153.77	25.12
2157.793	27.79
2161.812	24.79
2165.827	27.12
2169.838	25.12
2173.846	23.79
2177.851	22.46
2181.851	23.12
2185.848	20.79
2189.841	21.12
2193.831	20.46
2197.817	20.79
2201.799	18.12
2205.778	20.12
2209.753	15.46
2213.725	17.46
2217.693	18.12
2221.657	17.46
2225.618	17.79
2229.575	15.12
2233.529	16.12
2237.479	14.46
2241.425	13.79
2245.368	13.12
2249.307	11.46
2253.243	11.79
2257.175	11.79
2261.104	11.79
2265.029	8.46
2268.95	8.46
2272.868	8.46
2276.783	8.46
2280.694	6.79
2284.601	6.12
2288.505	4.46
2292.405	6.12
2296.302	5.79
2300.195	5.12
2304.085	3.79
2307.971	5.79
2311.854	2.46
2315.734	1.79
2319.609	1.12
2323.482	0.79
2327.351	-0.88
2331.216	1.79
2335.078	-0.54
2338.937	-1.54
2342.792	-0.54
2346.643	-0.88
2350.492	-2.54
2354.336	-1.21
2358.178	-2.54
2362.015	-1.21
2365.85	-0.21
2369.681	-1.54
2373.508	-3.21
2377.333	-4.88
2381.153	-2.88
2384.971	-3.21
2388.785	-3.54
2392.595	-2.88
2396.402	-3.21
2400.206	-3.88
2404.007	-6.88
2407.804	-4.88
2411.597	-3.21
2415.388	-1.54
2419.174	-2.21
2422.958	-3.88
2426.738	-5.21
2430.515	-3.54
2434.289	-4.54
2438.059	-6.54
2441.825	-3.54
2445.589	-4.88
2449.349	-4.54
2453.106	-4.88
2456.859	-4.88
2460.61	-3.21
2464.356	-4.54
2468.1	-5.54
2471.84	-5.21
2475.577	-6.88
2479.311	-5.21
2483.041	-5.21
2486.768	-6.21
2490.492	-7.88
2494.213	-7.54
2497.93	-7.88
2501.644	-4.21
2505.355	-7.88
2509.062	-6.54
2512.766	-6.54
2516.467	-9.88
2520.165	-5.54
2523.859	-9.88
2527.551	-7.88
2531.239	-8.88
2534.923	-7.88
2538.605	-7.88
2542.283	-7.88
2545.958	-5.21
2549.63	-7.88
2553.299	-9.54
2556.964	-9.21
2560.626	-6.88
2564.285	-7.88
2567.941	-6.54
2571.594	-11.21
2575.243	-8.21
2578.89	-12.21
2582.533	-9.54
2586.173	-10.88
2589.809	-10.88
2593.443	-10.88
2597.073	-9.21
2600.701	-9.21
2604.325	-12.88
2607.946	-10.88
2611.564	-11.54
2615.178	-10.21
2618.79	-12.21
2622.398	-11.88
2626.004	-11.21
2629.606	-8.88
2633.205	-12.88
2636.801	-12.21
2640.394	-11.88
2643.983	-11.88
2647.57	-14.21
2651.153	-12.21
2654.734	-13.21
2658.311	-12.21
2661.885	-13.21
2665.456	-12.21
2669.025	-10.54
2672.589	-12.21
2676.151	-11.21
2679.71	-11.88
2683.266	-11.88
2686.819	-11.54
2690.368	-11.54
2693.915	-12.54
2697.458	-10.88
2700.999	-9.54
2704.536	-9.88
2708.071	-9.21
2711.602	-12.54
2715.13	-11.54
2718.656	-11.54
2722.178	-10.21
2725.697	-11.88
2729.214	-12.88
2732.727	-10.54
2736.237	-9.88
2739.744	-8.21
2743.249	-6.54
2746.75	-10.54
2750.248	-9.88
2753.743	-10.21
2757.236	-6.54
2760.725	-8.21
2764.211	-8.54
2767.695	-8.88
2771.175	-5.21
2774.652	-8.88
2778.127	-8.54
2781.598	-7.21
2785.067	-8.54
2788.532	-7.88
2791.995	-7.88
2795.455	-7.88
2798.911	-7.54
2802.365	-5.88
2805.816	-5.54
2809.264	-5.21
2812.709	-5.54
2816.151	-4.54
2819.59	-6.54
2823.026	-4.88
2826.46	-7.54
2829.89	-5.21
2833.318	-2.88
2836.742	-4.54
2840.164	-3.21
2843.583	-4.21
2846.999	-2.88
2850.412	0.12
2853.822	-1.54
2857.229	-1.88
2860.634	1.79
2864.035	2.79
2867.434	2.12
2870.83	3.79
2874.223	7.12
2877.613	3.46
2881	6.46
2884.385	7.12
2887.766	8.79
2891.145	7.12
2894.521	7.46
2897.894	7.46
2901.264	9.12
2904.631	9.12
2907.996	11.12
2911.358	9.79
2914.717	11.12
2918.073	10.79
2921.426	13.79
2924.777	16.46
2928.124	14.79
2931.469	17.46
2934.811	18.46
2938.15	19.79
2941.487	20.12
2944.821	16.79
2948.152	20.12
2951.48	19.12
2954.805	21.79
2958.128	21.79
2961.447	24.12
2964.765	24.46
2968.079	25.46
2971.39	26.12
2974.699	28.79
2978.005	32.12
2981.308	35.12
2984.609	35.46
2987.907	39.79
2991.202	39.46
2994.494	39.79
2997.784	45.46
3001.07	42.12
3004.355	44.79
3007.636	47.46
3010.915	52.12
3014.191	52.12
3017.464	51.79
3020.734	52.79
3024.002	54.46
3027.267	56.79
3030.53	59.12
3033.789	60.12
3037.046	62.79
3040.301	66.12
3043.552	69.79
3046.801	73.12
3050.048	73.46
3053.291	78.46
3056.532	76.46
3059.771	87.79
3063.006	85.79
3066.239	91.79
3069.469	95.12
3072.697	96.79
3075.922	102.12
3079.144	107.46
3082.364	106.79
3085.581	113.79
3088.795	112.79
3092.007	120.46
3095.216	123.46
3098.423	129.12
3101.627	128.46
3104.828	139.12
3108.026	142.79
3111.222	141.79
3114.416	147.46
3117.607	150.46
3120.795	152.12
3123.98	161.12
3127.163	164.12
3130.344	166.79
3133.521	173.12
3136.696	175.79
3139.869	184.46
3143.039	186.79
3146.206	185.79
3149.371	193.79
3152.533	195.12
3155.693	194.12
3158.85	197.46
3162.005	199.12
3165.157	204.46
3168.306	204.79
3171.453	202.79
3174.597	200.79
3177.739	198.79
3180.878	203.79
3184.014	204.12
3187.149	211.12
3190.28	211.12
3193.409	211.46
3196.536	210.79
3199.659	215.79
3202.781	212.12
3205.9	216.79
3209.016	214.46
3212.13	216.12
3215.241	210.79
3218.35	210.46
3221.456	210.79
3224.56	207.12
3227.661	210.46
3230.76	211.79
3233.856	206.46
3236.95	204.79
3240.041	202.79
3243.13	198.12
3246.216	199.46
3249.3	198.79
3252.382	200.46
3255.46	201.79
3258.537	199.12
3261.611	198.46
3264.682	198.12
3267.751	195.79
3270.818	199.79
3273.882	201.46
3276.943	196.46
3280.002	195.12
3283.059	193.12
3286.113	186.79
3289.165	185.79
3292.214	187.12
3295.261	183.12
3298.306	178.12
3301.348	175.46
3304.387	168.79
3307.425	169.79
3310.459	171.46
3313.492	167.46
3316.521	166.12
3319.549	165.12
3322.574	162.46
3325.597	162.79
3328.617	157.79
3331.635	158.46
3334.65	157.12
3337.663	160.46
3340.674	157.46
3343.682	152.79
3346.688	152.12
3349.691	152.46
3352.692	155.12
3355.691	152.12
3358.687	151.46
3361.681	156.79
3364.673	150.79
3367.662	151.12
3370.649	149.12
3373.633	146.12
3376.615	148.12
3379.595	143.12
3382.572	143.46
3385.547	139.12
3388.52	135.79
3391.49	135.12
3394.458	133.79
3397.424	133.12
3400.387	134.79
3403.348	129.79
3406.307	130.46
3409.263	129.79
3412.217	127.46
3415.168	124.46
3418.118	126.46
3421.065	123.12
3424.009	122.12
3426.951	119.46
3429.891	119.46
3432.829	117.46
3435.764	119.46
3438.697	113.46
3441.628	111.79
3444.557	105.12
3447.483	100.79
3450.407	100.46
3453.328	98.79
3456.247	93.12
3459.164	90.79
3462.079	92.46
3464.991	88.12
3467.902	85.12
3470.809	83.79
3473.715	79.46
3476.618	77.46
3479.519	76.79
3482.418	73.79
3485.315	73.46
3488.209	69.12
3491.101	68.12
3493.99	67.46
3496.878	62.12
3499.763	60.79
3502.646	60.12
3505.527	56.12
3508.405	55.46
3511.281	53.46
3514.155	50.79
3517.027	47.46
3519.897	46.12
3522.764	43.79
3525.629	41.12
3528.492	38.79
3531.352	38.79
3534.211	36.79
3537.067	33.12
3539.921	32.12
3542.773	29.46
3545.622	27.12
3548.469	23.79
3551.315	21.79
3554.157	21.79
3556.998	21.12
3559.837	19.46
3562.673	17.46
3565.507	12.79
3568.339	14.79
3571.169	13.79
3573.996	11.12
3576.822	12.79
3579.645	12.12
3582.466	10.79
3585.285	9.46
3588.101	7.79
3590.916	7.79
3593.728	4.12
3596.538	0.12
3599.346	3.12
3602.152	1.46
3604.956	-1.21
3607.757	-0.88
3610.556	-2.54
3613.354	-2.54
3616.149	-3.88
3618.942	-6.21
3621.732	-6.21
3624.521	-5.88
3627.307	-5.54
3630.092	-8.21
3632.874	-7.21
3635.654	-4.21
3638.432	-6.21
3641.208	-8.21
3643.982	-8.54
3646.753	-13.21
3649.523	-12.21
3652.29	-11.21
3655.055	-13.21
3657.818	-14.21
3660.579	-14.54
3663.338	-13.21
3666.095	-15.88
3668.849	-14.54
3671.602	-18.54
3674.352	-16.54
3677.101	-14.21
3679.847	-16.21
3682.591	-15.54
3685.333	-16.21
3688.073	-16.54
3690.811	-16.54
3693.547	-16.21
3696.281	-18.54
3699.013	-18.88
3701.742	-18.21
3704.47	-21.54
3707.195	-20.54
3709.919	-19.54
3712.64	-17.21
3715.359	-19.54
3718.076	-19.21
3720.792	-18.88
3723.505	-21.21
3726.216	-19.88
3728.925	-18.21
3731.632	-20.21
3734.336	-18.88
3737.039	-19.88
3739.74	-19.54
3742.439	-19.54
3745.136	-21.21
3747.83	-20.88
3750.523	-22.88
3753.213	-23.54
3755.902	-20.88
3758.589	-22.21
3761.273	-20.88
3763.956	-23.21
3766.636	-23.21
3769.315	-23.54
3771.991	-22.88
3774.665	-23.21
3777.338	-21.54
3780.008	-20.88
3782.677	-19.88
3785.343	-20.88
3788.007	-22.21
3790.67	-25.21
3793.33	-23.21
3795.989	-24.21
3798.645	-25.21
3801.299	-24.88
3803.952	-23.54
3806.602	-25.21
3809.251	-24.21
3811.897	-23.54
3814.542	-26.21
3817.184	-23.88
3819.825	-22.54
3822.463	-22.21
3825.1	-22.88
3827.735	-22.54
3830.367	-22.88
3832.998	-22.88
3835.627	-24.88
3838.253	-23.54
3840.878	-27.21
3843.501	-25.88
3846.122	-27.88
3848.741	-26.21
3851.358	-26.54
3853.973	-28.54
3856.586	-25.88
3859.197	-23.21
3861.806	-25.21
3864.414	-24.88
3867.019	-25.54
3869.622	-23.54
3872.224	-22.54
3874.823	-19.88
3877.421	-19.88
3880.016	-17.54
3882.61	-15.54
3885.202	-15.88
3887.792	-15.21
3890.38	-18.21
3892.966	-21.54
3895.55	-25.21
3898.132	-25.21
3900.713	-22.54
3903.291	-25.54
3905.868	-24.88
3908.442	-21.88
3911.015	-22.21
3913.586	-23.88
3916.155	-24.54
3918.722	-23.54
3921.287	-24.54
3923.85	-24.54
3926.411	-22.88
3928.971	-24.54
3931.528	-24.21
3934.084	-25.21
3936.638	-26.21
3939.19	-26.21
3941.74	-24.54
3944.288	-25.88
3946.834	-24.21
3949.378	-23.88
3951.921	-23.88
3954.462	-22.54
3957	-22.54
3959.537	-22.88
3962.072	-24.88
3964.606	-22.21
3967.137	-25.21
3969.667	-24.21
3972.194	-24.54
3974.72	-24.54
3977.244	-24.21
3979.766	-24.54
3982.286	-24.88
3984.805	-25.54
3987.321	-25.88
3989.836	-27.54
3992.349	-27.88
3994.86	-23.88
3997.369	-22.88
3999.877	-22.88
4002.382	-26.21
4004.886	-24.54
4007.388	-25.21
4009.888	-22.88
4012.386	-25.21
4014.883	-24.21
4017.377	-26.54
4019.87	-27.21
4022.361	-24.88
4024.85	-24.54
4027.338	-28.88
4029.823	-28.88
4032.307	-27.54
4034.789	-25.88
4037.269	-25.54
4039.747	-26.88
4042.224	-26.88
4044.699	-23.88
4047.172	-24.88
4049.643	-25.54
4052.112	-24.21
4054.58	-22.88
4057.046	-25.88
4059.51	-24.21
4061.972	-25.54
4064.432	-24.88
4066.891	-23.88
4069.348	-23.21
4071.803	-25.21
4074.256	-25.21
4076.708	-24.88
4079.158	-21.21
4081.606	-22.54
4084.052	-21.88
4086.497	-24.21
4088.939	-22.54
4091.38	-23.88
4093.819	-22.88
4096.257	-23.88
4098.693	-22.88
4101.127	-24.21
4103.559	-24.88
4105.989	-10.21
4108.418	-10.88
4110.845	-12.54
4113.27	-9.21
4115.694	-8.88
4118.115	-8.54
4120.535	-23.21
4122.954	-24.54
4125.37	-23.88
4127.785	-21.88
4130.198	-25.54
4132.609	-22.88
4135.019	-25.88
4137.427	-26.21
4139.833	-25.21
4142.237	-24.88
