160.701	-33.04
166.742	-2.04
172.777	93.29
178.805	395.29
184.826	1091.62
190.841	2267.29
196.849	3562.96
202.85	4385.29
208.845	4536.96
214.833	4364.62
220.815	4177.62
226.789	4007.62
232.758	3893.29
238.719	3744.96
244.674	3565.96
250.623	3401.29
256.565	3212.29
262.5	3046.62
268.429	2888.62
274.351	2762.29
280.267	2631.29
286.176	2518.29
292.079	2419.96
297.975	2338.29
303.865	2263.62
309.748	2208.29
315.625	2139.29
321.495	2110.29
327.359	2070.96
333.217	2048.96
339.068	2040.62
344.912	2021.96
350.751	2016.96
356.583	2009.62
362.408	2013.62
368.227	2017.29
374.04	2026.96
379.847	2048.96
385.647	2061.96
391.44	2059.96
397.228	2042.62
403.009	2064.29
408.784	2098.62
414.553	2171.62
420.315	2226.62
426.071	2222.29
431.821	2146.29
437.565	2088.62
443.302	2055.62
449.033	2039.29
454.758	2011.29
460.477	2010.29
466.189	1980.29
471.896	1970.29
477.596	1952.29
483.29	1934.29
488.978	1926.96
494.66	1902.62
500.335	1884.62
506.005	1846.62
511.668	1800.62
517.325	1764.96
522.977	1722.96
528.622	1693.96
534.261	1677.29
539.894	1641.29
545.521	1628.96
551.141	1611.62
556.756	1598.96
562.365	1579.29
567.968	1567.96
573.565	1555.62
579.155	1537.62
584.74	1515.96
590.319	1497.96
595.892	1491.96
601.459	1465.62
607.02	1453.62
612.575	1425.96
618.124	1418.62
623.667	1393.96
629.204	1390.29
634.735	1377.62
640.261	1373.29
645.781	1382.62
651.294	1392.29
656.802	1352.62
662.304	1320.62
667.8	1294.29
673.29	1285.62
678.775	1265.96
684.254	1260.29
689.726	1253.62
695.193	1236.96
700.655	1210.96
706.11	1203.29
711.56	1185.96
717.004	1180.29
722.442	1156.96
727.874	1146.29
733.301	1140.29
738.722	1128.29
744.137	1123.62
749.547	1113.62
754.951	1113.29
760.349	1099.29
765.741	1096.62
771.128	1082.29
776.509	1073.29
781.885	1064.96
787.254	1051.62
792.618	1047.29
797.977	1023.62
803.33	1017.29
808.677	990.96
814.019	979.62
819.355	967.29
824.686	946.62
830.011	921.96
835.33	913.62
840.644	910.62
845.952	898.62
851.255	883.62
856.552	875.62
861.844	854.96
867.13	856.96
872.41	836.62
877.686	824.62
882.955	813.29
888.219	788.96
893.478	768.62
898.731	746.62
903.979	722.96
909.221	716.96
914.458	698.96
919.69	692.96
924.916	683.62
930.136	671.29
935.351	667.29
940.561	663.62
945.766	652.96
950.965	641.96
956.158	635.62
961.347	623.62
966.529	607.29
971.707	595.62
976.879	578.62
982.046	574.62
987.208	570.29
992.364	567.62
997.515	576.29
1002.66	571.62
1007.801	571.62
1012.936	569.96
1018.066	576.62
1023.19	584.29
1028.309	574.96
1033.423	570.96
1038.532	565.29
1043.636	558.62
1048.734	556.62
1053.827	544.62
1058.915	544.96
1063.998	528.62
1069.075	531.29
1074.147	533.29
1079.214	529.62
1084.276	531.29
1089.333	538.29
1094.385	540.62
1099.431	538.96
1104.472	534.96
1109.509	530.62
1114.54	518.62
1119.565	506.29
1124.586	502.62
1129.602	497.62
1134.613	489.96
1139.618	486.96
1144.619	489.62
1149.614	484.29
1154.604	487.96
1159.589	478.29
1164.57	484.96
1169.545	489.62
1174.515	490.96
1179.48	486.29
1184.44	478.29
1189.395	476.29
1194.345	468.62
1199.29	468.29
1204.23	469.62
1209.165	470.96
1214.095	462.96
1219.021	474.62
1223.941	474.29
1228.856	477.62
1233.766	477.29
1238.672	474.62
1243.572	474.62
1248.467	466.62
1253.358	457.62
1258.244	458.62
1263.124	446.29
1268	434.29
1272.871	426.29
1277.737	421.96
1282.599	421.29
1287.455	422.29
1292.306	423.62
1297.153	424.96
1301.995	424.29
1306.832	424.62
1311.664	421.62
1316.491	418.29
1321.314	415.62
1326.132	406.62
1330.945	402.62
1335.753	389.96
1340.556	382.62
1345.354	379.29
1350.148	374.62
1354.937	365.29
1359.722	360.96
1364.501	367.96
1369.276	363.29
1374.046	363.29
1378.811	365.62
1383.572	364.29
1388.327	357.29
1393.079	356.29
1397.825	343.96
1402.567	335.62
1407.304	340.62
1412.036	329.62
1416.764	332.29
1421.487	328.29
1426.205	330.96
1430.919	332.62
1435.628	335.96
1440.333	338.96
1445.032	342.62
1449.727	346.29
1454.418	344.29
1459.104	343.29
1463.785	339.96
1468.462	337.96
1473.134	327.62
1477.802	325.29
1482.465	324.29
1487.123	331.62
1491.777	332.29
1496.426	339.96
1501.071	338.62
1505.711	351.62
1510.347	361.96
1514.978	372.29
1519.604	369.96
1524.226	378.29
1528.844	381.62
1533.457	377.96
1538.065	380.96
1542.669	383.62
1547.269	390.96
1551.864	395.29
1556.454	398.96
1561.041	418.96
1565.622	419.29
1570.199	434.62
1574.772	448.29
1579.34	468.96
1583.904	491.62
1588.464	507.62
1593.019	518.96
1597.569	549.62
1602.115	559.29
1606.657	582.96
1611.195	594.29
1615.728	614.62
1620.256	630.62
1624.78	653.96
1629.3	677.29
1633.816	697.62
1638.327	707.29
1642.834	723.29
1647.336	725.62
1651.834	725.29
1656.328	714.62
1660.817	704.29
1665.302	679.96
1669.783	652.96
1674.259	624.62
1678.732	591.62
1683.199	552.62
1687.663	512.96
1692.122	483.29
1696.577	451.29
1701.028	413.62
1705.474	389.29
1709.917	360.96
1714.355	340.96
1718.788	315.96
1723.218	293.29
1727.643	271.96
1732.064	251.96
1736.481	237.29
1740.893	218.96
1745.301	199.62
1749.705	183.96
1754.105	174.62
1758.501	160.29
1762.893	146.29
1767.28	136.29
1771.663	136.62
1776.042	124.62
1780.417	117.62
1784.787	114.62
1789.154	116.96
1793.516	110.29
1797.874	107.96
1802.228	103.96
1806.578	100.29
1810.924	97.96
1815.266	88.96
1819.603	85.29
1823.937	84.96
1828.266	79.96
1832.591	80.62
1836.913	78.62
1841.23	70.62
1845.543	74.29
1849.852	73.62
1854.156	71.96
1858.457	72.62
1862.754	72.29
1867.047	73.96
1871.335	72.62
1875.62	73.29
1879.9	73.62
1884.177	73.62
1888.449	68.96
1892.718	71.29
1896.982	72.29
1901.243	70.96
1905.499	71.29
1909.752	71.62
1914	73.62
1918.245	72.29
1922.485	74.96
1926.722	75.29
1930.954	84.29
1935.183	82.62
1939.408	80.62
1943.628	84.29
1947.845	80.96
1952.058	83.96
1956.267	82.29
1960.472	79.96
1964.673	78.29
1968.87	76.96
1973.063	77.96
1977.252	78.29
1981.438	74.96
1985.619	76.96
1989.797	75.29
1993.971	75.29
1998.14	83.62
2002.306	81.29
2006.469	83.29
2010.627	83.62
2014.781	88.29
2018.932	86.96
2023.078	88.96
2027.221	89.29
2031.36	83.96
2035.495	87.96
2039.627	87.62
2043.754	86.96
2047.878	87.96
2051.998	88.62
2056.114	90.62
2060.226	93.62
2064.334	93.62
2068.439	98.62
2072.54	95.96
2076.637	98.96
2080.73	101.96
2084.82	105.29
2088.906	107.29
2092.988	105.96
2097.066	106.62
2101.14	104.96
2105.211	103.96
2109.278	100.29
2113.342	95.96
2117.401	98.62
2121.457	96.96
2125.509	95.29
2129.558	95.29
2133.602	87.96
2137.643	91.96
2141.681	88.29
2145.714	85.62
2149.744	79.96
2153.77	79.62
2157.793	82.96
2161.812	73.62
2165.827	69.62
2169.838	69.62
2173.846	64.62
2177.851	60.29
2181.851	52.96
2185.848	50.62
2189.841	51.62
2193.831	45.96
2197.817	46.29
2201.799	43.96
2205.778	40.29
2209.753	38.62
2213.725	36.62
2217.693	36.29
2221.657	29.96
2225.618	32.96
2229.575	29.29
2233.529	25.29
2237.479	21.96
2241.425	20.96
2245.368	12.96
2249.307	7.96
2253.243	7.96
2257.175	4.29
2261.104	3.96
2265.029	0.96
2268.95	0.29
2272.868	-5.38
2276.783	-5.38
2280.694	-6.71
2284.601	-9.38
2288.505	-12.71
2292.405	-13.04
2296.302	-16.04
2300.195	-17.71
2304.085	-23.71
2307.971	-22.71
2311.854	-27.71
2315.734	-26.71
2319.609	-30.38
2323.482	-32.38
2327.351	-31.04
2331.216	-29.38
2335.078	-30.38
2338.937	-34.38
2342.792	-34.38
2346.643	-38.38
2350.492	-37.71
2354.336	-40.04
2358.178	-39.71
2362.015	-40.38
2365.85	-40.04
2369.681	-41.04
2373.508	-40.38
2377.333	-43.04
2381.153	-41.38
2384.971	-43.71
2388.785	-46.04
2392.595	-45.71
2396.402	-45.04
2400.206	-46.04
2404.007	-50.38
2407.804	-48.38
2411.597	-48.04
2415.388	-44.71
2419.174	-47.38
2422.958	-51.04
2426.738	-49.71
2430.515	-50.38
2434.289	-52.71
2438.059	-52.71
2441.825	-54.04
2445.589	-55.71
2449.349	-54.71
2453.106	-52.38
2456.859	-55.04
2460.61	-54.38
2464.356	-54.04
2468.1	-55.71
2471.84	-56.71
2475.577	-60.38
2479.311	-57.04
2483.041	-58.04
2486.768	-58.71
2490.492	-58.71
2494.213	-60.71
2497.93	-60.71
2501.644	-59.71
2505.355	-58.04
2509.062	-60.38
2512.766	-62.38
2516.467	-60.38
2520.165	-60.71
2523.859	-64.04
2527.551	-61.71
2531.239	-59.04
2534.923	-64.38
2538.605	-63.38
2542.283	-60.71
2545.958	-59.38
2549.63	-62.04
2553.299	-61.71
2556.964	-64.04
2560.626	-62.71
2564.285	-64.38
2567.941	-63.71
2571.594	-66.38
2575.243	-67.04
2578.89	-66.38
2582.533	-67.71
2586.173	-66.38
2589.809	-68.04
2593.443	-66.71
2597.073	-67.71
2600.701	-66.04
2604.325	-68.38
2607.946	-67.04
2611.564	-67.71
2615.178	-66.04
2618.79	-68.71
2622.398	-70.38
2626.004	-67.71
2629.606	-66.71
2633.205	-72.38
2636.801	-69.04
2640.394	-70.04
2643.983	-72.38
2647.57	-71.04
2651.153	-70.71
2654.734	-68.38
2658.311	-68.04
2661.885	-69.38
2665.456	-69.04
2669.025	-67.38
2672.589	-67.71
2676.151	-67.38
2679.71	-67.71
2683.266	-68.71
2686.819	-68.04
2690.368	-68.04
2693.915	-71.71
2697.458	-69.38
2700.999	-69.71
2704.536	-67.38
2708.071	-70.71
2711.602	-69.38
2715.13	-65.04
2718.656	-66.71
2722.178	-64.38
2725.697	-67.38
2729.214	-63.04
2732.727	-62.04
2736.237	-61.38
2739.744	-59.38
2743.249	-59.38
2746.75	-62.38
2750.248	-58.04
2753.743	-57.71
2757.236	-58.04
2760.725	-59.04
2764.211	-57.38
2767.695	-54.38
2771.175	-55.38
2774.652	-55.38
2778.127	-51.71
2781.598	-51.38
2785.067	-52.38
2788.532	-49.38
2791.995	-50.71
2795.455	-48.71
2798.911	-46.04
2802.365	-45.38
2805.816	-42.38
2809.264	-43.71
2812.709	-40.71
2816.151	-37.04
2819.59	-39.71
2823.026	-35.71
2826.46	-34.38
2829.89	-34.38
2833.318	-28.71
2836.742	-28.04
2840.164	-26.04
2843.583	-23.71
2846.999	-19.71
2850.412	-19.04
2853.822	-17.04
2857.229	-13.04
2860.634	-14.38
2864.035	-7.38
2867.434	-6.38
2870.83	-1.71
2874.223	2.29
2877.613	3.29
2881	6.62
2884.385	7.96
2887.766	12.96
2891.145	16.62
2894.521	21.96
2897.894	21.29
2901.264	26.29
2904.631	25.62
2907.996	29.29
2911.358	31.62
2914.717	38.96
2918.073	40.29
2921.426	46.29
2924.777	50.29
2928.124	51.62
2931.469	61.96
2934.811	65.29
2938.15	70.29
2941.487	73.96
2944.821	76.62
2948.152	82.29
2951.48	86.29
2954.805	91.96
2958.128	97.62
2961.447	105.96
2964.765	109.62
2968.079	112.29
2971.39	118.96
2974.699	122.29
2978.005	136.29
2981.308	147.62
2984.609	151.62
2987.907	161.29
2991.202	173.29
2994.494	175.29
2997.784	190.96
3001.07	200.96
3004.355	210.62
3007.636	218.29
3010.915	223.29
3014.191	232.96
3017.464	242.29
3020.734	247.29
3024.002	257.29
3027.267	267.29
3030.53	271.62
3033.789	284.29
3037.046	291.62
3040.301	304.62
3043.552	318.29
3046.801	325.29
3050.048	344.62
3053.291	359.29
3056.532	368.29
3059.771	387.62
3063.006	404.29
3066.239	423.96
3069.469	436.96
3072.697	455.96
3075.922	475.96
3079.144	495.96
3082.364	512.29
3085.581	522.29
3088.795	543.62
3092.007	557.96
3095.216	571.62
3098.423	588.96
3101.627	607.96
3104.828	629.62
3108.026	643.29
3111.222	662.29
3114.416	678.96
3117.607	702.29
3120.795	720.96
3123.98	744.29
3127.163	766.62
3130.344	790.62
3133.521	808.29
3136.696	828.29
3139.869	850.29
3143.039	858.62
3146.206	876.29
3149.371	895.62
3152.533	901.96
3155.693	916.62
3158.85	919.96
3162.005	926.29
3165.157	936.96
3168.306	944.29
3171.453	939.62
3174.597	951.96
3177.739	953.29
3180.878	964.29
3184.014	964.96
3187.149	973.29
3190.28	982.29
3193.409	986.62
3196.536	980.29
3199.659	993.96
3202.781	995.62
3205.9	999.96
3209.016	996.96
3212.13	998.29
3215.241	987.29
3218.35	989.29
3221.456	981.62
3224.56	986.96
3227.661	967.96
3230.76	968.96
3233.856	957.29
3236.95	953.62
3240.041	950.29
3243.13	945.29
3246.216	936.29
3249.3	934.96
3252.382	933.29
3255.46	939.29
3258.537	932.62
3261.611	922.96
3264.682	930.29
3267.751	927.96
3270.818	925.62
3273.882	917.29
3276.943	914.62
3280.002	901.62
3283.059	895.96
3286.113	880.29
3289.165	869.96
3292.214	854.96
3295.261	845.62
3298.306	836.96
3301.348	813.96
3304.387	804.29
3307.425	794.96
3310.459	780.29
3313.492	777.96
3316.521	768.62
3319.549	764.62
3322.574	750.96
3325.597	741.29
3328.617	744.96
3331.635	739.96
3334.65	738.29
3337.663	733.29
3340.674	736.29
3343.682	721.62
3346.688	738.96
3349.691	728.62
3352.692	724.62
3355.691	715.29
3358.687	716.96
3361.681	704.96
3364.673	694.29
3367.662	689.62
3370.649	685.62
3373.633	678.62
3376.615	664.96
3379.595	649.29
3382.572	649.29
3385.547	640.96
3388.52	638.29
3391.49	623.29
3394.458	620.62
3397.424	617.62
3400.387	604.96
3403.348	594.29
3406.307	592.62
3409.263	586.29
3412.217	581.29
3415.168	569.96
3418.118	570.62
3421.065	567.62
3424.009	552.62
3426.951	545.62
3429.891	546.96
3432.829	535.29
3435.764	530.29
3438.697	516.62
3441.628	504.62
3444.557	486.62
3447.483	475.62
3450.407	461.29
3453.328	446.62
3456.247	435.62
3459.164	420.29
3462.079	410.96
3464.991	393.96
3467.902	385.29
3470.809	372.62
3473.715	363.62
3476.618	352.29
3479.519	340.96
3482.418	335.62
3485.315	322.62
3488.209	312.29
3491.101	313.96
3493.99	297.62
3496.878	289.62
3499.763	280.62
3502.646	270.96
3505.527	260.62
3508.405	249.96
3511.281	241.29
3514.155	225.62
3517.027	216.96
3519.897	205.62
3522.764	194.96
3525.629	189.96
3528.492	175.96
3531.352	163.29
3534.211	153.96
3537.067	143.29
3539.921	132.96
3542.773	124.62
3545.622	120.96
3548.469	111.96
3551.315	102.96
3554.157	96.29
3556.998	87.62
3559.837	79.96
3562.673	75.96
3565.507	68.62
3568.339	61.96
3571.169	57.96
3573.996	48.29
3576.822	46.62
3579.645	42.29
3582.466	34.29
3585.285	29.62
3588.101	23.96
3590.916	23.29
3593.728	18.62
3596.538	10.62
3599.346	3.96
3602.152	2.62
3604.956	-1.38
3607.757	-6.38
3610.556	-12.71
3613.354	-13.38
3616.149	-18.71
3618.942	-24.04
3621.732	-27.71
3624.521	-29.38
3627.307	-32.04
3630.092	-35.38
3632.874	-37.38
3635.654	-36.38
3638.432	-41.71
3641.208	-43.04
3643.982	-43.04
3646.753	-50.38
3649.523	-49.04
3652.29	-51.04
3655.055	-55.71
3657.818	-60.38
3660.579	-63.71
3663.338	-65.38
3666.095	-66.38
3668.849	-68.04
3671.602	-73.04
3674.352	-73.71
3677.101	-75.38
3679.847	-76.71
3682.591	-77.38
3685.333	-79.04
3688.073	-77.04
3690.811	-79.38
3693.547	-79.71
3696.281	-81.38
3699.013	-84.71
3701.742	-83.38
3704.47	-85.38
3707.195	-87.04
3709.919	-87.71
3712.64	-89.38
3715.359	-91.71
3718.076	-89.71
3720.792	-89.38
3723.505	-94.04
3726.216	-95.38
3728.925	-93.04
3731.632	-95.38
3734.336	-95.04
3737.039	-96.04
3739.74	-97.38
3742.439	-97.04
3745.136	-96.04
3747.83	-98.04
3750.523	-98.71
3753.213	-96.38
3755.902	-100.04
3758.589	-100.38
3761.273	-100.38
3763.956	-103.04
3766.636	-103.71
3769.315	-102.38
3771.991	-101.38
3774.665	-102.71
3777.338	-103.71
3780.008	-102.71
3782.677	-102.38
3785.343	-102.71
3788.007	-102.04
3790.67	-104.71
3793.33	-103.04
3795.989	-104.38
3798.645	-104.38
3801.299	-105.71
3803.952	-103.71
3806.602	-105.38
3809.251	-106.71
3811.897	-105.38
3814.542	-108.71
3817.184	-108.04
3819.825	-107.71
3822.463	-106.38
3825.1	-108.71
3827.735	-109.38
3830.367	-106.71
3832.998	-107.38
3835.627	-107.04
3838.253	-108.38
3840.878	-109.04
3843.501	-109.04
3846.122	-108.38
3848.741	-108.38
3851.358	-109.71
3853.973	-112.38
3856.586	-109.38
3859.197	-108.04
3861.806	-108.04
3864.414	-109.71
3867.019	-110.38
3869.622	-110.71
3872.224	-108.04
3874.823	-103.04
3877.421	-103.38
3880.016	-99.38
3882.61	-96.04
3885.202	-91.71
3887.792	-95.38
3890.38	-101.04
3892.966	-103.71
3895.55	-106.04
3898.132	-109.04
3900.713	-108.71
3903.291	-110.71
3905.868	-111.04
3908.442	-110.71
3911.015	-111.71
3913.586	-112.04
3916.155	-111.38
3918.722	-110.71
3921.287	-108.38
3923.85	-110.38
3926.411	-108.71
3928.971	-108.38
3931.528	-110.38
3934.084	-107.71
3936.638	-109.38
3939.19	-109.04
3941.74	-109.38
3944.288	-111.38
3946.834	-110.04
3949.378	-110.04
3951.921	-111.04
3954.462	-111.38
3957	-108.71
3959.537	-110.38
3962.072	-109.71
3964.606	-111.04
3967.137	-110.04
3969.667	-110.71
3972.194	-109.38
3974.72	-109.38
3977.244	-109.04
3979.766	-107.38
3982.286	-109.04
3984.805	-108.71
3987.321	-108.71
3989.836	-109.38
3992.349	-111.38
3994.86	-108.71
3997.369	-108.04
3999.877	-109.71
4002.382	-111.04
4004.886	-111.04
4007.388	-108.71
4009.888	-110.71
4012.386	-111.04
4014.883	-109.38
4017.377	-111.38
4019.87	-112.04
4022.361	-108.71
4024.85	-108.71
4027.338	-110.04
4029.823	-111.04
4032.307	-111.38
4034.789	-110.71
4037.269	-110.71
4039.747	-112.38
4042.224	-112.71
4044.699	-110.04
4047.172	-110.71
4049.643	-110.71
4052.112	-111.04
4054.58	-109.04
4057.046	-111.71
4059.51	-110.04
4061.972	-113.04
4064.432	-109.38
4066.891	-109.38
4069.348	-107.38
4071.803	-108.71
4074.256	-110.04
4076.708	-110.04
4079.158	-108.04
4081.606	-107.71
4084.052	-108.71
4086.497	-107.38
4088.939	-109.38
4091.38	-110.04
4093.819	-109.04
4096.257	-111.04
4098.693	-111.04
4101.127	-111.38
4103.559	-112.04
4105.989	-71.38
4108.418	-68.71
4110.845	-65.04
4113.27	-63.04
4115.694	-54.71
4118.115	-48.04
4120.535	-108.71
4122.954	-109.38
4125.37	-109.04
4127.785	-107.04
4130.198	-110.71
4132.609	-109.04
4135.019	-113.71
4137.427	-114.38
4139.833	-112.38
4142.237	-113.04
