160.701	-33.54
166.742	0.46
172.777	97.79
178.805	397.79
184.826	1105.79
190.841	2297.79
196.849	3633.79
202.85	4499.46
208.845	4674.12
214.833	4503.12
220.815	4301.79
226.789	4153.46
232.758	4013.79
238.719	3873.12
244.674	3700.46
250.623	3501.46
256.565	3308.46
262.5	3132.46
268.429	2981.12
274.351	2845.46
280.267	2709.12
286.176	2591.46
292.079	2501.79
297.975	2407.12
303.865	2338.46
309.748	2262.79
315.625	2203.46
321.495	2146.79
327.359	2125.46
333.217	2107.12
339.068	2082.79
344.912	2072.79
350.751	2067.12
356.583	2050.46
362.408	2061.12
368.227	2058.46
374.04	2070.79
379.847	2104.46
385.647	2113.46
391.44	2108.46
397.228	2117.12
403.009	2123.79
408.784	2157.46
414.553	2204.12
420.315	2278.46
426.071	2280.79
431.821	2198.46
437.565	2125.46
443.302	2107.12
449.033	2090.46
454.758	2072.79
460.477	2054.12
466.189	2039.46
471.896	2018.79
477.596	1993.79
483.29	1991.12
488.978	1975.12
494.66	1965.12
500.335	1933.46
506.005	1887.12
511.668	1841.79
517.325	1796.12
522.977	1767.12
528.622	1743.79
534.261	1707.12
539.894	1684.46
545.521	1676.79
551.141	1659.79
556.756	1640.79
562.365	1622.46
567.968	1610.12
573.565	1587.12
579.155	1563.46
584.74	1566.46
590.319	1538.12
595.892	1518.46
601.459	1511.12
607.02	1491.12
612.575	1469.79
618.124	1446.79
623.667	1428.46
629.204	1413.12
634.735	1403.12
640.261	1409.12
645.781	1417.12
651.294	1418.46
656.802	1389.79
662.304	1349.79
667.8	1329.79
673.29	1317.12
678.775	1297.79
684.254	1278.12
689.726	1271.46
695.193	1252.12
700.655	1239.46
706.11	1231.46
711.56	1203.79
717.004	1198.46
722.442	1188.12
727.874	1171.46
733.301	1163.12
738.722	1152.12
744.137	1151.46
749.547	1148.12
754.951	1139.46
760.349	1127.12
765.741	1110.12
771.128	1095.46
776.509	1089.12
781.885	1078.79
787.254	1076.79
792.618	1061.79
797.977	1044.46
803.33	1026.79
808.677	1017.46
814.019	1001.46
819.355	983.79
824.686	966.12
830.011	960.79
835.33	938.46
840.644	931.12
845.952	913.46
851.255	903.12
856.552	892.79
861.844	880.46
867.13	870.12
872.41	860.12
877.686	855.12
882.955	844.12
888.219	822.46
893.478	789.12
898.731	763.79
903.979	739.79
909.221	724.46
914.458	707.46
919.69	703.46
924.916	691.12
930.136	687.79
935.351	682.79
940.561	672.12
945.766	666.46
950.965	658.12
956.158	651.12
961.347	632.12
966.529	616.79
971.707	605.79
976.879	594.12
982.046	585.46
987.208	579.79
992.364	576.12
997.515	572.79
1002.66	580.79
1007.801	581.46
1012.936	587.46
1018.066	589.12
1023.19	592.46
1028.309	586.46
1033.423	587.12
1038.532	578.12
1043.636	574.46
1048.734	570.46
1053.827	561.46
1058.915	544.46
1063.998	541.79
1069.075	540.46
1074.147	540.79
1079.214	547.79
1084.276	547.12
1089.333	550.79
1094.385	553.46
1099.431	548.79
1104.472	543.46
1109.509	536.46
1114.54	522.79
1119.565	518.12
1124.586	504.79
1129.602	503.46
1134.613	492.46
1139.618	495.79
1144.619	492.12
1149.614	493.12
1154.604	492.79
1159.589	500.12
1164.57	497.79
1169.545	496.79
1174.515	498.79
1179.48	489.46
1184.44	487.46
1189.395	484.79
1194.345	479.12
1199.29	467.79
1204.23	474.12
1209.165	479.12
1214.095	475.12
1219.021	481.46
1223.941	481.12
1228.856	486.79
1233.766	487.79
1238.672	483.79
1243.572	486.12
1248.467	474.12
1253.358	471.46
1258.244	464.12
1263.124	450.46
1268	444.12
1272.871	437.46
1277.737	437.79
1282.599	433.12
1287.455	436.79
1292.306	432.46
1297.153	430.79
1301.995	432.79
1306.832	430.46
1311.664	432.12
1316.491	423.12
1321.314	421.46
1326.132	418.12
1330.945	407.12
1335.753	395.46
1340.556	387.46
1345.354	379.79
1350.148	378.79
1354.937	368.12
1359.722	373.46
1364.501	376.46
1369.276	367.46
1374.046	373.46
1378.811	366.79
1383.572	374.46
1388.327	369.12
1393.079	362.79
1397.825	354.46
1402.567	346.79
1407.304	341.12
1412.036	335.79
1416.764	334.12
1421.487	334.79
1426.205	338.12
1430.919	337.12
1435.628	340.46
1440.333	348.12
1445.032	345.46
1449.727	352.12
1454.418	357.79
1459.104	363.12
1463.785	353.12
1468.462	347.46
1473.134	346.79
1477.802	339.46
1482.465	335.46
1487.123	344.46
1491.777	339.46
1496.426	343.46
1501.071	359.46
1505.711	363.12
1510.347	367.12
1514.978	378.79
1519.604	378.12
1524.226	388.79
1528.844	386.79
1533.457	389.46
1538.065	389.46
1542.669	394.46
1547.269	392.79
1551.864	401.79
1556.454	407.46
1561.041	423.79
1565.622	426.79
1570.199	441.79
1574.772	458.46
1579.34	476.79
1583.904	496.79
1588.464	522.12
1593.019	537.79
1597.569	563.46
1602.115	570.79
1606.657	597.79
1611.195	610.79
1615.728	630.46
1620.256	653.79
1624.78	679.12
1629.3	695.79
1633.816	719.12
1638.327	733.12
1642.834	741.79
1647.336	747.12
1651.834	742.46
1656.328	723.12
1660.817	725.12
1665.302	705.79
1669.783	676.79
1674.259	641.79
1678.732	603.46
1683.199	570.79
1687.663	535.79
1692.122	490.46
1696.577	460.79
1701.028	429.12
1705.474	400.79
1709.917	375.12
1714.355	355.12
1718.788	325.79
1723.218	303.79
1727.643	286.46
1732.064	262.79
1736.481	245.12
1740.893	222.12
1745.301	203.46
1749.705	188.46
1754.105	173.79
1758.501	158.79
1762.893	151.46
1767.28	138.46
1771.663	134.46
1776.042	124.46
1780.417	125.79
1784.787	118.79
1789.154	118.46
1793.516	113.79
1797.874	111.46
1802.228	107.79
1806.578	106.12
1810.924	101.46
1815.266	92.46
1819.603	90.46
1823.937	82.46
1828.266	80.12
1832.591	78.79
1836.913	82.12
1841.23	71.12
1845.543	74.46
1849.852	74.12
1854.156	73.46
1858.457	70.79
1862.754	74.46
1867.047	68.79
1871.335	68.46
1875.62	70.79
1879.9	74.12
1884.177	71.79
1888.449	74.12
1892.718	68.79
1896.982	76.46
1901.243	71.46
1905.499	74.12
1909.752	68.79
1914	74.46
1918.245	78.12
1922.485	79.12
1926.722	78.46
1930.954	81.46
1935.183	82.79
1939.408	83.12
1943.628	88.12
1947.845	82.46
1952.058	85.46
1956.267	80.12
1960.472	83.46
1964.673	77.46
1968.87	78.46
1973.063	76.46
1977.252	76.46
1981.438	75.46
1985.619	79.79
1989.797	75.12
1993.971	80.46
1998.14	80.46
2002.306	82.79
2006.469	82.12
2010.627	88.12
2014.781	90.12
2018.932	90.12
2023.078	93.46
2027.221	89.46
2031.36	92.46
2035.495	87.12
2039.627	91.12
2043.754	90.46
2047.878	93.46
2051.998	92.79
2056.114	91.12
2060.226	93.79
2064.334	96.46
2068.439	98.46
2072.54	99.12
2076.637	102.46
2080.73	103.12
2084.82	107.46
2088.906	109.46
2092.988	110.79
2097.066	110.12
2101.14	109.12
2105.211	108.12
2109.278	105.46
2113.342	102.12
2117.401	103.12
2121.457	101.46
2125.509	99.46
2129.558	96.12
2133.602	97.46
2137.643	94.46
2141.681	88.46
2145.714	89.46
2149.744	84.79
2153.77	81.79
2157.793	80.12
2161.812	74.79
2165.827	72.12
2169.838	69.46
2173.846	64.79
2177.851	59.12
2181.851	60.12
2185.848	54.12
2189.841	51.79
2193.831	46.46
2197.817	43.79
2201.799	44.12
2205.778	41.79
2209.753	39.12
2213.725	36.79
2217.693	36.46
2221.657	37.12
2225.618	35.79
2229.575	28.79
2233.529	30.12
2237.479	23.12
2241.425	21.12
2245.368	19.46
2249.307	13.79
2253.243	8.12
2257.175	4.46
2261.104	4.12
2265.029	1.46
2268.95	-2.21
2272.868	-4.88
2276.783	-5.88
2280.694	-9.54
2284.601	-11.54
2288.505	-13.21
2292.405	-13.88
2296.302	-14.88
2300.195	-17.21
2304.085	-21.54
2307.971	-22.54
2311.854	-22.88
2315.734	-27.54
2319.609	-24.54
2323.482	-28.88
2327.351	-30.21
2331.216	-29.21
2335.078	-31.88
2338.937	-31.88
2342.792	-37.88
2346.643	-39.21
2350.492	-40.21
2354.336	-40.54
2358.178	-43.88
2362.015	-39.88
2365.85	-42.88
2369.681	-43.21
2373.508	-42.54
2377.333	-44.21
2381.153	-42.21
2384.971	-43.88
2388.785	-43.21
2392.595	-43.88
2396.402	-43.54
2400.206	-45.88
2404.007	-49.21
2407.804	-46.54
2411.597	-45.88
2415.388	-48.88
2419.174	-47.21
2422.958	-51.54
2426.738	-52.21
2430.515	-50.88
2434.289	-56.21
2438.059	-55.21
2441.825	-54.88
2445.589	-56.21
2449.349	-58.21
2453.106	-56.54
2456.859	-55.54
2460.61	-57.88
2464.356	-57.54
2468.1	-57.88
2471.84	-59.88
2475.577	-59.88
2479.311	-57.88
2483.041	-57.54
2486.768	-59.54
2490.492	-57.88
2494.213	-60.88
2497.93	-59.21
2501.644	-59.88
2505.355	-61.88
2509.062	-61.21
2512.766	-60.54
2516.467	-61.21
2520.165	-62.21
2523.859	-65.88
2527.551	-61.88
2531.239	-62.88
2534.923	-65.21
2538.605	-64.88
2542.283	-64.54
2545.958	-65.88
2549.63	-63.54
2553.299	-63.88
2556.964	-66.21
2560.626	-65.88
2564.285	-63.88
2567.941	-64.88
2571.594	-65.54
2575.243	-64.88
2578.89	-66.88
2582.533	-67.21
2586.173	-68.21
2589.809	-67.54
2593.443	-67.54
2597.073	-69.21
2600.701	-68.21
2604.325	-71.88
2607.946	-68.21
2611.564	-69.88
2615.178	-71.54
2618.79	-72.21
2622.398	-71.54
2626.004	-71.54
2629.606	-70.88
2633.205	-70.88
2636.801	-73.21
2640.394	-72.54
2643.983	-72.54
2647.57	-72.21
2651.153	-71.88
2654.734	-70.88
2658.311	-70.21
2661.885	-70.21
2665.456	-70.54
2669.025	-67.21
2672.589	-71.54
2676.151	-68.21
2679.71	-71.21
2683.266	-71.54
2686.819	-69.88
2690.368	-68.88
2693.915	-71.54
2697.458	-70.21
2700.999	-68.21
2704.536	-70.88
2708.071	-68.54
2711.602	-69.54
2715.13	-66.88
2718.656	-66.54
2722.178	-67.54
2725.697	-68.21
2729.214	-66.21
2732.727	-62.21
2736.237	-62.88
2739.744	-61.88
2743.249	-59.54
2746.75	-63.21
2750.248	-59.88
2753.743	-57.54
2757.236	-54.88
2760.725	-57.88
2764.211	-57.54
2767.695	-55.54
2771.175	-53.88
2774.652	-55.21
2778.127	-51.21
2781.598	-50.21
2785.067	-51.88
2788.532	-49.21
2791.995	-48.54
2795.455	-51.54
2798.911	-44.54
2802.365	-47.21
2805.816	-43.21
2809.264	-44.88
2812.709	-38.54
2816.151	-38.54
2819.59	-36.88
2823.026	-34.21
2826.46	-34.54
2829.89	-31.54
2833.318	-28.54
2836.742	-27.21
2840.164	-24.54
2843.583	-20.54
2846.999	-17.21
2850.412	-19.21
2853.822	-13.88
2857.229	-13.54
2860.634	-6.54
2864.035	-6.88
2867.434	0.46
2870.83	4.12
2874.223	6.79
2877.613	8.46
2881	11.46
2884.385	14.46
2887.766	20.46
2891.145	20.46
2894.521	24.79
2897.894	28.79
2901.264	28.79
2904.631	33.79
2907.996	37.12
2911.358	37.46
2914.717	43.46
2918.073	44.79
2921.426	52.12
2924.777	55.12
2928.124	59.12
2931.469	64.79
2934.811	72.46
2938.15	77.79
2941.487	84.46
2944.821	82.79
2948.152	92.12
2951.48	95.46
2954.805	96.46
2958.128	103.79
2961.447	111.12
2964.765	114.79
2968.079	120.79
2971.39	125.79
2974.699	135.79
2978.005	144.46
2981.308	157.46
2984.609	161.46
2987.907	170.79
2991.202	179.46
2994.494	190.46
2997.784	200.79
3001.07	214.46
3004.355	216.12
3007.636	227.79
3010.915	235.46
3014.191	240.79
3017.464	253.46
3020.734	261.46
3024.002	266.79
3027.267	273.79
3030.53	284.79
3033.789	293.12
3037.046	305.46
3040.301	319.79
3043.552	330.46
3046.801	343.12
3050.048	356.12
3053.291	369.79
3056.532	381.79
3059.771	400.79
3063.006	410.79
3066.239	438.46
3069.469	455.79
3072.697	477.79
3075.922	492.12
3079.144	514.79
3082.364	530.12
3085.581	543.46
3088.795	560.46
3092.007	580.79
3095.216	592.79
3098.423	613.12
3101.627	631.79
3104.828	651.79
3108.026	675.79
3111.222	691.12
3114.416	713.79
3117.607	733.46
3120.795	753.12
3123.98	768.12
3127.163	792.46
3130.344	815.12
3133.521	843.79
3136.696	854.79
3139.869	885.46
3143.039	891.79
3146.206	915.46
3149.371	926.79
3152.533	937.79
3155.693	948.46
3158.85	955.12
3162.005	954.46
3165.157	971.46
3168.306	975.46
3171.453	985.12
3174.597	985.46
3177.739	988.79
3180.878	1000.46
3184.014	1013.12
3187.149	1009.46
3190.28	1003.79
3193.409	1020.46
3196.536	1025.46
3199.659	1028.46
3202.781	1034.46
3205.9	1034.12
3209.016	1029.46
3212.13	1037.79
3215.241	1032.79
3218.35	1027.12
3221.456	1028.79
3224.56	1011.79
3227.661	1008.79
3230.76	1001.46
3233.856	1005.79
3236.95	984.46
3240.041	991.12
3243.13	983.79
3246.216	974.12
3249.3	969.46
3252.382	965.46
3255.46	979.79
3258.537	961.12
3261.611	961.46
3264.682	963.46
3267.751	957.79
3270.818	957.46
3273.882	951.12
3276.943	938.79
3280.002	936.46
3283.059	929.46
3286.113	915.12
3289.165	893.46
3292.214	887.12
3295.261	876.12
3298.306	862.12
3301.348	845.79
3304.387	834.79
3307.425	828.46
3310.459	818.12
3313.492	808.12
3316.521	796.46
3319.549	789.79
3322.574	778.46
3325.597	780.79
3328.617	769.79
3331.635	775.46
3334.65	758.79
3337.663	764.79
3340.674	761.46
3343.682	758.12
3346.688	755.12
3349.691	753.79
3352.692	750.79
3355.691	744.79
3358.687	742.46
3361.681	734.79
3364.673	718.79
3367.662	713.46
3370.649	707.79
3373.633	708.46
3376.615	692.79
3379.595	681.79
3382.572	676.12
3385.547	676.46
3388.52	661.12
3391.49	654.79
3394.458	645.46
3397.424	631.46
3400.387	624.12
3403.348	619.46
3406.307	619.79
3409.263	610.79
3412.217	606.46
3415.168	604.12
3418.118	594.46
3421.065	591.12
3424.009	583.46
3426.951	570.12
3429.891	572.12
3432.829	560.12
3435.764	543.12
3438.697	536.79
3441.628	512.46
3444.557	502.12
3447.483	492.46
3450.407	481.12
3453.328	466.46
3456.247	454.12
3459.164	440.79
3462.079	434.79
3464.991	413.79
3467.902	406.79
3470.809	390.12
3473.715	377.79
3476.618	364.46
3479.519	364.79
3482.418	342.46
3485.315	334.12
3488.209	330.46
3491.101	317.46
3493.99	308.12
3496.878	295.79
3499.763	287.12
3502.646	283.46
3505.527	271.46
3508.405	258.79
3511.281	246.12
3514.155	239.46
3517.027	223.46
3519.897	213.46
3522.764	206.12
3525.629	190.79
3528.492	184.79
3531.352	167.46
3534.211	163.79
3537.067	145.12
3539.921	140.79
3542.773	129.79
3545.622	120.12
3548.469	115.46
3551.315	99.46
3554.157	98.12
3556.998	91.46
3559.837	84.79
3562.673	82.12
3565.507	72.79
3568.339	67.46
3571.169	60.46
3573.996	53.12
3576.822	50.79
3579.645	42.46
3582.466	34.79
3585.285	33.79
3588.101	23.79
3590.916	23.79
3593.728	12.46
3596.538	11.12
3599.346	10.12
3602.152	3.79
3604.956	-1.54
3607.757	-5.21
3610.556	-13.21
3613.354	-13.54
3616.149	-18.21
3618.942	-21.88
3621.732	-22.88
3624.521	-29.54
3627.307	-31.88
3630.092	-35.21
3632.874	-36.21
3635.654	-38.21
3638.432	-37.88
3641.208	-45.21
3643.982	-44.88
3646.753	-50.88
3649.523	-50.54
3652.29	-49.54
3655.055	-55.54
3657.818	-60.54
3660.579	-63.88
3663.338	-64.88
3666.095	-66.88
3668.849	-68.88
3671.602	-73.21
3674.352	-72.21
3677.101	-74.54
3679.847	-78.54
3682.591	-77.88
3685.333	-80.88
3688.073	-80.54
3690.811	-82.54
3693.547	-82.21
3696.281	-84.88
3699.013	-86.21
3701.742	-86.88
3704.47	-90.21
3707.195	-89.21
3709.919	-90.21
3712.64	-90.21
3715.359	-92.21
3718.076	-91.54
3720.792	-92.88
3723.505	-96.21
3726.216	-97.88
3728.925	-95.88
3731.632	-97.54
3734.336	-98.54
3737.039	-98.21
3739.74	-98.88
3742.439	-97.21
3745.136	-99.54
3747.83	-101.54
3750.523	-101.21
3753.213	-100.88
3755.902	-102.21
3758.589	-101.88
3761.273	-102.21
3763.956	-105.21
3766.636	-103.21
3769.315	-103.88
3771.991	-104.88
3774.665	-104.88
3777.338	-105.21
3780.008	-105.88
3782.677	-105.54
3785.343	-105.88
3788.007	-105.54
3790.67	-109.21
3793.33	-106.54
3795.989	-106.21
3798.645	-108.21
3801.299	-106.88
3803.952	-105.21
3806.602	-109.21
3809.251	-109.21
3811.897	-108.88
3814.542	-111.21
3817.184	-108.54
3819.825	-108.88
3822.463	-109.21
3825.1	-109.21
3827.735	-111.54
3830.367	-109.54
3832.998	-109.54
3835.627	-111.54
3838.253	-112.21
3840.878	-112.21
3843.501	-113.21
3846.122	-112.21
3848.741	-111.21
3851.358	-111.88
3853.973	-111.88
3856.586	-110.54
3859.197	-109.54
3861.806	-110.88
3864.414	-111.21
3867.019	-110.21
3869.622	-110.21
3872.224	-110.54
3874.823	-105.88
3877.421	-105.54
3880.016	-102.21
3882.61	-99.54
3885.202	-97.54
3887.792	-97.88
3890.38	-105.21
3892.966	-106.54
3895.55	-110.54
3898.132	-112.54
3900.713	-108.88
3903.291	-111.54
3905.868	-113.21
3908.442	-112.21
3911.015	-112.21
3913.586	-113.88
3916.155	-111.54
3918.722	-111.88
3921.287	-113.21
3923.85	-114.54
3926.411	-112.21
3928.971	-110.88
3931.528	-112.54
3934.084	-112.54
3936.638	-110.88
3939.19	-112.54
3941.74	-111.88
3944.288	-113.54
3946.834	-112.88
3949.378	-110.54
3951.921	-114.54
3954.462	-112.21
3957	-110.54
3959.537	-112.54
3962.072	-113.88
3964.606	-112.54
3967.137	-111.88
3969.667	-111.88
3972.194	-114.21
3974.72	-112.21
3977.244	-109.54
3979.766	-110.21
3982.286	-112.21
3984.805	-111.21
3987.321	-111.88
3989.836	-111.21
3992.349	-111.54
3994.86	-110.54
3997.369	-109.88
3999.877	-111.88
4002.382	-112.21
4004.886	-111.21
4007.388	-111.54
4009.888	-112.21
4012.386	-113.54
4014.883	-114.21
4017.377	-113.21
4019.87	-112.88
4022.361	-110.54
4024.85	-112.54
4027.338	-113.21
4029.823	-113.54
4032.307	-113.88
4034.789	-112.21
4037.269	-113.54
4039.747	-113.21
4042.224	-115.21
4044.699	-111.54
4047.172	-113.21
4049.643	-113.88
4052.112	-111.54
4054.58	-111.54
4057.046	-112.21
4059.51	-112.54
4061.972	-114.21
4064.432	-112.21
4066.891	-114.21
4069.348	-113.54
4071.803	-111.88
4074.256	-113.21
4076.708	-114.54
4079.158	-110.21
4081.606	-110.21
4084.052	-108.88
4086.497	-110.21
4088.939	-111.21
4091.38	-111.21
4093.819	-111.21
4096.257	-115.21
4098.693	-115.21
4101.127	-116.54
4103.559	-115.54
4105.989	-72.21
4108.418	-70.21
4110.845	-66.54
4113.27	-63.88
4115.694	-54.21
4118.115	-47.88
4120.535	-111.54
4122.954	-111.88
4125.37	-110.54
4127.785	-111.88
4130.198	-111.88
4132.609	-111.21
4135.019	-115.54
4137.427	-115.54
4139.833	-115.21
4142.237	-116.21
