160.701	-33.62
166.742	-0.62
172.777	93.04
178.805	387.71
184.826	1075.04
190.841	2220.71
196.849	3488.38
202.85	4261.71
208.845	4414.71
214.833	4242.71
220.815	4057.71
226.789	3888.71
232.758	3785.71
238.719	3633.71
244.674	3481.71
250.623	3312.71
256.565	3138.37
262.5	2970.71
268.429	2796.37
274.351	2670.71
280.267	2547.71
286.176	2453.37
292.079	2345.71
297.975	2267.71
303.865	2196.04
309.748	2136.37
315.625	2080.37
321.495	2025.38
327.359	2003.04
333.217	1981.71
339.068	1962.38
344.912	1963.37
350.751	1954.38
356.583	1938.04
362.408	1945.38
368.227	1958.04
374.04	1967.38
379.847	1990.71
385.647	2007.71
391.44	1988.38
397.228	2001.71
403.009	1997.04
408.784	2039.04
414.553	2093.38
420.315	2165.04
426.071	2146.04
431.821	2090.71
437.565	2029.04
443.302	1980.04
449.033	1974.71
454.758	1953.04
460.477	1949.71
466.189	1926.71
471.896	1906.71
477.596	1900.71
483.29	1870.71
488.978	1862.71
494.66	1842.04
500.335	1818.71
506.005	1779.04
511.668	1742.37
517.325	1711.38
522.977	1661.38
528.622	1641.38
534.261	1613.04
539.894	1587.38
545.521	1580.38
551.141	1558.38
556.756	1541.04
562.365	1532.38
567.968	1520.38
573.565	1492.71
579.155	1489.38
584.74	1469.04
590.319	1451.04
595.892	1422.71
601.459	1418.38
607.02	1411.38
612.575	1380.38
618.124	1364.71
623.667	1347.04
629.204	1336.38
634.735	1326.04
640.261	1329.71
645.781	1336.04
651.294	1339.04
656.802	1321.04
662.304	1269.71
667.8	1256.38
673.29	1237.04
678.775	1229.71
684.254	1213.04
689.726	1190.71
695.193	1184.71
700.655	1175.71
706.11	1168.04
711.56	1138.71
717.004	1133.04
722.442	1115.04
727.874	1109.04
733.301	1096.71
738.722	1090.04
744.137	1087.04
749.547	1074.71
754.951	1070.71
760.349	1071.38
765.741	1058.38
771.128	1034.71
776.509	1030.71
781.885	1022.04
787.254	1014.71
792.618	1003.71
797.977	997.71
803.33	975.04
808.677	958.38
814.019	945.71
819.355	931.38
824.686	913.71
830.011	899.71
835.33	885.04
840.644	877.38
845.952	859.04
851.255	857.38
856.552	842.04
861.844	825.71
867.13	820.71
872.41	804.71
877.686	794.71
882.955	787.04
888.219	770.71
893.478	737.04
898.731	712.38
903.979	701.38
909.221	684.71
914.458	665.04
919.69	662.38
924.916	651.71
930.136	644.38
935.351	639.71
940.561	634.71
945.766	627.04
950.965	622.38
956.158	606.04
961.347	598.38
966.529	583.71
971.707	573.71
976.879	555.04
982.046	550.71
987.208	543.71
992.364	541.04
997.515	542.38
1002.66	546.38
1007.801	543.38
1012.936	551.71
1018.066	548.04
1023.19	549.38
1028.309	552.71
1033.423	545.71
1038.532	542.04
1043.636	534.38
1048.734	523.71
1053.827	519.71
1058.915	522.04
1063.998	513.71
1069.075	507.38
1074.147	504.04
1079.214	508.04
1084.276	508.71
1089.333	513.38
1094.385	512.71
1099.431	509.71
1104.472	504.38
1109.509	503.71
1114.54	494.71
1119.565	483.38
1124.586	483.71
1129.602	467.04
1134.613	470.71
1139.618	464.04
1144.619	459.71
1149.614	462.04
1154.604	467.38
1159.589	462.04
1164.57	473.04
1169.545	464.04
1174.515	465.71
1179.48	460.04
1184.44	454.71
1189.395	454.71
1194.345	448.38
1199.29	441.71
1204.23	445.71
1209.165	442.04
1214.095	452.04
1219.021	448.71
1223.941	453.38
1228.856	454.71
1233.766	454.38
1238.672	449.38
1243.572	454.04
1248.467	446.71
1253.358	436.38
1258.244	425.71
1263.124	423.04
1268	414.04
1272.871	406.71
1277.737	408.04
1282.599	396.04
1287.455	405.04
1292.306	407.71
1297.153	402.04
1301.995	400.04
1306.832	404.71
1311.664	403.38
1316.491	404.38
1321.314	392.04
1326.132	394.38
1330.945	379.04
1335.753	370.04
1340.556	366.71
1345.354	358.38
1350.148	355.04
1354.937	352.71
1359.722	349.71
1364.501	349.71
1369.276	348.38
1374.046	348.04
1378.811	349.71
1383.572	350.04
1388.327	345.71
1393.079	340.04
1397.825	334.04
1402.567	326.38
1407.304	320.04
1412.036	314.38
1416.764	320.38
1421.487	314.04
1426.205	315.38
1430.919	315.38
1435.628	320.04
1440.333	323.04
1445.032	324.71
1449.727	329.04
1454.418	332.71
1459.104	328.38
1463.785	328.04
1468.462	321.71
1473.134	314.38
1477.802	313.71
1482.465	317.04
1487.123	316.38
1491.777	318.38
1496.426	323.71
1501.071	331.04
1505.711	331.38
1510.347	343.38
1514.978	358.71
1519.604	358.04
1524.226	365.04
1528.844	367.38
1533.457	366.04
1538.065	364.71
1542.669	368.04
1547.269	379.71
1551.864	378.71
1556.454	391.38
1561.041	399.04
1565.622	405.71
1570.199	424.71
1574.772	437.04
1579.34	451.38
1583.904	475.38
1588.464	486.38
1593.019	508.04
1597.569	526.38
1602.115	541.71
1606.657	562.04
1611.195	576.04
1615.728	596.38
1620.256	615.71
1624.78	637.38
1629.3	658.71
1633.816	681.71
1638.327	689.71
1642.834	703.38
1647.336	701.04
1651.834	696.71
1656.328	688.04
1660.817	682.04
1665.302	660.71
1669.783	630.38
1674.259	605.71
1678.732	566.04
1683.199	527.71
1687.663	500.38
1692.122	459.04
1696.577	431.71
1701.028	402.38
1705.474	376.38
1709.917	355.71
1714.355	327.38
1718.788	303.71
1723.218	284.38
1727.643	268.04
1732.064	247.71
1736.481	225.04
1740.893	210.38
1745.301	187.71
1749.705	177.71
1754.105	161.71
1758.501	145.38
1762.893	140.38
1767.28	131.38
1771.663	125.38
1776.042	116.38
1780.417	113.04
1784.787	110.04
1789.154	111.04
1793.516	107.38
1797.874	106.38
1802.228	103.38
1806.578	98.71
1810.924	94.71
1815.266	80.71
1819.603	86.04
1823.937	79.04
1828.266	75.04
1832.591	72.38
1836.913	70.71
1841.23	71.71
1845.543	65.38
1849.852	67.71
1854.156	66.04
1858.457	65.71
1862.754	66.38
1867.047	65.04
1871.335	67.04
1875.62	66.71
1879.9	65.71
1884.177	67.38
1888.449	65.71
1892.718	69.04
1896.982	66.04
1901.243	65.04
1905.499	64.71
1909.752	66.71
1914	68.38
1918.245	69.04
1922.485	74.71
1926.722	72.38
1930.954	77.38
1935.183	81.71
1939.408	79.04
1943.628	80.71
1947.845	80.04
1952.058	81.71
1956.267	78.04
1960.472	76.38
1964.673	75.04
1968.87	71.38
1973.063	71.38
1977.252	72.71
1981.438	74.38
1985.619	77.04
1989.797	69.04
1993.971	72.71
1998.14	75.71
2002.306	76.38
2006.469	81.38
2010.627	82.38
2014.781	84.71
2018.932	81.71
2023.078	85.04
2027.221	88.04
2031.36	84.71
2035.495	83.38
2039.627	83.38
2043.754	84.38
2047.878	84.04
2051.998	88.71
2056.114	87.04
2060.226	92.71
2064.334	93.38
2068.439	97.04
2072.54	95.38
2076.637	95.38
2080.73	97.04
2084.82	102.38
2088.906	105.38
2092.988	106.71
2097.066	103.71
2101.14	100.71
2105.211	100.04
2109.278	96.38
2113.342	99.38
2117.401	98.71
2121.457	93.71
2125.509	91.38
2129.558	89.38
2133.602	86.38
2137.643	87.04
2141.681	84.04
2145.714	80.71
2149.744	81.38
2153.77	75.38
2157.793	76.38
2161.812	72.38
2165.827	69.04
2169.838	64.04
2173.846	60.04
2177.851	57.71
2181.851	56.38
2185.848	50.38
2189.841	49.38
2193.831	44.38
2197.817	41.38
2201.799	42.04
2205.778	36.04
2209.753	35.71
2213.725	35.04
2217.693	35.38
2221.657	31.38
2225.618	31.04
2229.575	24.04
2233.529	22.38
2237.479	22.71
2241.425	16.71
2245.368	14.04
2249.307	9.38
2253.243	7.38
2257.175	6.04
2261.104	5.38
2265.029	0.71
2268.95	-3.62
2272.868	-4.96
2276.783	-5.96
2280.694	-8.96
2284.601	-10.29
2288.505	-15.29
2292.405	-15.96
2296.302	-16.62
2300.195	-18.96
2304.085	-23.96
2307.971	-23.96
2311.854	-23.96
2315.734	-26.29
2319.609	-27.62
2323.482	-29.62
2327.351	-30.29
2331.216	-26.29
2335.078	-30.29
2338.937	-33.62
2342.792	-33.96
2346.643	-34.96
2350.492	-36.29
2354.336	-38.62
2358.178	-39.29
2362.015	-41.29
2365.85	-41.62
2369.681	-42.62
2373.508	-43.96
2377.333	-41.62
2381.153	-43.62
2384.971	-45.62
2388.785	-46.29
2392.595	-43.96
2396.402	-43.96
2400.206	-46.96
2404.007	-48.96
2407.804	-48.96
2411.597	-47.62
2415.388	-45.62
2419.174	-49.62
2422.958	-49.62
2426.738	-49.29
2430.515	-50.62
2434.289	-49.29
2438.059	-52.96
2441.825	-52.96
2445.589	-52.96
2449.349	-53.96
2453.106	-52.96
2456.859	-53.29
2460.61	-55.29
2464.356	-55.62
2468.1	-56.62
2471.84	-57.96
2475.577	-59.62
2479.311	-56.29
2483.041	-59.62
2486.768	-59.29
2490.492	-58.29
2494.213	-61.62
2497.93	-58.62
2501.644	-59.29
2505.355	-57.29
2509.062	-57.29
2512.766	-56.96
2516.467	-60.62
2520.165	-60.62
2523.859	-62.96
2527.551	-61.62
2531.239	-60.96
2534.923	-60.62
2538.605	-62.96
2542.283	-62.62
2545.958	-61.96
2549.63	-62.62
2553.299	-63.62
2556.964	-64.62
2560.626	-63.29
2564.285	-63.96
2567.941	-62.29
2571.594	-65.29
2575.243	-64.29
2578.89	-65.96
2582.533	-62.62
2586.173	-64.96
2589.809	-67.96
2593.443	-67.29
2597.073	-65.96
2600.701	-65.29
2604.325	-70.62
2607.946	-67.96
2611.564	-71.96
2615.178	-67.62
2618.79	-68.29
2622.398	-70.62
2626.004	-67.29
2629.606	-68.62
2633.205	-68.96
2636.801	-68.62
2640.394	-69.96
2643.983	-68.29
2647.57	-68.62
2651.153	-70.29
2654.734	-67.62
2658.311	-69.96
2661.885	-66.96
2665.456	-70.29
2669.025	-68.29
2672.589	-70.62
2676.151	-67.62
2679.71	-69.62
2683.266	-71.29
2686.819	-69.29
2690.368	-69.62
2693.915	-71.29
2697.458	-67.62
2700.999	-67.29
2704.536	-66.62
2708.071	-66.62
2711.602	-63.96
2715.13	-65.29
2718.656	-63.96
2722.178	-62.96
2725.697	-63.62
2729.214	-66.62
2732.727	-62.29
2736.237	-63.62
2739.744	-61.29
2743.249	-59.96
2746.75	-60.62
2750.248	-60.96
2753.743	-59.62
2757.236	-55.29
2760.725	-54.96
2764.211	-54.62
2767.695	-54.62
2771.175	-51.96
2774.652	-53.96
2778.127	-51.29
2781.598	-49.96
2785.067	-49.29
2788.532	-49.29
2791.995	-46.96
2795.455	-49.29
2798.911	-45.62
2802.365	-45.29
2805.816	-42.62
2809.264	-42.62
2812.709	-40.96
2816.151	-36.62
2819.59	-36.29
2823.026	-35.62
2826.46	-34.62
2829.89	-30.62
2833.318	-28.62
2836.742	-28.62
2840.164	-25.29
2843.583	-24.62
2846.999	-18.96
2850.412	-18.96
2853.822	-15.96
2857.229	-15.62
2860.634	-8.29
2864.035	-7.62
2867.434	-2.96
2870.83	-1.29
2874.223	2.38
2877.613	3.71
2881	9.71
2884.385	7.71
2887.766	16.38
2891.145	15.71
2894.521	22.38
2897.894	20.38
2901.264	26.38
2904.631	31.04
2907.996	28.04
2911.358	30.04
2914.717	37.38
2918.073	40.04
2921.426	42.71
2924.777	47.71
2928.124	51.38
2931.469	60.38
2934.811	61.71
2938.15	70.38
2941.487	74.71
2944.821	76.38
2948.152	81.38
2951.48	85.04
2954.805	92.04
2958.128	94.38
2961.447	101.04
2964.765	104.71
2968.079	111.71
2971.39	122.38
2974.699	127.71
2978.005	132.38
2981.308	139.38
2984.609	152.04
2987.907	164.38
2991.202	169.71
2994.494	174.38
2997.784	190.04
3001.07	200.04
3004.355	203.71
3007.636	217.04
3010.915	221.04
3014.191	231.71
3017.464	237.04
3020.734	246.38
3024.002	251.71
3027.267	263.38
3030.53	267.71
3033.789	279.38
3037.046	282.71
3040.301	301.04
3043.552	310.38
3046.801	327.04
3050.048	335.04
3053.291	341.71
3056.532	365.38
3059.771	379.04
3063.006	394.04
3066.239	411.71
3069.469	432.38
3072.697	450.04
3075.922	462.71
3079.144	481.04
3082.364	496.04
3085.581	515.71
3088.795	526.04
3092.007	545.38
3095.216	562.71
3098.423	578.04
3101.627	597.38
3104.828	613.38
3108.026	631.38
3111.222	645.71
3114.416	665.04
3117.607	682.71
3120.795	705.38
3123.98	730.04
3127.163	756.38
3130.344	771.38
3133.521	790.38
3136.696	808.71
3139.869	830.38
3143.039	848.71
3146.206	861.04
3149.371	878.04
3152.533	885.71
3155.693	884.38
3158.85	897.38
3162.005	909.04
3165.157	914.71
3168.306	918.38
3171.453	921.71
3174.597	913.71
3177.739	928.71
3180.878	938.71
3184.014	946.04
3187.149	953.04
3190.28	955.71
3193.409	951.71
3196.536	963.38
3199.659	967.04
3202.781	974.04
3205.9	974.04
3209.016	970.71
3212.13	971.71
3215.241	972.38
3218.35	962.71
3221.456	956.38
3224.56	957.04
3227.661	942.04
3230.76	948.04
3233.856	935.04
3236.95	929.04
3240.041	924.71
3243.13	914.04
3246.216	914.04
3249.3	911.04
3252.382	909.38
3255.46	912.38
3258.537	909.71
3261.611	910.04
3264.682	906.38
3267.751	904.04
3270.818	899.71
3273.882	893.38
3276.943	886.71
3280.002	886.04
3283.059	873.38
3286.113	858.71
3289.165	849.71
3292.214	837.04
3295.261	836.04
3298.306	817.38
3301.348	800.38
3304.387	787.38
3307.425	775.38
3310.459	765.04
3313.492	762.04
3316.521	745.71
3319.549	742.04
3322.574	741.71
3325.597	730.38
3328.617	725.04
3331.635	721.71
3334.65	725.04
3337.663	720.71
3340.674	710.71
3343.682	715.04
3346.688	707.38
3349.691	703.38
3352.692	705.38
3355.691	696.04
3358.687	699.71
3361.681	689.71
3364.673	682.38
3367.662	674.38
3370.649	666.71
3373.633	655.04
3376.615	648.71
3379.595	648.04
3382.572	633.38
3385.547	632.71
3388.52	618.71
3391.49	613.38
3394.458	605.71
3397.424	600.71
3400.387	591.71
3403.348	587.71
3406.307	582.38
3409.263	578.38
3412.217	572.71
3415.168	561.71
3418.118	556.04
3421.065	552.38
3424.009	542.71
3426.951	540.04
3429.891	529.71
3432.829	526.38
3435.764	514.71
3438.697	498.04
3441.628	495.71
3444.557	480.38
3447.483	472.04
3450.407	456.38
3453.328	441.71
3456.247	428.04
3459.164	417.38
3462.079	407.38
3464.991	391.71
3467.902	378.71
3470.809	373.71
3473.715	359.04
3476.618	349.04
3479.519	337.38
3482.418	323.38
3485.315	322.71
3488.209	310.38
3491.101	298.71
3493.99	296.38
3496.878	285.38
3499.763	279.71
3502.646	270.04
3505.527	262.71
3508.405	253.04
3511.281	237.04
3514.155	227.04
3517.027	212.04
3519.897	206.04
3522.764	194.04
3525.629	185.04
3528.492	173.71
3531.352	164.04
3534.211	153.38
3537.067	141.71
3539.921	133.71
3542.773	124.71
3545.622	120.04
3548.469	108.04
3551.315	101.38
3554.157	98.38
3556.998	93.04
3559.837	82.71
3562.673	80.04
3565.507	74.71
3568.339	68.04
3571.169	61.71
3573.996	56.38
3576.822	51.71
3579.645	43.38
3582.466	41.71
3585.285	37.38
3588.101	27.04
3590.916	27.04
3593.728	18.71
3596.538	13.38
3599.346	9.38
3602.152	4.71
3604.956	-0.29
3607.757	0.04
3610.556	-4.29
3613.354	-9.62
3616.149	-14.29
3618.942	-17.96
3621.732	-20.96
3624.521	-20.62
3627.307	-25.29
3630.092	-29.29
3632.874	-30.62
3635.654	-33.29
3638.432	-36.62
3641.208	-39.96
3643.982	-43.62
3646.753	-46.96
3649.523	-47.62
3652.29	-47.96
3655.055	-49.62
3657.818	-53.96
3660.579	-56.96
3663.338	-57.96
3666.095	-61.96
3668.849	-64.29
3671.602	-66.62
3674.352	-68.96
3677.101	-71.96
3679.847	-72.96
3682.591	-73.29
3685.333	-76.29
3688.073	-75.62
3690.811	-76.62
3693.547	-78.96
3696.281	-79.29
3699.013	-79.96
3701.742	-82.29
3704.47	-84.96
3707.195	-84.96
3709.919	-85.29
3712.64	-86.29
3715.359	-86.62
3718.076	-88.29
3720.792	-88.62
3723.505	-90.96
3726.216	-92.29
3728.925	-91.96
3731.632	-93.29
3734.336	-94.29
3737.039	-95.29
3739.74	-95.96
3742.439	-93.96
3745.136	-95.62
3747.83	-96.62
3750.523	-95.96
3753.213	-96.96
3755.902	-98.62
3758.589	-96.96
3761.273	-95.96
3763.956	-99.29
3766.636	-97.62
3769.315	-98.29
3771.991	-99.62
3774.665	-99.96
3777.338	-101.62
3780.008	-99.62
3782.677	-101.62
3785.343	-102.62
3788.007	-102.62
3790.67	-103.29
3793.33	-102.96
3795.989	-102.62
3798.645	-102.62
3801.299	-101.96
3803.952	-102.62
3806.602	-103.96
3809.251	-103.29
3811.897	-103.29
3814.542	-104.96
3817.184	-105.29
3819.825	-105.62
3822.463	-104.96
3825.1	-106.29
3827.735	-105.96
3830.367	-105.62
3832.998	-106.29
3835.627	-106.29
3838.253	-107.29
3840.878	-108.29
3843.501	-107.96
3846.122	-108.96
3848.741	-107.96
3851.358	-107.96
3853.973	-108.62
3856.586	-107.29
3859.197	-106.62
3861.806	-106.62
3864.414	-107.29
3867.019	-107.96
3869.622	-107.62
3872.224	-106.96
3874.823	-100.96
3877.421	-100.29
3880.016	-96.96
3882.61	-93.62
3885.202	-91.62
3887.792	-92.62
3890.38	-99.29
3892.966	-104.62
3895.55	-107.62
3898.132	-108.29
3900.713	-106.29
3903.291	-106.62
3905.868	-110.29
3908.442	-106.62
3911.015	-107.29
3913.586	-109.96
3916.155	-106.96
3918.722	-108.96
3921.287	-107.62
3923.85	-108.96
3926.411	-108.62
3928.971	-106.96
3931.528	-109.29
3934.084	-108.62
3936.638	-108.62
3939.19	-108.29
3941.74	-108.96
3944.288	-111.29
3946.834	-109.62
3949.378	-107.29
3951.921	-108.29
3954.462	-108.29
3957	-104.96
3959.537	-107.62
3962.072	-107.62
3964.606	-107.62
3967.137	-108.29
3969.667	-107.29
3972.194	-109.29
3974.72	-108.29
3977.244	-106.96
3979.766	-105.96
3982.286	-107.62
3984.805	-106.96
3987.321	-107.29
3989.836	-107.62
3992.349	-109.29
3994.86	-107.29
3997.369	-106.96
3999.877	-107.96
4002.382	-107.96
4004.886	-107.62
4007.388	-106.29
4009.888	-106.62
4012.386	-108.96
4014.883	-107.62
4017.377	-108.62
4019.87	-109.96
4022.361	-108.29
4024.85	-107.62
4027.338	-109.62
4029.823	-109.29
4032.307	-109.62
4034.789	-108.62
4037.269	-108.29
4039.747	-107.96
4042.224	-109.96
4044.699	-108.96
4047.172	-109.62
4049.643	-109.62
4052.112	-108.29
4054.58	-109.29
4057.046	-109.96
4059.51	-107.29
4061.972	-109.96
4064.432	-107.62
4066.891	-107.29
4069.348	-107.29
4071.803	-109.29
4074.256	-108.62
4076.708	-108.29
4079.158	-105.29
4081.606	-104.62
4084.052	-104.29
4086.497	-106.29
4088.939	-106.62
4091.38	-107.29
4093.819	-106.29
4096.257	-109.29
4098.693	-109.62
4101.127	-110.62
4103.559	-109.62
4105.989	-69.62
4108.418	-64.62
4110.845	-63.96
4113.27	-60.96
4115.694	-55.62
4118.115	-46.29
4120.535	-107.62
4122.954	-107.96
4125.37	-106.96
4127.785	-106.96
4130.198	-109.29
4132.609	-107.96
4135.019	-111.29
4137.427	-111.96
4139.833	-110.62
4142.237	-112.62
