160.701	-32.67
166.742	-3.67
172.777	91.33
178.805	386.67
184.826	1075.67
190.841	2215.33
196.849	3466.33
202.85	4266.33
208.845	4415.33
214.833	4236
220.815	4048.67
226.789	3892.67
232.758	3782.33
238.719	3640.67
244.674	3470.33
250.623	3301.67
256.565	3118.33
262.5	2944.33
268.429	2788.33
274.351	2679.67
280.267	2542.67
286.176	2441
292.079	2351.33
297.975	2260
303.865	2191.33
309.748	2137.33
315.625	2070
321.495	2037
327.359	2001.67
333.217	1974.33
339.068	1972.67
344.912	1960.33
350.751	1954
356.583	1949
362.408	1943
368.227	1956
374.04	1964.67
379.847	1986
385.647	2009.67
391.44	2002.67
397.228	1990.67
403.009	2004.67
408.784	2029.33
414.553	2094.67
420.315	2161
426.071	2155
431.821	2072.67
437.565	2012.33
443.302	1994
449.033	1966.33
454.758	1962.33
460.477	1939
466.189	1932.67
471.896	1915.67
477.596	1895
483.29	1885
488.978	1866.67
494.66	1851.33
500.335	1817.33
506.005	1772
511.668	1740
517.325	1702
522.977	1668
528.622	1643
534.261	1614.67
539.894	1592
545.521	1579.67
551.141	1553
556.756	1545
562.365	1521
567.968	1504.33
573.565	1492.67
579.155	1477.67
584.74	1464
590.319	1438
595.892	1426.33
601.459	1415
607.02	1409.33
612.575	1380
618.124	1355.33
623.667	1344.67
629.204	1334
634.735	1324
640.261	1321.67
645.781	1339
651.294	1337
656.802	1306.33
662.304	1273.67
667.8	1259
673.29	1235
678.775	1222
684.254	1208.67
689.726	1200
695.193	1184.67
700.655	1163
706.11	1143
711.56	1129.67
717.004	1130
722.442	1113.67
727.874	1099
733.301	1091.67
738.722	1085.33
744.137	1071
749.547	1077.67
754.951	1061.67
760.349	1063
765.741	1047.33
771.128	1032.67
776.509	1033.33
781.885	1011
787.254	1016.67
792.618	997.33
797.977	985.67
803.33	970.33
808.677	948.67
814.019	931
819.355	916
824.686	908.67
830.011	887.33
835.33	876
840.644	873.67
845.952	858.67
851.255	845.67
856.552	831.67
861.844	824
867.13	811.33
872.41	804.67
877.686	801
882.955	787.67
888.219	767.33
893.478	738.33
898.731	711
903.979	688
909.221	677
914.458	664.67
919.69	650.33
924.916	647.67
930.136	634.33
935.351	637.33
940.561	621.67
945.766	619.33
950.965	611.33
956.158	603.33
961.347	588.33
966.529	578.33
971.707	563.67
976.879	558.67
982.046	549.67
987.208	538.67
992.364	534.33
997.515	539.33
1002.66	539
1007.801	538.33
1012.936	544
1018.066	543.33
1023.19	548
1028.309	550
1033.423	545
1038.532	541.67
1043.636	538.67
1048.734	527
1053.827	519.33
1058.915	511.67
1063.998	503
1069.075	502.67
1074.147	507.33
1079.214	502.67
1084.276	507
1089.333	517.67
1094.385	514.33
1099.431	511
1104.472	502.67
1109.509	492.67
1114.54	488.67
1119.565	478
1124.586	471
1129.602	463.67
1134.613	462.33
1139.618	464
1144.619	461.33
1149.614	462
1154.604	464.33
1159.589	457
1164.57	462.67
1169.545	460
1174.515	463
1179.48	451.67
1184.44	452
1189.395	446
1194.345	440.33
1199.29	436.67
1204.23	438.33
1209.165	448
1214.095	445
1219.021	440.67
1223.941	453
1228.856	449.67
1233.766	449.67
1238.672	449.33
1243.572	449.67
1248.467	442
1253.358	440.67
1258.244	427.67
1263.124	417.33
1268	409.67
1272.871	404.67
1277.737	398.67
1282.599	401.33
1287.455	390
1292.306	399.33
1297.153	399.33
1301.995	400.67
1306.832	396.67
1311.664	400.33
1316.491	398.33
1321.314	391.67
1326.132	384
1330.945	380
1335.753	372.67
1340.556	354.67
1345.354	354.33
1350.148	346.67
1354.937	348
1359.722	344
1364.501	341.33
1369.276	337
1374.046	341
1378.811	334.33
1383.572	343.67
1388.327	338.67
1393.079	334.33
1397.825	327
1402.567	318.33
1407.304	318.33
1412.036	310
1416.764	314
1421.487	312.67
1426.205	319.33
1430.919	312
1435.628	316.33
1440.333	324
1445.032	326.33
1449.727	325
1454.418	329.33
1459.104	331.33
1463.785	326.67
1468.462	319
1473.134	313.33
1477.802	307.33
1482.465	311.67
1487.123	313.67
1491.777	311.33
1496.426	325
1501.071	331.67
1505.711	335.33
1510.347	342.67
1514.978	350
1519.604	356
1524.226	359.67
1528.844	360.33
1533.457	358.33
1538.065	363.67
1542.669	363.33
1547.269	364.67
1551.864	375
1556.454	385.67
1561.041	392.67
1565.622	398.67
1570.199	414.33
1574.772	429
1579.34	444
1583.904	468.33
1588.464	479
1593.019	502
1597.569	520.67
1602.115	538.67
1606.657	554.33
1611.195	567.33
1615.728	593.33
1620.256	612.67
1624.78	629
1629.3	647
1633.816	669.67
1638.327	683.33
1642.834	692.67
1647.336	701.33
1651.834	703
1656.328	696
1660.817	682.67
1665.302	666
1669.783	629.33
1674.259	602
1678.732	567
1683.199	532.33
1687.663	498.33
1692.122	457.67
1696.577	424
1701.028	402
1705.474	370
1709.917	349.33
1714.355	329
1718.788	306.33
1723.218	284.33
1727.643	265.67
1732.064	245
1736.481	225
1740.893	205.67
1745.301	188.33
1749.705	176.33
1754.105	163.33
1758.501	148
1762.893	137
1767.28	125
1771.663	122.33
1776.042	115
1780.417	110.33
1784.787	110
1789.154	106.33
1793.516	106
1797.874	104.33
1802.228	102.33
1806.578	95.33
1810.924	96
1815.266	81
1819.603	83
1823.937	75.67
1828.266	69.67
1832.591	70.67
1836.913	68.67
1841.23	66.67
1845.543	65.67
1849.852	65.67
1854.156	64
1858.457	64.67
1862.754	65
1867.047	66
1871.335	66.67
1875.62	65.33
1879.9	66
1884.177	65
1888.449	63.33
1892.718	63
1896.982	62
1901.243	63
1905.499	62.33
1909.752	66
1914	64.67
1918.245	64.67
1922.485	67
1926.722	71
1930.954	75
1935.183	75
1939.408	75
1943.628	82.67
1947.845	78.67
1952.058	79.33
1956.267	77.67
1960.472	77.67
1964.673	73.67
1968.87	69
1973.063	70.33
1977.252	69.33
1981.438	73
1985.619	68.67
1989.797	67.67
1993.971	65.33
1998.14	72.33
2002.306	72.33
2006.469	75.67
2010.627	79
2014.781	80.33
2018.932	83.67
2023.078	84.33
2027.221	85.33
2031.36	82.67
2035.495	81.33
2039.627	81.67
2043.754	83
2047.878	82.33
2051.998	87
2056.114	81.67
2060.226	87.33
2064.334	87
2068.439	90.67
2072.54	93.67
2076.637	97
2080.73	97.67
2084.82	100.67
2088.906	102.67
2092.988	103.33
2097.066	100.33
2101.14	105.33
2105.211	98.67
2109.278	97.67
2113.342	94.67
2117.401	95.33
2121.457	92.67
2125.509	93.33
2129.558	84.67
2133.602	84.67
2137.643	81
2141.681	82.67
2145.714	79.33
2149.744	77.33
2153.77	72.67
2157.793	74.33
2161.812	72.67
2165.827	71
2169.838	63.67
2173.846	62.67
2177.851	56
2181.851	53
2185.848	50
2189.841	47
2193.831	43.67
2197.817	39.33
2201.799	37
2205.778	35.67
2209.753	34.67
2213.725	31
2217.693	32.33
2221.657	32
2225.618	29
2229.575	23.67
2233.529	25.33
2237.479	18
2241.425	18
2245.368	14
2249.307	9.67
2253.243	10.33
2257.175	4.33
2261.104	5.67
2265.029	-0.67
2268.95	-2.67
2272.868	-8.33
2276.783	-9.33
2280.694	-8.67
2284.601	-12
2288.505	-14
2292.405	-14
2296.302	-19.33
2300.195	-22.67
2304.085	-24.67
2307.971	-23.67
2311.854	-26.67
2315.734	-26.67
2319.609	-30
2323.482	-31.67
2327.351	-32.67
2331.216	-29.33
2335.078	-32
2338.937	-35
2342.792	-36.67
2346.643	-37
2350.492	-40.67
2354.336	-40.33
2358.178	-42.33
2362.015	-42
2365.85	-42.33
2369.681	-42
2373.508	-40.67
2377.333	-44.33
2381.153	-41.33
2384.971	-45.67
2388.785	-46.33
2392.595	-44.67
2396.402	-43.33
2400.206	-47
2404.007	-49.67
2407.804	-48.33
2411.597	-48.67
2415.388	-49.67
2419.174	-49.33
2422.958	-50.33
2426.738	-51.67
2430.515	-50.67
2434.289	-53.67
2438.059	-54.33
2441.825	-54.33
2445.589	-53
2449.349	-54
2453.106	-53
2456.859	-54
2460.61	-56.67
2464.356	-56.67
2468.1	-59
2471.84	-59.33
2475.577	-58.67
2479.311	-59.33
2483.041	-58.33
2486.768	-58.33
2490.492	-59
2494.213	-57.67
2497.93	-59.67
2501.644	-61
2505.355	-61
2509.062	-62
2512.766	-60
2516.467	-60
2520.165	-57
2523.859	-62.33
2527.551	-62
2531.239	-63.67
2534.923	-62.33
2538.605	-64.33
2542.283	-62.33
2545.958	-62.33
2549.63	-64
2553.299	-63
2556.964	-65.67
2560.626	-64.67
2564.285	-64
2567.941	-64
2571.594	-66.67
2575.243	-65.33
2578.89	-68.67
2582.533	-64
2586.173	-67
2589.809	-66.67
2593.443	-67.33
2597.073	-67
2600.701	-69
2604.325	-70.33
2607.946	-68
2611.564	-67.67
2615.178	-66.67
2618.79	-69.33
2622.398	-71.33
2626.004	-69.33
2629.606	-67.67
2633.205	-70.67
2636.801	-69
2640.394	-69
2643.983	-69.67
2647.57	-72
2651.153	-69.33
2654.734	-69.67
2658.311	-69.33
2661.885	-70.67
2665.456	-69.67
2669.025	-68.33
2672.589	-69.33
2676.151	-67.67
2679.71	-66.67
2683.266	-69
2686.819	-67.67
2690.368	-69.33
2693.915	-70.67
2697.458	-69
2700.999	-66.67
2704.536	-66.33
2708.071	-64.33
2711.602	-66.67
2715.13	-67
2718.656	-65.67
2722.178	-64
2725.697	-66
2729.214	-64.67
2732.727	-62.33
2736.237	-60.33
2739.744	-61.67
2743.249	-59.33
2746.75	-60.67
2750.248	-59.33
2753.743	-57.67
2757.236	-57.67
2760.725	-55.33
2764.211	-57
2767.695	-52.67
2771.175	-52.67
2774.652	-56
2778.127	-50.67
2781.598	-52.67
2785.067	-50
2788.532	-50.33
2791.995	-50.33
2795.455	-47.33
2798.911	-46.33
2802.365	-45.67
2805.816	-45
2809.264	-40.67
2812.709	-42
2816.151	-37
2819.59	-36
2823.026	-36.67
2826.46	-31
2829.89	-31.33
2833.318	-28.33
2836.742	-26.33
2840.164	-22.33
2843.583	-24
2846.999	-20.67
2850.412	-18.67
2853.822	-16
2857.229	-14.33
2860.634	-11.33
2864.035	-7.33
2867.434	-1.67
2870.83	1.33
2874.223	4.67
2877.613	8
2881	12.33
2884.385	15
2887.766	17.67
2891.145	18.33
2894.521	20.33
2897.894	21.67
2901.264	26.67
2904.631	31
2907.996	34.67
2911.358	30
2914.717	42
2918.073	42.33
2921.426	44
2924.777	51
2928.124	56
2931.469	62.33
2934.811	69
2938.15	69.33
2941.487	79
2944.821	79
2948.152	87
2951.48	86
2954.805	91.67
2958.128	96.67
2961.447	99.67
2964.765	108.67
2968.079	112
2971.39	116
2974.699	124
2978.005	130.33
2981.308	142
2984.609	151.33
2987.907	157.33
2991.202	166.67
2994.494	179.67
2997.784	187.67
3001.07	197.33
3004.355	205.33
3007.636	215.33
3010.915	222.67
3014.191	228.67
3017.464	236.33
3020.734	243.67
3024.002	249.33
3027.267	262
3030.53	271.33
3033.789	272.67
3037.046	285.67
3040.301	300.33
3043.552	305.67
3046.801	323
3050.048	335.33
3053.291	347.33
3056.532	356
3059.771	379.67
3063.006	393.33
3066.239	405.67
3069.469	431.33
3072.697	443.33
3075.922	460.33
3079.144	478.67
3082.364	496
3085.581	507.67
3088.795	524.33
3092.007	540.33
3095.216	557.67
3098.423	572.33
3101.627	587
3104.828	615.33
3108.026	636.33
3111.222	646.33
3114.416	662.67
3117.607	688
3120.795	709.33
3123.98	728.33
3127.163	749.33
3130.344	768
3133.521	789
3136.696	799.33
3139.869	828.33
3143.039	854
3146.206	854.33
3149.371	867.33
3152.533	884
3155.693	888
3158.85	898.33
3162.005	905
3165.157	908.33
3168.306	918
3171.453	920.67
3174.597	927
3177.739	936.67
3180.878	926.67
3184.014	945
3187.149	944.67
3190.28	950.67
3193.409	954.67
3196.536	964.67
3199.659	971
3202.781	971.33
3205.9	976.67
3209.016	973.67
3212.13	972.33
3215.241	969.33
3218.35	964.67
3221.456	962.33
3224.56	953.33
3227.661	950.67
3230.76	939.33
3233.856	941.33
3236.95	929.67
3240.041	928.67
3243.13	925.67
3246.216	918
3249.3	919
3252.382	914.33
3255.46	923.67
3258.537	908.33
3261.611	908
3264.682	901.67
3267.751	904.67
3270.818	908.33
3273.882	899.67
3276.943	893.33
3280.002	882.33
3283.059	872.67
3286.113	868
3289.165	855.33
3292.214	834.67
3295.261	824.33
3298.306	817
3301.348	801
3304.387	787.67
3307.425	774
3310.459	773
3313.492	749.33
3316.521	747
3319.549	742
3322.574	741.33
3325.597	730.67
3328.617	726.67
3331.635	720
3334.65	716.67
3337.663	721
3340.674	713
3343.682	714.33
3346.688	711.67
3349.691	707
3352.692	706.33
3355.691	706.33
3358.687	695.33
3361.681	692.67
3364.673	678
3367.662	674
3370.649	671.67
3373.633	659.33
3376.615	647.33
3379.595	646
3382.572	636.33
3385.547	623.67
3388.52	624
3391.49	620
3394.458	608.67
3397.424	600.33
3400.387	594.33
3403.348	583.67
3406.307	578
3409.263	574.67
3412.217	564.33
3415.168	565
3418.118	563.67
3421.065	560
3424.009	544.67
3426.951	537
3429.891	534.33
3432.829	523.33
3435.764	520.33
3438.697	501.67
3441.628	489.33
3444.557	482
3447.483	464
3450.407	451.67
3453.328	444.67
3456.247	428.67
3459.164	413.33
3462.079	403.67
3464.991	392
3467.902	377.33
3470.809	366.33
3473.715	353.33
3476.618	346
3479.519	337.33
3482.418	327.67
3485.315	320
3488.209	311.67
3491.101	297.67
3493.99	297
3496.878	284
3499.763	273.67
3502.646	266
3505.527	254.67
3508.405	247
3511.281	232.67
3514.155	225.33
3517.027	211.33
3519.897	206
3522.764	191.67
3525.629	178.33
3528.492	168.67
3531.352	158.67
3534.211	149
3537.067	139
3539.921	131.33
3542.773	123.67
3545.622	117.67
3548.469	108
3551.315	100.67
3554.157	94
3556.998	82
3559.837	79
3562.673	76
3565.507	67.67
3568.339	60.33
3571.169	56
3573.996	49.33
3576.822	44.33
3579.645	41.33
3582.466	33
3585.285	30
3588.101	24.33
3590.916	20
3593.728	16.33
3596.538	11.67
3599.346	9.33
3602.152	-1.33
3604.956	-1.67
3607.757	-7.67
3610.556	-13.33
3613.354	-14
3616.149	-20.33
3618.942	-23.33
3621.732	-25.67
3624.521	-28.67
3627.307	-30.67
3630.092	-36
3632.874	-35.67
3635.654	-36.67
3638.432	-38
3641.208	-43
3643.982	-41.67
3646.753	-50
3649.523	-48.33
3652.29	-51
3655.055	-54
3657.818	-59.33
3660.579	-61.67
3663.338	-64.67
3666.095	-63.67
3668.849	-66.67
3671.602	-71
3674.352	-72.33
3677.101	-73
3679.847	-74
3682.591	-73.67
3685.333	-77.33
3688.073	-76.33
3690.811	-77.33
3693.547	-78.67
3696.281	-80.67
3699.013	-82
3701.742	-84
3704.47	-83.33
3707.195	-86
3709.919	-86
3712.64	-89.67
3715.359	-90.33
3718.076	-89.67
3720.792	-90.67
3723.505	-91.33
3726.216	-94.67
3728.925	-91.67
3731.632	-93.33
3734.336	-92.33
3737.039	-94.67
3739.74	-95
3742.439	-95
3745.136	-94.33
3747.83	-95.67
3750.523	-94.67
3753.213	-96.67
3755.902	-97
3758.589	-97.33
3761.273	-97.33
3763.956	-101
3766.636	-100
3769.315	-100
3771.991	-101
3774.665	-102.33
3777.338	-101
3780.008	-99.33
3782.677	-98.67
3785.343	-100
3788.007	-100
3790.67	-101
3793.33	-100.67
3795.989	-101.67
3798.645	-102
3801.299	-102
3803.952	-101.33
3806.602	-104.67
3809.251	-104.67
3811.897	-105.33
3814.542	-107.67
3817.184	-107
3819.825	-105.33
3822.463	-104.67
3825.1	-103.67
3827.735	-105.67
3830.367	-104.67
3832.998	-104.33
3835.627	-106.33
3838.253	-106
3840.878	-104
3843.501	-107
3846.122	-105.67
3848.741	-106
3851.358	-106.33
3853.973	-110.33
3856.586	-106
3859.197	-107.33
3861.806	-107
3864.414	-107.33
3867.019	-108
3869.622	-107.67
3872.224	-105.33
3874.823	-102
3877.421	-100
3880.016	-96.33
3882.61	-91
3885.202	-90.67
3887.792	-92.67
3890.38	-96.67
3892.966	-101
3895.55	-104.33
3898.132	-105.33
3900.713	-103.67
3903.291	-107
3905.868	-108.67
3908.442	-106
3911.015	-109.33
3913.586	-109.33
3916.155	-108.33
3918.722	-107.67
3921.287	-107.67
3923.85	-108.67
3926.411	-108
3928.971	-106.33
3931.528	-107.33
3934.084	-107.67
3936.638	-106
3939.19	-107
3941.74	-107.67
3944.288	-110.33
3946.834	-107.67
3949.378	-107
3951.921	-108
3954.462	-107.33
3957	-105.33
3959.537	-107
3962.072	-108
3964.606	-107.33
3967.137	-107
3969.667	-107.33
3972.194	-107
3974.72	-108.67
3977.244	-106
3979.766	-104.67
3982.286	-107.33
3984.805	-106
3987.321	-105.67
3989.836	-107
3992.349	-109
3994.86	-106.33
3997.369	-105
3999.877	-108
4002.382	-108.33
4004.886	-107
4007.388	-108
4009.888	-108
4012.386	-109.67
4014.883	-108.67
4017.377	-110
4019.87	-108.67
4022.361	-105.33
4024.85	-105.67
4027.338	-107.67
4029.823	-108
4032.307	-108.33
4034.789	-108
4037.269	-108
4039.747	-107.67
4042.224	-110
4044.699	-106.67
4047.172	-110
4049.643	-109
4052.112	-107
4054.58	-107.33
4057.046	-110.33
4059.51	-107.67
4061.972	-108.33
4064.432	-107
4066.891	-106
4069.348	-104.33
4071.803	-104.67
4074.256	-106
4076.708	-108.33
4079.158	-103
4081.606	-105.67
4084.052	-105.67
4086.497	-106.67
4088.939	-107.33
4091.38	-107.33
4093.819	-107.33
4096.257	-109
4098.693	-109
4101.127	-109.67
4103.559	-109
4105.989	-68.33
4108.418	-66.67
4110.845	-66.67
4113.27	-60.67
4115.694	-51
4118.115	-48
4120.535	-108.67
4122.954	-107.33
4125.37	-106.67
4127.785	-105.67
4130.198	-109.33
4132.609	-106.67
4135.019	-110.33
4137.427	-111
4139.833	-110
4142.237	-110.33
