160.701	-5.5
166.742	1.5
172.777	20.83
178.805	84.83
184.826	228.5
190.841	465.5
196.849	717.83
202.85	881.17
208.845	915.5
214.833	896.83
220.815	858.5
226.789	824.83
232.758	819.5
238.719	794.83
244.674	777.5
250.623	746.5
256.565	724.83
262.5	689.83
268.429	664.17
274.351	644.5
280.267	626.5
286.176	611.83
292.079	599.17
297.975	580.83
303.865	572.83
309.748	565.5
315.625	560.83
321.495	541.83
327.359	556.5
333.217	551.5
339.068	548.5
344.912	552.5
350.751	546.83
356.583	551.5
362.408	553.83
368.227	555.83
374.04	574.83
379.847	582.5
385.647	591.17
391.44	578.17
397.228	580.17
403.009	586.83
408.784	604.17
414.553	652.5
420.315	698.5
426.071	712.17
431.821	649.17
437.565	597.83
443.302	581.83
449.033	573.83
454.758	571.17
460.477	564.83
466.189	556.17
471.896	546.17
477.596	542.17
483.29	541.5
488.978	534.83
494.66	531.83
500.335	512.5
506.005	497.5
511.668	468.17
517.325	445.83
522.977	435.17
528.622	419.83
534.261	409.5
539.894	404.83
545.521	404.17
551.141	395.83
556.756	392.83
562.365	387.17
567.968	379.5
573.565	382.83
579.155	381.5
584.74	371.83
590.319	371.83
595.892	366.17
601.459	369.83
607.02	362.83
612.575	359.17
618.124	351.5
623.667	349.17
629.204	343.83
634.735	348.5
640.261	358.83
645.781	372.5
651.294	378.17
656.802	363.83
662.304	339.5
667.8	325.83
673.29	323.83
678.775	317.83
684.254	315.17
689.726	310.83
695.193	308.83
700.655	304.83
706.11	302.5
711.56	299.83
717.004	298.83
722.442	297.5
727.874	293.5
733.301	294.5
738.722	290.5
744.137	292.83
749.547	302.5
754.951	301.17
760.349	295.5
765.741	294.5
771.128	284.83
776.509	287.17
781.885	286.83
787.254	285.83
792.618	291.5
797.977	284.83
803.33	282.5
808.677	277.83
814.019	275.17
819.355	269.5
824.686	264.17
830.011	260.5
835.33	260.17
840.644	255.17
845.952	251.17
851.255	246.5
856.552	240.83
861.844	238.83
867.13	241.5
872.41	234.5
877.686	231.17
882.955	224.83
888.219	219.83
893.478	214.83
898.731	206.5
903.979	203.17
909.221	205.17
914.458	202.5
919.69	196.83
924.916	195.17
930.136	195.83
935.351	194.83
940.561	194.5
945.766	189.17
950.965	190.5
956.158	189.17
961.347	185.5
966.529	183.5
971.707	182.17
976.879	174.83
982.046	173.17
987.208	172.83
992.364	174.5
997.515	174.5
1002.66	173.5
1007.801	173.83
1012.936	179.5
1018.066	178.5
1023.19	180.17
1028.309	180.17
1033.423	178.5
1038.532	182.5
1043.636	174.83
1048.734	175.17
1053.827	170.5
1058.915	171.17
1063.998	169.17
1069.075	167.5
1074.147	166.5
1079.214	164.5
1084.276	168.83
1089.333	168.5
1094.385	168.5
1099.431	164.83
1104.472	167.5
1109.509	162.83
1114.54	162.83
1119.565	157.17
1124.586	156.17
1129.602	154.83
1134.613	152.17
1139.618	152.83
1144.619	150.17
1149.614	152.17
1154.604	151.17
1159.589	152.5
1164.57	153.5
1169.545	153.83
1174.515	155.83
1179.48	152.17
1184.44	151.5
1189.395	149.83
1194.345	148.17
1199.29	146.17
1204.23	152.17
1209.165	148.17
1214.095	147.83
1219.021	149.17
1223.941	152.83
1228.856	151.17
1233.766	153.5
1238.672	149.83
1243.572	150.83
1248.467	145.17
1253.358	145.5
1258.244	141.17
1263.124	137.5
1268	133.5
1272.871	133.17
1277.737	131.17
1282.599	133.5
1287.455	132.83
1292.306	133.83
1297.153	132.5
1301.995	133.17
1306.832	131.17
1311.664	134.5
1316.491	134.83
1321.314	129.17
1326.132	131.5
1330.945	128.17
1335.753	122.5
1340.556	121.17
1345.354	116.5
1350.148	115.5
1354.937	118.17
1359.722	117.5
1364.501	117.5
1369.276	114.83
1374.046	117.83
1378.811	116.5
1383.572	118.17
1388.327	114.83
1393.079	110.17
1397.825	112.5
1402.567	110.83
1407.304	108.5
1412.036	105.83
1416.764	103.17
1421.487	103.17
1426.205	105.5
1430.919	103.17
1435.628	106.83
1440.333	105.5
1445.032	104.5
1449.727	107.17
1454.418	108.5
1459.104	104.5
1463.785	106.83
1468.462	105.5
1473.134	103.5
1477.802	102.83
1482.465	100.83
1487.123	102.5
1491.777	104.17
1496.426	100.5
1501.071	108.5
1505.711	107.17
1510.347	110.17
1514.978	114.83
1519.604	114.17
1524.226	113.5
1528.844	116.17
1533.457	114.83
1538.065	116.17
1542.669	113.5
1547.269	114.5
1551.864	115.83
1556.454	115.83
1561.041	117.83
1565.622	120.5
1570.199	122.83
1574.772	124.17
1579.34	128.5
1583.904	128.83
1588.464	136.17
1593.019	139.83
1597.569	141.17
1602.115	147.17
1606.657	150.83
1611.195	152.83
1615.728	158.17
1620.256	157.17
1624.78	164.5
1629.3	166.83
1633.816	168.5
1638.327	169.83
1642.834	174.83
1647.336	176.83
1651.834	176.17
1656.328	176.5
1660.817	170.5
1665.302	170.17
1669.783	162.83
1674.259	155.5
1678.732	148.17
1683.199	144.83
1687.663	131.83
1692.122	124.5
1696.577	117.17
1701.028	113.5
1705.474	104.5
1709.917	103.83
1714.355	99.17
1718.788	94.17
1723.218	89.5
1727.643	84.83
1732.064	84.5
1736.481	76.83
1740.893	69.5
1745.301	63.5
1749.705	65.83
1754.105	60.5
1758.501	56.83
1762.893	55.5
1767.28	53.83
1771.663	53.5
1776.042	53.17
1780.417	52.5
1784.787	51.17
1789.154	50.5
1793.516	46.5
1797.874	47.83
1802.228	46.83
1806.578	44.5
1810.924	45.83
1815.266	39.17
1819.603	42.83
1823.937	40.5
1828.266	38.5
1832.591	39.83
1836.913	41.17
1841.23	38.83
1845.543	37.17
1849.852	37.83
1854.156	36.83
1858.457	41.5
1862.754	35.5
1867.047	36.17
1871.335	39.5
1875.62	33.83
1879.9	37.17
1884.177	36.5
1888.449	35.5
1892.718	37.17
1896.982	37.17
1901.243	38.17
1905.499	36.83
1909.752	36.17
1914	36.5
1918.245	36.17
1922.485	36.5
1926.722	36.5
1930.954	39.5
1935.183	39.5
1939.408	37.83
1943.628	39.5
1947.845	38.17
1952.058	38.17
1956.267	38.5
1960.472	35.83
1964.673	35.83
1968.87	35.83
1973.063	30.83
1977.252	35.17
1981.438	31.83
1985.619	35.17
1989.797	33.5
1993.971	31.5
1998.14	31.5
2002.306	32.5
2006.469	36.17
2010.627	34.17
2014.781	35.83
2018.932	33.17
2023.078	36.5
2027.221	35.83
2031.36	34.83
2035.495	33.17
2039.627	32.17
2043.754	32.5
2047.878	35.17
2051.998	33.83
2056.114	31.83
2060.226	32.5
2064.334	35.83
2068.439	37.83
2072.54	36.17
2076.637	35.83
2080.73	34.83
2084.82	39.17
2088.906	39.5
2092.988	40.17
2097.066	36.17
2101.14	36.83
2105.211	36.17
2109.278	38.17
2113.342	37.5
2117.401	35.5
2121.457	36.83
2125.509	36.5
2129.558	34.5
2133.602	35.5
2137.643	33.17
2141.681	35.17
2145.714	32.5
2149.744	34.17
2153.77	31.83
2157.793	31.5
2161.812	30.17
2165.827	27.83
2169.838	28.5
2173.846	29.17
2177.851	22.5
2181.851	24.83
2185.848	22.5
2189.841	22.17
2193.831	21.83
2197.817	19.5
2201.799	20.5
2205.778	20.83
2209.753	19.17
2213.725	21.5
2217.693	19.83
2221.657	20.83
2225.618	19.5
2229.575	17.5
2233.529	19.17
2237.479	15.83
2241.425	16.17
2245.368	14.83
2249.307	13.5
2253.243	13.83
2257.175	10.5
2261.104	13.17
2265.029	11.17
2268.95	8.5
2272.868	8.17
2276.783	9.17
2280.694	9.5
2284.601	8.83
2288.505	7.17
2292.405	6.5
2296.302	7.83
2300.195	3.83
2304.085	2.83
2307.971	2.5
2311.854	1.5
2315.734	0.83
2319.609	1.83
2323.482	2.83
2327.351	-1.83
2331.216	2.83
2335.078	1.17
2338.937	0.5
2342.792	0.5
2346.643	1.17
2350.492	0.83
2354.336	-1.83
2358.178	1.5
2362.015	0.17
2365.85	-2.17
2369.681	-2.17
2373.508	-1.83
2377.333	-4.5
2381.153	-1.5
2384.971	-4.83
2388.785	-5.17
2392.595	-1.17
2396.402	-0.83
2400.206	-3.5
2404.007	-5.5
2407.804	-5.17
2411.597	-3.83
2415.388	-1.5
2419.174	-3.17
2422.958	-3.83
2426.738	-2.83
2430.515	-2.5
2434.289	-4.5
2438.059	-5.17
2441.825	-6.83
2445.589	-6.5
2449.349	-7.83
2453.106	-6.17
2456.859	-7.5
2460.61	-6.5
2464.356	-6.17
2468.1	-8.83
2471.84	-7.83
2475.577	-5.17
2479.311	-6.17
2483.041	-5.5
2486.768	-5.17
2490.492	-7.17
2494.213	-7.5
2497.93	-8.17
2501.644	-7.17
2505.355	-8.17
2509.062	-9.17
2512.766	-9.17
2516.467	-6.83
2520.165	-6.17
2523.859	-7.83
2527.551	-9.5
2531.239	-6.5
2534.923	-6.5
2538.605	-5.5
2542.283	-7.17
2545.958	-5.17
2549.63	-7.83
2553.299	-9.17
2556.964	-10.5
2560.626	-9.83
2564.285	-8.5
2567.941	-7.5
2571.594	-11.5
2575.243	-10.17
2578.89	-13.83
2582.533	-12.5
2586.173	-11.83
2589.809	-11.17
2593.443	-11.5
2597.073	-8.83
2600.701	-9.83
2604.325	-10.83
2607.946	-9.83
2611.564	-10.17
2615.178	-8.5
2618.79	-11.5
2622.398	-12.17
2626.004	-8.5
2629.606	-12.17
2633.205	-12.83
2636.801	-11.83
2640.394	-12.17
2643.983	-11.17
2647.57	-14.17
2651.153	-13.83
2654.734	-12.17
2658.311	-13.5
2661.885	-12.83
2665.456	-9.83
2669.025	-8.83
2672.589	-9.83
2676.151	-10.83
2679.71	-10.83
2683.266	-13.5
2686.819	-11.5
2690.368	-12.5
2693.915	-14.17
2697.458	-13.83
2700.999	-12.17
2704.536	-11.17
2708.071	-11.83
2711.602	-14.17
2715.13	-11.83
2718.656	-11.83
2722.178	-11.5
2725.697	-9.5
2729.214	-12.5
2732.727	-10.83
2736.237	-9.83
2739.744	-7.5
2743.249	-9.17
2746.75	-10.83
2750.248	-9.17
2753.743	-10.17
2757.236	-8.83
2760.725	-9.17
2764.211	-10.83
2767.695	-10.17
2771.175	-6.83
2774.652	-9.5
2778.127	-9.83
2781.598	-8.83
2785.067	-8.17
2788.532	-8.83
2791.995	-7.17
2795.455	-8.17
2798.911	-6.5
2802.365	-6.17
2805.816	-6.83
2809.264	-5.17
2812.709	-6.5
2816.151	-5.5
2819.59	-9.17
2823.026	-6.5
2826.46	-7.5
2829.89	-6.5
2833.318	-4.17
2836.742	-3.5
2840.164	-2.83
2843.583	-4.17
2846.999	-3.17
2850.412	-0.83
2853.822	-0.17
2857.229	-0.5
2860.634	0.83
2864.035	0.83
2867.434	4.83
2870.83	3.17
2874.223	4.17
2877.613	4.17
2881	4.17
2884.385	3.17
2887.766	4.5
2891.145	2.5
2894.521	6.17
2897.894	6.83
2901.264	8.17
2904.631	9.17
2907.996	10.83
2911.358	7.83
2914.717	11.5
2918.073	9.83
2921.426	12.83
2924.777	13.17
2928.124	14.17
2931.469	13.5
2934.811	17.83
2938.15	15.17
2941.487	15.83
2944.821	13.83
2948.152	17.5
2951.48	21.17
2954.805	21.5
2958.128	21.17
2961.447	26.5
2964.765	26.17
2968.079	24.5
2971.39	27.5
2974.699	28.83
2978.005	31.5
2981.308	35.17
2984.609	34.5
2987.907	38.5
2991.202	38.83
2994.494	41.83
2997.784	40.83
3001.07	46.83
3004.355	48.5
3007.636	48.83
3010.915	51.5
3014.191	53.17
3017.464	53.5
3020.734	56.5
3024.002	57.5
3027.267	62.83
3030.53	64.17
3033.789	64.17
3037.046	69.5
3040.301	70.5
3043.552	72.83
3046.801	79.83
3050.048	78.17
3053.291	79.83
3056.532	84.5
3059.771	86.17
3063.006	89.5
3066.239	98.5
3069.469	97.5
3072.697	105.83
3075.922	107.83
3079.144	115.17
3082.364	117.5
3085.581	120.5
3088.795	120.83
3092.007	129.17
3095.216	129.17
3098.423	135.83
3101.627	140.17
3104.828	141.83
3108.026	149.5
3111.222	148.83
3114.416	151.17
3117.607	159.17
3120.795	165.17
3123.98	170.5
3127.163	174.5
3130.344	180.83
3133.521	182.5
3136.696	189.83
3139.869	192.83
3143.039	195.17
3146.206	199.5
3149.371	204.83
3152.533	204.5
3155.693	206.83
3158.85	205.17
3162.005	209.83
3165.157	210.83
3168.306	211.17
3171.453	213.5
3174.597	216.83
3177.739	216.17
3180.878	217.83
3184.014	214.83
3187.149	220.5
3190.28	220.17
3193.409	222.17
3196.536	222.17
3199.659	226.17
3202.781	223.5
3205.9	225.5
3209.016	228.5
3212.13	225.5
3215.241	221.83
3218.35	216.83
3221.456	215.5
3224.56	218.5
3227.661	214.83
3230.76	219.5
3233.856	212.17
3236.95	217.17
3240.041	214.17
3243.13	218.17
3246.216	212.17
3249.3	210.5
3252.382	213.17
3255.46	216.17
3258.537	208.17
3261.611	207.5
3264.682	208.17
3267.751	205.83
3270.818	205.83
3273.882	202.83
3276.943	202.83
3280.002	205.83
3283.059	201.83
3286.113	198.17
3289.165	198.5
3292.214	192.83
3295.261	194.83
3298.306	194.17
3301.348	188.17
3304.387	176.83
3307.425	176.17
3310.459	178.17
3313.492	177.17
3316.521	175.17
3319.549	172.17
3322.574	166.17
3325.597	166.17
3328.617	170.5
3331.635	161.5
3334.65	165.17
3337.663	166.83
3340.674	167.17
3343.682	168.17
3346.688	164.17
3349.691	165.5
3352.692	164.17
3355.691	161.5
3358.687	165.17
3361.681	162.17
3364.673	155.83
3367.662	155.83
3370.649	155.17
3373.633	152.83
3376.615	151.17
3379.595	147.83
3382.572	147.5
3385.547	140.83
3388.52	144.83
3391.49	143.17
3394.458	143.17
3397.424	139.5
3400.387	142.17
3403.348	138.17
3406.307	139.17
3409.263	136.17
3412.217	132.83
3415.168	131.5
3418.118	134.83
3421.065	129.5
3424.009	123.5
3426.951	125.83
3429.891	124.83
3432.829	121.5
3435.764	125.17
3438.697	117.5
3441.628	115.17
3444.557	114.5
3447.483	111.83
3450.407	106.17
3453.328	105.17
3456.247	102.17
3459.164	97.5
3462.079	95.17
3464.991	91.17
3467.902	89.5
3470.809	86.17
3473.715	83.5
3476.618	78.5
3479.519	81.83
3482.418	75.5
3485.315	75.83
3488.209	73.5
3491.101	70.17
3493.99	69.17
3496.878	66.83
3499.763	64.5
3502.646	61.17
3505.527	62.5
3508.405	59.17
3511.281	58.83
3514.155	54.5
3517.027	48.5
3519.897	48.83
3522.764	46.5
3525.629	46.17
3528.492	40.17
3531.352	38.17
3534.211	36.83
3537.067	34.17
3539.921	33.17
3542.773	30.83
3545.622	29.5
3548.469	26.17
3551.315	24.5
3554.157	20.83
3556.998	20.83
3559.837	22.17
3562.673	19.83
3565.507	15.83
3568.339	15.17
3571.169	15.17
3573.996	10.17
3576.822	12.17
3579.645	12.5
3582.466	7.83
3585.285	5.83
3588.101	5.83
3590.916	6.5
3593.728	2.83
3596.538	2.17
3599.346	1.83
3602.152	-0.83
3604.956	-0.17
3607.757	0.17
3610.556	-3.17
3613.354	-1.5
3616.149	-4.17
3618.942	-6.5
3621.732	-6.5
3624.521	-6.5
3627.307	-6.17
3630.092	-9.17
3632.874	-8.17
3635.654	-6.83
3638.432	-9.17
3641.208	-8.83
3643.982	-11.17
3646.753	-12.17
3649.523	-12.5
3652.29	-10.83
3655.055	-10.5
3657.818	-13.17
3660.579	-14.83
3663.338	-14.83
3666.095	-15.17
3668.849	-14.83
3671.602	-18.17
3674.352	-17.17
3677.101	-15.5
3679.847	-17.5
3682.591	-17.17
3685.333	-19.17
3688.073	-17.17
3690.811	-19.5
3693.547	-17.5
3696.281	-18.5
3699.013	-19.5
3701.742	-19.17
3704.47	-21.5
3707.195	-18.5
3709.919	-20.83
3712.64	-18.17
3715.359	-19.83
3718.076	-18.83
3720.792	-20.17
3723.505	-21.5
3726.216	-24.17
3728.925	-20.5
3731.632	-22.5
3734.336	-23.5
3737.039	-23.17
3739.74	-22.17
3742.439	-21.5
3745.136	-22.17
3747.83	-22.17
3750.523	-22.5
3753.213	-21.83
3755.902	-21.5
3758.589	-20.5
3761.273	-19.5
3763.956	-23.17
3766.636	-22.17
3769.315	-23.17
3771.991	-22.83
3774.665	-24.5
3777.338	-25.83
3780.008	-23.83
3782.677	-24.83
3785.343	-22.83
3788.007	-24.83
3790.67	-25.5
3793.33	-22.83
3795.989	-23.83
3798.645	-23.17
3801.299	-23.5
3803.952	-22.83
3806.602	-25.83
3809.251	-23.5
3811.897	-23.83
3814.542	-26.17
3817.184	-25.5
3819.825	-26.5
3822.463	-24.83
3825.1	-25.83
3827.735	-27.5
3830.367	-24.5
3832.998	-26.83
3835.627	-25.83
3838.253	-25.83
3840.878	-24.17
3843.501	-27.17
3846.122	-25.5
3848.741	-25.17
3851.358	-25.5
3853.973	-26.83
3856.586	-25.5
3859.197	-23.83
3861.806	-25.17
3864.414	-26.17
3867.019	-25.83
3869.622	-25.83
3872.224	-25.17
3874.823	-22.5
3877.421	-22.5
3880.016	-21.17
3882.61	-17.17
3885.202	-15.5
3887.792	-16.17
3890.38	-20.17
3892.966	-21.17
3895.55	-24.17
3898.132	-25.17
3900.713	-22.83
3903.291	-25.17
3905.868	-25.5
3908.442	-24.17
3911.015	-26.17
3913.586	-27.17
3916.155	-26.5
3918.722	-26.5
3921.287	-26.5
3923.85	-26.5
3926.411	-26.5
3928.971	-24.17
3931.528	-26.5
3934.084	-24.17
3936.638	-24.17
3939.19	-25.83
3941.74	-24.5
3944.288	-24.83
3946.834	-24.5
3949.378	-22.83
3951.921	-24.83
3954.462	-24.83
3957	-24.83
3959.537	-24.83
3962.072	-27.17
3964.606	-26.17
3967.137	-26.5
3969.667	-27.83
3972.194	-27.17
3974.72	-26.83
3977.244	-24.5
3979.766	-24.17
3982.286	-25.83
3984.805	-25.17
3987.321	-24.5
3989.836	-24.83
3992.349	-26.83
3994.86	-23.83
3997.369	-26.83
3999.877	-27.17
4002.382	-26.83
4004.886	-27.5
4007.388	-27.17
4009.888	-26.5
4012.386	-28.5
4014.883	-28.17
4017.377	-27.83
4019.87	-27.83
4022.361	-24.17
4024.85	-25.5
4027.338	-27.5
4029.823	-25.83
4032.307	-26.17
4034.789	-25.17
4037.269	-25.83
4039.747	-26.17
4042.224	-28.17
4044.699	-26.5
4047.172	-27.83
4049.643	-28.17
4052.112	-26.5
4054.58	-26.5
4057.046	-28.83
4059.51	-25.5
4061.972	-26.17
4064.432	-24.5
4066.891	-23.83
4069.348	-23.17
4071.803	-23.5
4074.256	-23.5
4076.708	-24.83
4079.158	-22.17
4081.606	-23.17
4084.052	-23.83
4086.497	-24.17
4088.939	-26.5
4091.38	-27.17
4093.819	-26.83
4096.257	-26.17
4098.693	-26.83
4101.127	-26.17
4103.559	-25.5
4105.989	-10.17
4108.418	-10.5
4110.845	-10.17
4113.27	-8.5
4115.694	-7.5
4118.115	-6.83
4120.535	-27.17
4122.954	-26.5
4125.37	-25.83
4127.785	-25.17
4130.198	-26.83
4132.609	-25.5
4135.019	-25.83
4137.427	-25.5
4139.833	-25.17
4142.237	-25.17
