160.701	-35.5
166.742	-2.83
172.777	97.83
178.805	394.5
184.826	1103.83
190.841	2288.5
196.849	3615.5
202.85	4447.5
208.845	4623.17
214.833	4442.5
220.815	4258.17
226.789	4081.83
232.758	3954.17
238.719	3816.83
244.674	3635.5
250.623	3450.83
256.565	3279.17
262.5	3098.83
268.429	2935.83
274.351	2795.5
280.267	2673.17
286.176	2565.83
292.079	2472.17
297.975	2374.83
303.865	2292.17
309.748	2234.83
315.625	2170.83
321.495	2128.83
327.359	2102.17
333.217	2079.17
339.068	2062.83
344.912	2057.17
350.751	2042.17
356.583	2031.5
362.408	2044.83
368.227	2051.17
374.04	2055.17
379.847	2072.17
385.647	2088.17
391.44	2088.5
397.228	2079.83
403.009	2091.83
408.784	2131.83
414.553	2182.83
420.315	2240.17
426.071	2250.83
431.821	2177.17
437.565	2108.5
443.302	2077.17
449.033	2071.5
454.758	2054.5
460.477	2036.83
466.189	2005.17
471.896	1994.83
477.596	1981.5
483.29	1969.5
488.978	1962.17
494.66	1933.83
500.335	1898.5
506.005	1867.83
511.668	1834.5
517.325	1793.5
522.977	1753.5
528.622	1709.83
534.261	1686.83
539.894	1679.5
545.521	1654.5
551.141	1631.17
556.756	1616.5
562.365	1599.5
567.968	1585.83
573.565	1569.83
579.155	1556.5
584.74	1536.83
590.319	1526.17
595.892	1513.17
601.459	1494.83
607.02	1476.83
612.575	1458.5
618.124	1432.83
623.667	1406.5
629.204	1406.5
634.735	1389.83
640.261	1394.83
645.781	1391.17
651.294	1397.83
656.802	1364.83
662.304	1339.17
667.8	1309.83
673.29	1296.83
678.775	1283.5
684.254	1274.5
689.726	1266.17
695.193	1239.5
700.655	1230.5
706.11	1214.83
711.56	1198.17
717.004	1191.17
722.442	1185.5
727.874	1162.83
733.301	1157.5
738.722	1135.83
744.137	1129.83
749.547	1134.17
754.951	1128.83
760.349	1114.83
765.741	1097.83
771.128	1089.83
776.509	1078.17
781.885	1073.17
787.254	1065.5
792.618	1059.17
797.977	1032.5
803.33	1018.5
808.677	1007.83
814.019	989.83
819.355	978.17
824.686	953.17
830.011	941.5
835.33	924.83
840.644	920.83
845.952	906.83
851.255	891.17
856.552	881.83
861.844	865.83
867.13	852.83
872.41	842.83
877.686	821.17
882.955	798.17
888.219	778.17
893.478	768.5
898.731	743.5
903.979	731.17
909.221	719.5
914.458	706.17
919.69	691.5
924.916	689.83
930.136	681.5
935.351	665.83
940.561	666.83
945.766	652.5
950.965	651.17
956.158	647.17
961.347	626.5
966.529	612.5
971.707	597.83
976.879	593.5
982.046	577.17
987.208	570.5
992.364	569.5
997.515	573.5
1002.66	574.17
1007.801	574.17
1012.936	578.17
1018.066	581.17
1023.19	577.17
1028.309	578.83
1033.423	575.5
1038.532	573.5
1043.636	560.17
1048.734	560.17
1053.827	541.17
1058.915	539.5
1063.998	534.17
1069.075	529.83
1074.147	528.83
1079.214	529.5
1084.276	535.83
1089.333	534.5
1094.385	531.17
1099.431	534.83
1104.472	539.5
1109.509	530.17
1114.54	515.17
1119.565	508.5
1124.586	505.83
1129.602	497.17
1134.613	487.5
1139.618	486.83
1144.619	493.5
1149.614	486.17
1154.604	491.17
1159.589	485.17
1164.57	492.5
1169.545	495.83
1174.515	494.83
1179.48	488.5
1184.44	486.5
1189.395	475.83
1194.345	471.83
1199.29	474.17
1204.23	470.83
1209.165	473.83
1214.095	479.83
1219.021	478.5
1223.941	486.83
1228.856	482.83
1233.766	486.5
1238.672	481.5
1243.572	483.5
1248.467	475.17
1253.358	466.17
1258.244	454.5
1263.124	445.5
1268	433.17
1272.871	427.17
1277.737	426.17
1282.599	419.17
1287.455	424.5
1292.306	419.5
1297.153	421.5
1301.995	427.5
1306.832	425.83
1311.664	428.17
1316.491	436.5
1321.314	420.17
1326.132	412.5
1330.945	405.83
1335.753	396.17
1340.556	386.17
1345.354	380.83
1350.148	374.17
1354.937	372.5
1359.722	366.5
1364.501	367.17
1369.276	365.83
1374.046	368.83
1378.811	362.83
1383.572	361.83
1388.327	359.83
1393.079	355.17
1397.825	349.83
1402.567	343.17
1407.304	333.83
1412.036	332.17
1416.764	334.17
1421.487	328.5
1426.205	330.17
1430.919	329.5
1435.628	335.5
1440.333	346.17
1445.032	334.83
1449.727	342.5
1454.418	348.17
1459.104	341.17
1463.785	340.83
1468.462	334.5
1473.134	334.17
1477.802	328.5
1482.465	330.5
1487.123	330.17
1491.777	331.17
1496.426	342.83
1501.071	348.83
1505.711	355.17
1510.347	362.17
1514.978	372.17
1519.604	377.83
1524.226	378.83
1528.844	384.5
1533.457	385.5
1538.065	385.83
1542.669	384.5
1547.269	393.17
1551.864	393.5
1556.454	406.83
1561.041	414.83
1565.622	433.5
1570.199	435.83
1574.772	459.5
1579.34	470.83
1583.904	492.5
1588.464	508.5
1593.019	529.5
1597.569	550.5
1602.115	569.83
1606.657	586.83
1611.195	606.83
1615.728	627.5
1620.256	642.17
1624.78	669.83
1629.3	688.17
1633.816	702.17
1638.327	715.5
1642.834	725.17
1647.336	735.83
1651.834	738.83
1656.328	730.83
1660.817	713.5
1665.302	691.17
1669.783	669.17
1674.259	634.83
1678.732	605.17
1683.199	562.17
1687.663	524.83
1692.122	489.83
1696.577	453.83
1701.028	425.17
1705.474	395.83
1709.917	371.17
1714.355	345.83
1718.788	326.17
1723.218	301.5
1727.643	280.17
1732.064	259.83
1736.481	238.17
1740.893	220.17
1745.301	200.83
1749.705	186.5
1754.105	171.17
1758.501	158.5
1762.893	145.83
1767.28	135.5
1771.663	131.83
1776.042	130.17
1780.417	120.17
1784.787	119.5
1789.154	117.83
1793.516	112.83
1797.874	111.17
1802.228	110.83
1806.578	101.83
1810.924	99.83
1815.266	88.83
1819.603	88.83
1823.937	82.17
1828.266	80.17
1832.591	82.83
1836.913	73.83
1841.23	75.83
1845.543	72.17
1849.852	73.5
1854.156	73.17
1858.457	73.17
1862.754	70.83
1867.047	72.5
1871.335	73.5
1875.62	71.83
1879.9	75.17
1884.177	74.5
1888.449	72.83
1892.718	75.5
1896.982	71.17
1901.243	70.83
1905.499	73.17
1909.752	73.83
1914	74.5
1918.245	73.17
1922.485	76.5
1926.722	73.17
1930.954	79.83
1935.183	84.5
1939.408	80.83
1943.628	83.5
1947.845	85.17
1952.058	79.83
1956.267	79.5
1960.472	80.83
1964.673	78.5
1968.87	76.83
1973.063	80.17
1977.252	77.5
1981.438	79.83
1985.619	77.5
1989.797	80.17
1993.971	78.17
1998.14	81.17
2002.306	81.83
2006.469	85.5
2010.627	85.5
2014.781	89.83
2018.932	88.5
2023.078	86.17
2027.221	91.17
2031.36	85.5
2035.495	84.17
2039.627	88.17
2043.754	90.5
2047.878	92.17
2051.998	91.17
2056.114	90.83
2060.226	96.83
2064.334	98.83
2068.439	100.17
2072.54	99.17
2076.637	104.17
2080.73	105.17
2084.82	110.17
2088.906	108.83
2092.988	109.17
2097.066	105.17
2101.14	109.17
2105.211	105.5
2109.278	103.83
2113.342	104.5
2117.401	99.17
2121.457	99.83
2125.509	95.83
2129.558	91.17
2133.602	92.83
2137.643	88.5
2141.681	90.5
2145.714	83.83
2149.744	85.5
2153.77	79.5
2157.793	80.83
2161.812	76.17
2165.827	68.5
2169.838	70.83
2173.846	62.5
2177.851	59.17
2181.851	63.5
2185.848	54.5
2189.841	50.5
2193.831	50.5
2197.817	48.83
2201.799	42.5
2205.778	43.83
2209.753	38.83
2213.725	37.5
2217.693	37.83
2221.657	34.5
2225.618	33.17
2229.575	28.83
2233.529	24.17
2237.479	25.17
2241.425	20.83
2245.368	17.5
2249.307	13.5
2253.243	7.5
2257.175	5.83
2261.104	5.83
2265.029	2.83
2268.95	-0.5
2272.868	-2.5
2276.783	-5.83
2280.694	-7.5
2284.601	-9.17
2288.505	-11.5
2292.405	-13.5
2296.302	-17.5
2300.195	-19.5
2304.085	-21.83
2307.971	-19.83
2311.854	-23.17
2315.734	-25.5
2319.609	-26.83
2323.482	-29.5
2327.351	-31.17
2331.216	-31.83
2335.078	-29.83
2338.937	-32.83
2342.792	-33.83
2346.643	-36.5
2350.492	-38.17
2354.336	-38.83
2358.178	-39.17
2362.015	-38.83
2365.85	-38.5
2369.681	-40.5
2373.508	-40.83
2377.333	-41.83
2381.153	-42.17
2384.971	-39.83
2388.785	-46.17
2392.595	-43.17
2396.402	-45.83
2400.206	-46.17
2404.007	-49.5
2407.804	-48.83
2411.597	-48.5
2415.388	-47.17
2419.174	-50.5
2422.958	-50.17
2426.738	-51.17
2430.515	-50.5
2434.289	-52.5
2438.059	-50.17
2441.825	-52.83
2445.589	-52.83
2449.349	-55.17
2453.106	-52.17
2456.859	-53.5
2460.61	-55.5
2464.356	-55.5
2468.1	-56.17
2471.84	-56.5
2475.577	-54.83
2479.311	-54.83
2483.041	-55.83
2486.768	-60.5
2490.492	-61.5
2494.213	-59.83
2497.93	-59.17
2501.644	-56.83
2505.355	-60.17
2509.062	-59.83
2512.766	-60.17
2516.467	-61.17
2520.165	-59.5
2523.859	-62.83
2527.551	-61.83
2531.239	-58.5
2534.923	-62.5
2538.605	-62.17
2542.283	-62.17
2545.958	-62.83
2549.63	-64.5
2553.299	-64.5
2556.964	-63.17
2560.626	-65.5
2564.285	-63.17
2567.941	-63.83
2571.594	-66.17
2575.243	-66.83
2578.89	-69.17
2582.533	-66.83
2586.173	-68.5
2589.809	-67.5
2593.443	-67.83
2597.073	-67.17
2600.701	-69.5
2604.325	-70.83
2607.946	-67.5
2611.564	-69.83
2615.178	-66.83
2618.79	-71.17
2622.398	-70.83
2626.004	-66.17
2629.606	-67.5
2633.205	-72.17
2636.801	-68.17
2640.394	-69.5
2643.983	-68.83
2647.57	-70.17
2651.153	-70.17
2654.734	-70.17
2658.311	-68.5
2661.885	-70.83
2665.456	-70.5
2669.025	-67.83
2672.589	-69.83
2676.151	-70.83
2679.71	-71.83
2683.266	-69.83
2686.819	-67.17
2690.368	-72.17
2693.915	-72.5
2697.458	-69.5
2700.999	-67.83
2704.536	-66.17
2708.071	-67.5
2711.602	-69.5
2715.13	-66.5
2718.656	-65.83
2722.178	-67.5
2725.697	-68.5
2729.214	-66.17
2732.727	-61.83
2736.237	-63.5
2739.744	-62.83
2743.249	-62.17
2746.75	-61.83
2750.248	-60.17
2753.743	-58.83
2757.236	-59.5
2760.725	-57.83
2764.211	-59.5
2767.695	-55.83
2771.175	-56.5
2774.652	-54.83
2778.127	-55.17
2781.598	-51.83
2785.067	-53.83
2788.532	-52.17
2791.995	-47.83
2795.455	-50.5
2798.911	-48.5
2802.365	-45.83
2805.816	-43.17
2809.264	-42.17
2812.709	-41.5
2816.151	-38.5
2819.59	-37.83
2823.026	-35.5
2826.46	-38.5
2829.89	-31.5
2833.318	-29.5
2836.742	-28.83
2840.164	-25.5
2843.583	-27.17
2846.999	-24.17
2850.412	-16.5
2853.822	-20.83
2857.229	-16.17
2860.634	-11.83
2864.035	-7.5
2867.434	-5.5
2870.83	-2.83
2874.223	0.17
2877.613	2.17
2881	8.83
2884.385	7.5
2887.766	10.5
2891.145	14.17
2894.521	14.5
2897.894	18.17
2901.264	20.5
2904.631	24.83
2907.996	25.5
2911.358	29.17
2914.717	34.17
2918.073	37.83
2921.426	43.17
2924.777	47.5
2928.124	48.17
2931.469	59.83
2934.811	63.5
2938.15	64.5
2941.487	73.5
2944.821	72.5
2948.152	76.17
2951.48	85.17
2954.805	91.5
2958.128	94.5
2961.447	101.17
2964.765	107.17
2968.079	111.5
2971.39	120.5
2974.699	123.83
2978.005	135.5
2981.308	141.17
2984.609	151.17
2987.907	166.17
2991.202	174.83
2994.494	179.5
2997.784	192.17
3001.07	201.83
3004.355	212.5
3007.636	220.5
3010.915	233.5
3014.191	239.5
3017.464	244.83
3020.734	259.5
3024.002	259.83
3027.267	272.17
3030.53	283.17
3033.789	290.83
3037.046	300.83
3040.301	315.17
3043.552	322.5
3046.801	331.83
3050.048	352.5
3053.291	363.17
3056.532	379.83
3059.771	400.17
3063.006	410.83
3066.239	431.5
3069.469	452.5
3072.697	469.17
3075.922	481.5
3079.144	501.17
3082.364	519.83
3085.581	526.83
3088.795	555.17
3092.007	569.17
3095.216	586.17
3098.423	598.17
3101.627	619.17
3104.828	643.83
3108.026	662.5
3111.222	679.17
3114.416	705.17
3117.607	718.5
3120.795	732.83
3123.98	756.17
3127.163	785.5
3130.344	803.17
3133.521	822.83
3136.696	846.5
3139.869	868.17
3143.039	889.17
3146.206	900.83
3149.371	910.5
3152.533	920.83
3155.693	929.83
3158.85	939.5
3162.005	951.83
3165.157	957.83
3168.306	964.17
3171.453	962.17
3174.597	969.83
3177.739	981.5
3180.878	986.83
3184.014	979.17
3187.149	995.83
3190.28	995.5
3193.409	1001.83
3196.536	1006.5
3199.659	1006.17
3202.781	1016.83
3205.9	1023.83
3209.016	1016.17
3212.13	1024.5
3215.241	1016.83
3218.35	1012.17
3221.456	1010.5
3224.56	997.83
3227.661	997.17
3230.76	986.5
3233.856	976.5
3236.95	966.17
3240.041	965.83
3243.13	966.5
3246.216	967.83
3249.3	957.83
3252.382	953.83
3255.46	950.17
3258.537	945.83
3261.611	949.5
3264.682	950.83
3267.751	940.5
3270.818	941.83
3273.882	934.5
3276.943	929.5
3280.002	921.83
3283.059	911.83
3286.113	903.83
3289.165	883.17
3292.214	869.5
3295.261	866.5
3298.306	845.83
3301.348	835.83
3304.387	817.17
3307.425	809.5
3310.459	798.5
3313.492	792.83
3316.521	788.83
3319.549	782.5
3322.574	767.83
3325.597	761.17
3328.617	762.5
3331.635	757.83
3334.65	752.83
3337.663	748.83
3340.674	745.83
3343.682	743.83
3346.688	744.83
3349.691	741.17
3352.692	735.17
3355.691	734.17
3358.687	732.5
3361.681	722.17
3364.673	714.17
3367.662	711.83
3370.649	701.5
3373.633	687.83
3376.615	678.5
3379.595	669.17
3382.572	659.83
3385.547	656.83
3388.52	650.17
3391.49	641.83
3394.458	636.17
3397.424	627.17
3400.387	617.5
3403.348	612.17
3406.307	608.83
3409.263	603.17
3412.217	591.83
3415.168	588.83
3418.118	579.5
3421.065	581.17
3424.009	570.83
3426.951	568.17
3429.891	549.17
3432.829	545.5
3435.764	533.5
3438.697	522.17
3441.628	512.17
3444.557	497.17
3447.483	478.83
3450.407	473.17
3453.328	460.83
3456.247	447.17
3459.164	431.17
3462.079	421.83
3464.991	403.17
3467.902	390.17
3470.809	390.17
3473.715	364.83
3476.618	359.17
3479.519	346.83
3482.418	346.5
3485.315	332.17
3488.209	318.17
3491.101	315.17
3493.99	303.17
3496.878	293.5
3499.763	288.83
3502.646	275.17
3505.527	264.5
3508.405	260.17
3511.281	245.17
3514.155	228.83
3517.027	221.83
3519.897	207.17
3522.764	202.83
3525.629	184.83
3528.492	175.17
3531.352	167.83
3534.211	156.17
3537.067	143.5
3539.921	139.5
3542.773	129.83
3545.622	118.17
3548.469	109.83
3551.315	104.83
3554.157	94.17
3556.998	87.5
3559.837	85.17
3562.673	81.5
3565.507	75.83
3568.339	67.5
3571.169	59.83
3573.996	52.17
3576.822	47.5
3579.645	39.83
3582.466	39.83
3585.285	30.17
3588.101	23.83
3590.916	20.17
3593.728	15.17
3596.538	9.83
3599.346	5.5
3602.152	2.83
3604.956	-2.83
3607.757	-7.17
3610.556	-11.5
3613.354	-13.5
3616.149	-16.17
3618.942	-23.83
3621.732	-27.17
3624.521	-28.17
3627.307	-32.17
3630.092	-36.17
3632.874	-36.83
3635.654	-35.83
3638.432	-40.17
3641.208	-41.5
3643.982	-44.83
3646.753	-50.83
3649.523	-52.5
3652.29	-53.17
3655.055	-57.83
3657.818	-59.83
3660.579	-61.17
3663.338	-63.17
3666.095	-64.5
3668.849	-68.83
3671.602	-71.83
3674.352	-71.5
3677.101	-71.5
3679.847	-74.17
3682.591	-77.17
3685.333	-77.83
3688.073	-79.5
3690.811	-81.17
3693.547	-79.83
3696.281	-82.83
3699.013	-81.5
3701.742	-85.83
3704.47	-87.83
3707.195	-87.83
3709.919	-89.5
3712.64	-90.5
3715.359	-91.17
3718.076	-92.17
3720.792	-92.17
3723.505	-96.17
3726.216	-97.83
3728.925	-96.17
3731.632	-97.5
3734.336	-98.5
3737.039	-97.5
3739.74	-97.5
3742.439	-94.83
3745.136	-96.5
3747.83	-98.83
3750.523	-99.83
3753.213	-97.83
3755.902	-99.17
3758.589	-97.5
3761.273	-101.17
3763.956	-101.5
3766.636	-103.83
3769.315	-103.5
3771.991	-103.5
3774.665	-104.17
3777.338	-104.17
3780.008	-103.5
3782.677	-105.5
3785.343	-104.5
3788.007	-106.17
3790.67	-108.17
3793.33	-106.17
3795.989	-105.5
3798.645	-106.17
3801.299	-105.17
3803.952	-104.83
3806.602	-107.17
3809.251	-105.83
3811.897	-106.5
3814.542	-107.5
3817.184	-107.17
3819.825	-105.83
3822.463	-107.83
3825.1	-108.83
3827.735	-110.83
3830.367	-107.5
3832.998	-108.17
3835.627	-110.83
3838.253	-112.5
3840.878	-109.83
3843.501	-112.83
3846.122	-112.17
3848.741	-111.5
3851.358	-111.83
3853.973	-111.83
3856.586	-108.17
3859.197	-109.5
3861.806	-110.5
3864.414	-111.17
3867.019	-109.5
3869.622	-110.17
3872.224	-107.17
3874.823	-105.83
3877.421	-103.83
3880.016	-101.5
3882.61	-97.17
3885.202	-96.5
3887.792	-97.5
3890.38	-103.83
3892.966	-106.83
3895.55	-108.17
3898.132	-111.17
3900.713	-109.5
3903.291	-111.17
3905.868	-113.5
3908.442	-109.83
3911.015	-112.83
3913.586	-113.17
3916.155	-113.17
3918.722	-110.5
3921.287	-110.5
3923.85	-110.83
3926.411	-110.83
3928.971	-109.5
3931.528	-110.17
3934.084	-111.83
3936.638	-110.83
3939.19	-109.5
3941.74	-111.5
3944.288	-112.17
3946.834	-111.83
3949.378	-110.83
3951.921	-112.17
3954.462	-111.5
3957	-110.17
3959.537	-111.5
3962.072	-114.17
3964.606	-112.5
3967.137	-110.5
3969.667	-110.83
3972.194	-112.17
3974.72	-111.5
3977.244	-109.83
3979.766	-107.83
3982.286	-109.83
3984.805	-109.83
3987.321	-110.17
3989.836	-111.17
3992.349	-109.5
3994.86	-107.5
3997.369	-108.17
3999.877	-108.83
4002.382	-110.5
4004.886	-110.83
4007.388	-109.5
4009.888	-110.5
4012.386	-112.83
4014.883	-110.5
4017.377	-112.83
4019.87	-113.5
4022.361	-112.17
4024.85	-111.5
4027.338	-114.5
4029.823	-114.83
4032.307	-113.83
4034.789	-111.83
4037.269	-111.5
4039.747	-112.17
4042.224	-112.17
4044.699	-110.5
4047.172	-112.17
4049.643	-111.5
4052.112	-110.5
4054.58	-109.5
4057.046	-110.83
4059.51	-108.5
4061.972	-111.17
4064.432	-110.17
4066.891	-111.83
4069.348	-108.83
4071.803	-111.5
4074.256	-111.83
4076.708	-112.83
4079.158	-110.17
4081.606	-110.5
4084.052	-109.5
4086.497	-110.5
4088.939	-110.17
4091.38	-111.5
4093.819	-109.17
4096.257	-115.17
4098.693	-114.83
4101.127	-114.5
4103.559	-114.83
4105.989	-71.5
4108.418	-70.17
4110.845	-65.5
4113.27	-61.5
4115.694	-54.17
4118.115	-46.17
4120.535	-111.17
4122.954	-110.17
4125.37	-107.83
4127.785	-108.83
4130.198	-109.83
4132.609	-110.83
4135.019	-113.17
4137.427	-114.5
4139.833	-113.17
4142.237	-113.17
