160.701	-6.25
166.742	0.75
172.777	20.42
178.805	78.75
184.826	209.08
190.841	422.08
196.849	652.42
202.85	803.42
208.845	833.42
214.833	807.08
220.815	789.75
226.789	748.75
232.758	739.42
238.719	728.75
244.674	710.08
250.623	684.08
256.565	651.42
262.5	629.08
268.429	603.75
274.351	589.42
280.267	576.42
286.176	554.75
292.079	545.75
297.975	539.42
303.865	534.08
309.748	520.75
315.625	510.42
321.495	508.42
327.359	505.75
333.217	506.08
339.068	501.08
344.912	508.08
350.751	500.75
356.583	499.75
362.408	508.42
368.227	510.42
374.04	528.08
379.847	539.08
385.647	557.75
391.44	539.75
397.228	531.08
403.009	533.08
408.784	566.08
414.553	610.75
420.315	669.75
426.071	664.75
431.821	611.75
437.565	561.75
443.302	540.42
449.033	532.08
454.758	524.42
460.477	520.75
466.189	515.75
471.896	507.75
477.596	498.75
483.29	503.42
488.978	496.08
494.66	491.08
500.335	477.42
506.005	458.75
511.668	433.42
517.325	415.75
522.977	398.08
528.622	383.08
534.261	376.08
539.894	364.75
545.521	367.42
551.141	358.08
556.756	356.75
562.365	353.08
567.968	348.42
573.565	341.42
579.155	340.42
584.74	337.42
590.319	338.42
595.892	335.75
601.459	333.75
607.02	333.08
612.575	325.75
618.124	322.08
623.667	315.75
629.204	314.08
634.735	316.08
640.261	323.42
645.781	338.08
651.294	343.75
656.802	328.75
662.304	310.42
667.8	294.42
673.29	290.75
678.775	286.75
684.254	285.42
689.726	282.08
695.193	275.08
700.655	276.08
706.11	275.08
711.56	272.75
717.004	267.75
722.442	272.42
727.874	267.08
733.301	262.08
738.722	262.42
744.137	263.08
749.547	271.75
754.951	272.42
760.349	270.42
765.741	265.42
771.128	260.08
776.509	261.42
781.885	261.42
787.254	262.08
792.618	262.42
797.977	262.08
803.33	259.08
808.677	258.08
814.019	247.08
819.355	243.75
824.686	244.75
830.011	235.75
835.33	233.42
840.644	231.42
845.952	227.75
851.255	224.42
856.552	220.42
861.844	218.75
867.13	214.75
872.41	212.08
877.686	207.75
882.955	206.42
888.219	204.75
893.478	200.08
898.731	187.75
903.979	184.42
909.221	183.75
914.458	181.42
919.69	179.08
924.916	177.08
930.136	175.75
935.351	173.08
940.561	176.75
945.766	174.08
950.965	172.08
956.158	168.42
961.347	165.75
966.529	161.08
971.707	159.08
976.879	158.08
982.046	156.42
987.208	158.08
992.364	156.75
997.515	154.42
1002.66	159.42
1007.801	156.42
1012.936	154.08
1018.066	157.08
1023.19	160.08
1028.309	158.08
1033.423	162.08
1038.532	157.42
1043.636	159.42
1048.734	162.42
1053.827	159.08
1058.915	154.08
1063.998	153.08
1069.075	154.42
1074.147	154.75
1079.214	155.42
1084.276	150.75
1089.333	154.08
1094.385	152.42
1099.431	152.75
1104.472	151.42
1109.509	147.75
1114.54	147.08
1119.565	137.42
1124.586	141.75
1129.602	140.75
1134.613	139.42
1139.618	136.75
1144.619	131.08
1149.614	137.42
1154.604	142.75
1159.589	141.75
1164.57	144.42
1169.545	138.08
1174.515	142.08
1179.48	136.75
1184.44	134.75
1189.395	135.42
1194.345	137.42
1199.29	131.08
1204.23	134.42
1209.165	134.42
1214.095	132.42
1219.021	132.42
1223.941	138.42
1228.856	135.42
1233.766	138.75
1238.672	134.75
1243.572	135.08
1248.467	134.42
1253.358	132.08
1258.244	129.42
1263.124	124.42
1268	119.08
1272.871	120.08
1277.737	121.42
1282.599	118.08
1287.455	120.75
1292.306	122.08
1297.153	119.08
1301.995	121.08
1306.832	119.75
1311.664	119.42
1316.491	122.08
1321.314	115.75
1326.132	117.75
1330.945	117.42
1335.753	110.42
1340.556	109.75
1345.354	107.42
1350.148	106.08
1354.937	105.08
1359.722	108.42
1364.501	105.75
1369.276	102.75
1374.046	100.08
1378.811	104.42
1383.572	106.42
1388.327	101.42
1393.079	97.75
1397.825	99.75
1402.567	97.08
1407.304	97.75
1412.036	97.08
1416.764	97.42
1421.487	94.75
1426.205	96.42
1430.919	92.75
1435.628	96.42
1440.333	96.42
1445.032	93.42
1449.727	96.75
1454.418	97.08
1459.104	96.75
1463.785	94.42
1468.462	93.42
1473.134	91.75
1477.802	95.75
1482.465	93.42
1487.123	93.75
1491.777	93.08
1496.426	93.42
1501.071	97.42
1505.711	96.42
1510.347	102.42
1514.978	102.42
1519.604	100.75
1524.226	101.75
1528.844	102.08
1533.457	98.75
1538.065	102.42
1542.669	103.75
1547.269	103.08
1551.864	102.42
1556.454	103.75
1561.041	106.75
1565.622	108.42
1570.199	109.75
1574.772	113.42
1579.34	115.08
1583.904	123.42
1588.464	124.75
1593.019	124.75
1597.569	127.75
1602.115	129.42
1606.657	132.75
1611.195	134.42
1615.728	137.08
1620.256	138.42
1624.78	144.08
1629.3	149.42
1633.816	153.75
1638.327	155.75
1642.834	158.42
1647.336	158.75
1651.834	159.75
1656.328	156.08
1660.817	154.08
1665.302	152.08
1669.783	143.42
1674.259	139.75
1678.732	131.08
1683.199	126.08
1687.663	119.75
1692.122	110.42
1696.577	106.42
1701.028	102.42
1705.474	95.42
1709.917	92.75
1714.355	90.08
1718.788	83.42
1723.218	81.42
1727.643	78.08
1732.064	72.08
1736.481	69.08
1740.893	64.08
1745.301	61.08
1749.705	55.08
1754.105	56.75
1758.501	50.08
1762.893	47.42
1767.28	45.42
1771.663	46.42
1776.042	47.42
1780.417	44.75
1784.787	43.42
1789.154	44.75
1793.516	42.75
1797.874	43.08
1802.228	43.75
1806.578	41.75
1810.924	38.42
1815.266	32.42
1819.603	36.75
1823.937	34.42
1828.266	34.75
1832.591	34.75
1836.913	36.08
1841.23	36.42
1845.543	32.42
1849.852	34.08
1854.156	34.75
1858.457	36.75
1862.754	35.75
1867.047	34.08
1871.335	34.75
1875.62	34.75
1879.9	33.75
1884.177	35.42
1888.449	32.75
1892.718	30.42
1896.982	34.08
1901.243	32.75
1905.499	31.42
1909.752	33.75
1914	32.75
1918.245	33.08
1922.485	33.75
1926.722	32.42
1930.954	36.42
1935.183	38.08
1939.408	33.75
1943.628	37.75
1947.845	35.42
1952.058	34.42
1956.267	33.42
1960.472	32.42
1964.673	31.42
1968.87	30.75
1973.063	31.75
1977.252	31.08
1981.438	31.08
1985.619	31.75
1989.797	27.75
1993.971	28.75
1998.14	29.42
2002.306	31.08
2006.469	31.42
2010.627	31.75
2014.781	31.08
2018.932	29.42
2023.078	31.08
2027.221	32.08
2031.36	28.08
2035.495	29.08
2039.627	29.42
2043.754	32.08
2047.878	29.75
2051.998	30.08
2056.114	28.42
2060.226	31.08
2064.334	29.42
2068.439	32.75
2072.54	31.08
2076.637	31.42
2080.73	34.42
2084.82	36.08
2088.906	33.42
2092.988	34.08
2097.066	34.08
2101.14	32.42
2105.211	32.42
2109.278	32.42
2113.342	29.75
2117.401	32.08
2121.457	32.75
2125.509	34.08
2129.558	32.08
2133.602	28.08
2137.643	29.42
2141.681	31.42
2145.714	26.08
2149.744	29.08
2153.77	24.75
2157.793	29.75
2161.812	27.42
2165.827	22.75
2169.838	23.75
2173.846	22.08
2177.851	21.08
2181.851	21.08
2185.848	19.08
2189.841	22.75
2193.831	21.08
2197.817	19.75
2201.799	21.42
2205.778	18.42
2209.753	19.08
2213.725	20.08
2217.693	16.75
2221.657	18.08
2225.618	16.08
2229.575	14.08
2233.529	13.42
2237.479	13.75
2241.425	15.08
2245.368	10.75
2249.307	10.75
2253.243	11.42
2257.175	9.75
2261.104	12.08
2265.029	10.42
2268.95	9.08
2272.868	8.75
2276.783	8.75
2280.694	8.42
2284.601	7.75
2288.505	5.75
2292.405	5.42
2296.302	4.08
2300.195	2.42
2304.085	1.08
2307.971	4.42
2311.854	4.42
2315.734	2.42
2319.609	2.08
2323.482	1.75
2327.351	0.75
2331.216	0.08
2335.078	3.75
2338.937	0.75
2342.792	2.08
2346.643	0.42
2350.492	-1.92
2354.336	-1.92
2358.178	-0.92
2362.015	-1.58
2365.85	-1.92
2369.681	-2.92
2373.508	-0.58
2377.333	-3.92
2381.153	-0.58
2384.971	-0.25
2388.785	-2.58
2392.595	-0.92
2396.402	-0.58
2400.206	-0.92
2404.007	-5.58
2407.804	-4.25
2411.597	-0.92
2415.388	-1.92
2419.174	-3.25
2422.958	-3.92
2426.738	-5.92
2430.515	-4.92
2434.289	-6.58
2438.059	-4.58
2441.825	-5.25
2445.589	-3.92
2449.349	-4.92
2453.106	-3.58
2456.859	-3.58
2460.61	-2.25
2464.356	-2.92
2468.1	-3.58
2471.84	-4.92
2475.577	-4.58
2479.311	-3.92
2483.041	-6.25
2486.768	-8.58
2490.492	-7.58
2494.213	-6.92
2497.93	-7.25
2501.644	-6.92
2505.355	-7.92
2509.062	-5.58
2512.766	-7.92
2516.467	-4.58
2520.165	-2.25
2523.859	-5.92
2527.551	-3.92
2531.239	-4.58
2534.923	-5.92
2538.605	-6.58
2542.283	-5.25
2545.958	-7.25
2549.63	-9.25
2553.299	-6.92
2556.964	-8.58
2560.626	-10.25
2564.285	-10.25
2567.941	-8.25
2571.594	-6.58
2575.243	-8.25
2578.89	-8.92
2582.533	-7.25
2586.173	-6.58
2589.809	-9.25
2593.443	-9.92
2597.073	-8.58
2600.701	-9.25
2604.325	-10.58
2607.946	-9.25
2611.564	-10.92
2615.178	-9.25
2618.79	-13.58
2622.398	-11.25
2626.004	-9.58
2629.606	-11.25
2633.205	-11.92
2636.801	-10.58
2640.394	-9.25
2643.983	-10.25
2647.57	-10.92
2651.153	-10.25
2654.734	-10.25
2658.311	-10.58
2661.885	-9.25
2665.456	-11.25
2669.025	-9.92
2672.589	-9.92
2676.151	-10.92
2679.71	-12.92
2683.266	-13.25
2686.819	-10.92
2690.368	-12.25
2693.915	-11.92
2697.458	-11.25
2700.999	-9.25
2704.536	-9.25
2708.071	-7.92
2711.602	-8.58
2715.13	-8.92
2718.656	-7.58
2722.178	-6.92
2725.697	-10.25
2729.214	-11.25
2732.727	-9.25
2736.237	-9.92
2739.744	-10.92
2743.249	-8.92
2746.75	-10.92
2750.248	-8.92
2753.743	-9.92
2757.236	-8.92
2760.725	-7.58
2764.211	-8.92
2767.695	-7.58
2771.175	-5.92
2774.652	-8.25
2778.127	-5.25
2781.598	-6.25
2785.067	-6.92
2788.532	-7.92
2791.995	-6.25
2795.455	-10.25
2798.911	-8.58
2802.365	-9.25
2805.816	-7.25
2809.264	-7.25
2812.709	-5.25
2816.151	-3.25
2819.59	-4.92
2823.026	-5.25
2826.46	-3.92
2829.89	-3.58
2833.318	-1.92
2836.742	-2.58
2840.164	-2.25
2843.583	-3.92
2846.999	-1.58
2850.412	-1.58
2853.822	-0.92
2857.229	-4.25
2860.634	-1.92
2864.035	-0.92
2867.434	2.42
2870.83	3.08
2874.223	5.08
2877.613	3.75
2881	6.42
2884.385	6.75
2887.766	8.42
2891.145	9.08
2894.521	9.42
2897.894	7.42
2901.264	8.75
2904.631	9.08
2907.996	9.08
2911.358	6.75
2914.717	10.75
2918.073	11.08
2921.426	10.75
2924.777	13.08
2928.124	11.75
2931.469	16.08
2934.811	17.08
2938.15	17.08
2941.487	17.75
2944.821	16.75
2948.152	20.42
2951.48	19.42
2954.805	22.75
2958.128	20.08
2961.447	23.08
2964.765	21.42
2968.079	24.08
2971.39	23.08
2974.699	24.75
2978.005	28.42
2981.308	31.42
2984.609	30.42
2987.907	36.75
2991.202	36.75
2994.494	38.42
2997.784	42.75
3001.07	41.75
3004.355	43.75
3007.636	44.75
3010.915	46.08
3014.191	50.75
3017.464	48.75
3020.734	50.42
3024.002	50.42
3027.267	56.42
3030.53	56.42
3033.789	54.08
3037.046	58.42
3040.301	62.42
3043.552	66.08
3046.801	68.08
3050.048	71.08
3053.291	73.42
3056.532	77.08
3059.771	77.75
3063.006	82.08
3066.239	86.75
3069.469	89.08
3072.697	92.08
3075.922	98.42
3079.144	103.75
3082.364	106.08
3085.581	106.75
3088.795	111.08
3092.007	115.75
3095.216	118.08
3098.423	119.08
3101.627	124.75
3104.828	127.75
3108.026	137.08
3111.222	138.42
3114.416	143.75
3117.607	145.08
3120.795	150.75
3123.98	152.42
3127.163	156.08
3130.344	163.08
3133.521	165.75
3136.696	171.08
3139.869	172.75
3143.039	175.75
3146.206	183.75
3149.371	183.75
3152.533	187.75
3155.693	186.42
3158.85	185.75
3162.005	188.42
3165.157	188.08
3168.306	190.75
3171.453	194.08
3174.597	192.08
3177.739	194.75
3180.878	196.75
3184.014	199.08
3187.149	200.75
3190.28	198.75
3193.409	199.42
3196.536	201.42
3199.659	200.08
3202.781	203.08
3205.9	204.42
3209.016	203.08
3212.13	200.42
3215.241	200.08
3218.35	197.08
3221.456	201.08
3224.56	198.42
3227.661	200.08
3230.76	198.42
3233.856	192.08
3236.95	195.75
3240.041	196.42
3243.13	192.42
3246.216	191.42
3249.3	191.08
3252.382	187.42
3255.46	190.42
3258.537	187.75
3261.611	191.75
3264.682	188.75
3267.751	185.75
3270.818	188.75
3273.882	184.75
3276.943	183.42
3280.002	183.08
3283.059	182.42
3286.113	180.42
3289.165	178.75
3292.214	175.42
3295.261	175.42
3298.306	175.08
3301.348	165.08
3304.387	161.75
3307.425	165.75
3310.459	158.42
3313.492	162.08
3316.521	158.75
3319.549	152.08
3322.574	151.42
3325.597	155.75
3328.617	149.42
3331.635	147.08
3334.65	147.08
3337.663	152.42
3340.674	150.42
3343.682	149.75
3346.688	150.42
3349.691	149.08
3352.692	148.08
3355.691	142.42
3358.687	146.42
3361.681	143.08
3364.673	141.08
3367.662	141.75
3370.649	140.08
3373.633	140.75
3376.615	138.75
3379.595	135.08
3382.572	134.75
3385.547	134.08
3388.52	133.42
3391.49	124.08
3394.458	129.08
3397.424	127.42
3400.387	124.42
3403.348	124.42
3406.307	120.42
3409.263	119.75
3412.217	116.42
3415.168	118.75
3418.118	120.42
3421.065	115.75
3424.009	114.75
3426.951	116.08
3429.891	114.08
3432.829	113.75
3435.764	110.42
3438.697	108.08
3441.628	105.75
3444.557	100.42
3447.483	97.08
3450.407	94.75
3453.328	95.75
3456.247	86.75
3459.164	85.75
3462.079	86.42
3464.991	83.42
3467.902	79.75
3470.809	78.42
3473.715	75.75
3476.618	75.42
3479.519	71.75
3482.418	68.08
3485.315	69.75
3488.209	66.08
3491.101	65.08
3493.99	62.75
3496.878	59.42
3499.763	59.08
3502.646	56.75
3505.527	53.75
3508.405	53.42
3511.281	49.75
3514.155	46.75
3517.027	42.75
3519.897	41.42
3522.764	42.75
3525.629	41.08
3528.492	38.75
3531.352	34.75
3534.211	30.75
3537.067	31.42
3539.921	30.42
3542.773	27.42
3545.622	27.08
3548.469	22.75
3551.315	19.08
3554.157	20.08
3556.998	16.42
3559.837	17.75
3562.673	16.08
3565.507	14.75
3568.339	14.08
3571.169	12.75
3573.996	11.08
3576.822	11.75
3579.645	11.08
3582.466	8.08
3585.285	7.08
3588.101	3.42
3590.916	5.42
3593.728	3.08
3596.538	-0.25
3599.346	1.08
3602.152	0.42
3604.956	0.08
3607.757	1.42
3610.556	-2.58
3613.354	-2.58
3616.149	-3.25
3618.942	-5.92
3621.732	-6.92
3624.521	-6.25
3627.307	-4.58
3630.092	-8.25
3632.874	-9.58
3635.654	-5.58
3638.432	-8.25
3641.208	-8.92
3643.982	-8.92
3646.753	-12.92
3649.523	-12.25
3652.29	-10.25
3655.055	-11.58
3657.818	-13.92
3660.579	-12.92
3663.338	-14.25
3666.095	-14.25
3668.849	-13.92
3671.602	-16.25
3674.352	-13.58
3677.101	-14.25
3679.847	-16.92
3682.591	-15.92
3685.333	-15.25
3688.073	-17.25
3690.811	-16.58
3693.547	-15.58
3696.281	-18.25
3699.013	-17.92
3701.742	-17.58
3704.47	-18.25
3707.195	-18.25
3709.919	-17.92
3712.64	-16.58
3715.359	-16.58
3718.076	-15.92
3720.792	-17.58
3723.505	-18.92
3726.216	-20.92
3728.925	-18.58
3731.632	-19.58
3734.336	-18.92
3737.039	-20.25
3739.74	-21.58
3742.439	-18.25
3745.136	-19.92
3747.83	-20.58
3750.523	-20.25
3753.213	-19.58
3755.902	-19.92
3758.589	-19.25
3761.273	-18.92
3763.956	-20.92
3766.636	-19.58
3769.315	-22.92
3771.991	-21.25
3774.665	-22.58
3777.338	-21.92
3780.008	-21.92
3782.677	-21.25
3785.343	-21.25
3788.007	-20.25
3790.67	-22.58
3793.33	-21.58
3795.989	-21.25
3798.645	-20.92
3801.299	-21.25
3803.952	-20.25
3806.602	-21.25
3809.251	-20.58
3811.897	-20.58
3814.542	-23.25
3817.184	-22.58
3819.825	-22.25
3822.463	-23.25
3825.1	-24.25
3827.735	-23.58
3830.367	-21.92
3832.998	-22.92
3835.627	-24.58
3838.253	-23.92
3840.878	-24.58
3843.501	-23.58
3846.122	-22.92
3848.741	-22.92
3851.358	-23.25
3853.973	-24.92
3856.586	-22.92
3859.197	-21.25
3861.806	-23.92
3864.414	-23.92
3867.019	-24.25
3869.622	-23.25
3872.224	-24.25
3874.823	-19.92
3877.421	-20.25
3880.016	-18.25
3882.61	-16.25
3885.202	-14.25
3887.792	-14.58
3890.38	-17.58
3892.966	-19.58
3895.55	-21.58
3898.132	-23.25
3900.713	-20.25
3903.291	-22.25
3905.868	-24.25
3908.442	-22.25
3911.015	-23.25
3913.586	-25.25
3916.155	-24.58
3918.722	-24.58
3921.287	-22.92
3923.85	-24.58
3926.411	-23.92
3928.971	-21.92
3931.528	-22.58
3934.084	-22.58
3936.638	-22.25
3939.19	-19.92
3941.74	-21.92
3944.288	-24.25
3946.834	-23.92
3949.378	-21.25
3951.921	-24.58
3954.462	-23.58
3957	-22.58
3959.537	-24.25
3962.072	-24.58
3964.606	-23.25
3967.137	-22.58
3969.667	-24.25
3972.194	-23.92
3974.72	-23.25
3977.244	-21.25
3979.766	-20.92
3982.286	-22.25
3984.805	-22.25
3987.321	-23.92
3989.836	-23.25
3992.349	-24.58
3994.86	-23.58
3997.369	-21.25
3999.877	-24.58
4002.382	-26.92
4004.886	-24.92
4007.388	-23.25
4009.888	-23.58
4012.386	-25.92
4014.883	-24.92
4017.377	-23.92
4019.87	-24.58
4022.361	-20.92
4024.85	-22.58
4027.338	-24.58
4029.823	-24.58
4032.307	-24.25
4034.789	-24.58
4037.269	-24.92
4039.747	-26.25
4042.224	-24.92
4044.699	-24.25
4047.172	-24.58
4049.643	-26.25
4052.112	-23.25
4054.58	-22.25
4057.046	-24.58
4059.51	-21.58
4061.972	-23.25
4064.432	-22.25
4066.891	-22.92
4069.348	-20.25
4071.803	-21.25
4074.256	-22.92
4076.708	-23.92
4079.158	-21.58
4081.606	-21.92
4084.052	-22.58
4086.497	-23.58
4088.939	-22.25
4091.38	-23.58
4093.819	-22.25
4096.257	-22.92
4098.693	-23.25
4101.127	-22.92
4103.559	-23.25
4105.989	-10.25
4108.418	-9.92
4110.845	-10.25
4113.27	-11.92
4115.694	-8.58
4118.115	-7.58
4120.535	-23.58
4122.954	-22.25
4125.37	-22.25
4127.785	-20.25
4130.198	-21.58
4132.609	-20.92
4135.019	-23.92
4137.427	-22.58
4139.833	-22.92
4142.237	-24.25
