##TITLE=AAI0502
##FORMAT=SPECTACLE-ASCII V-1.2
##DATA TYPE=ULTRAVIOLET SPECTRUM
##SECOND TYPE=ULTRAVIOLET SPECTRUM
##DATE=05/24/18
##TIME=16:16:02
##SPECTROMETER/DATA SYSTEM=SPECTACLE
##XUNITS=NM EM
##YUNITS=ENERGY
##YFACTOR=1
##FIRSTX=220
##LASTX=410
##NPOINTS=96
##3DDATA=Equidistant
##ZUNITS=NM EX
##FIRSTZ=210
##LASTZ=400
##ZPOINTS=39
##XYDATA=(Y..Y)
##ZVALUE=210
8.457899
8.235574
7.659793
7.129908
6.756783
6.697774
7.399917
6.015897
5.883574
6.717443
5.152822
4.083514
5.659461
5.147457
5.658865
5.226731
5.854964
7.264614
6.942749
6.756783
6.778836
7.590652
9.039640
8.918643
8.734465
10.220408
9.323955
11.799932
10.062456
11.559725
11.329651
13.091564
12.508631
12.745857
12.443662
13.774633
13.782978
14.328957
15.316606
15.251637
15.734434
15.277863
16.686916
17.118454
16.880631
17.892718
17.655492
19.174814
19.196868
19.368529
20.142794
19.483566
20.849705
21.817684
22.409558
22.805929
23.092628
22.620559
21.377802
21.367669
22.661686
22.879839
23.681521
24.406910
27.196407
31.729937
36.753416
39.321780
51.894784
58.254600
68.454742
75.827837
86.199641
90.022683
97.874999
95.583797
93.802810
90.572834
76.959729
68.739653
58.126450
49.956441
42.939782
36.546588
29.552579
26.963949
26.127696
23.613572
23.430586
24.063587
24.008751
24.703741
24.771690
27.566552
29.794574
30.092597
##ZVALUE=215
34.960508
36.160946
25.192499
21.326542
15.412569
14.425516
14.221668
13.955832
14.476776
11.914968
11.082888
10.139942
8.151531
7.531643
6.877780
5.963445
5.964637
6.675720
6.131530
7.078648
8.087754
8.409619
8.245707
8.666515
9.100437
9.413958
9.922981
10.745525
11.256933
11.542439
12.298822
11.763573
11.863708
12.864470
13.353825
13.925433
13.626814
15.204549
15.640855
16.011596
15.785694
16.908646
17.102957
16.833544
17.221570
17.458797
16.855597
18.785596
17.915964
19.817948
20.670891
19.203424
20.162463
19.587874
20.074844
20.447969
20.822883
20.299554
21.348596
20.685792
22.225976
24.035573
21.324754
23.786426
26.607513
29.079914
31.420588
38.007498
42.594671
53.123832
58.335662
68.349838
71.871877
78.172684
81.405640
77.629685
79.322457
71.619749
65.763593
57.086945
49.738884
43.441653
37.563443
31.164885
30.942559
25.270581
24.392605
23.205876
22.789836
24.346709
22.125840
22.070408
22.406578
21.105409
23.787618
22.970438
##ZVALUE=220
118.511915
116.540790
115.569830
100.068450
82.579851
59.359670
44.344664
32.737851
30.602813
25.304556
25.406480
25.710464
23.778677
21.019578
16.555786
12.199879
9.635687
7.890463
7.174611
7.189512
7.124543
6.809831
7.584691
8.176565
8.907914
8.879900
9.087920
9.879470
9.674430
9.847879
9.995699
11.393428
13.029575
12.550950
12.691617
13.389587
13.541579
13.309717
14.460683
14.270544
14.952421
15.637875
14.086962
16.362667
16.922951
16.570687
15.691519
16.773939
16.689897
17.330647
17.576814
17.681718
18.624663
18.470883
18.054843
18.674731
18.951893
19.590855
19.249916
19.177794
18.952489
20.766854
20.826459
20.569563
21.805763
25.409460
26.638508
30.951500
34.383535
41.935444
48.004985
51.881671
57.140589
63.013434
65.442920
62.679648
58.601499
54.320693
50.527453
43.739676
42.634606
32.512546
30.398965
27.580857
24.418831
21.697879
21.527410
20.703673
19.963980
19.120574
19.007921
19.074678
18.920898
18.945932
17.088652
18.783808
##ZVALUE=225
173.132420
179.288983
217.989683
249.646902
251.641870
228.592753
188.629627
133.867860
95.015764
69.973469
50.438643
44.941902
45.579672
45.229793
44.276714
39.119720
30.125976
23.541451
17.678738
12.182593
9.507537
7.632971
7.134676
7.193685
7.476807
7.332563
7.966757
7.799864
7.878542
8.998513
9.300709
9.698868
9.816885
10.971427
10.302663
11.292696
11.525750
10.876656
13.089776
13.998747
12.815595
14.044642
13.273954
12.904406
14.128685
14.418960
13.789535
15.379786
14.540553
14.895797
15.652776
16.096830
16.213655
17.205477
17.746687
16.150475
16.111732
17.299652
17.055869
16.263723
16.111732
19.180775
18.156767
19.084811
20.116568
21.855831
23.525953
26.667714
31.916499
33.647418
39.069653
42.849779
48.127770
48.745871
52.077770
49.313903
45.585632
41.676760
37.266612
33.173561
28.977990
26.479959
23.717880
21.122694
20.152926
18.615723
19.275546
18.747449
17.842650
18.662810
16.454458
16.232729
15.979409
16.814470
16.662478
16.404986
##ZVALUE=230
112.632513
126.583576
192.067623
290.657878
362.913609
423.059464
425.799489
388.778448
331.971645
263.266563
161.035657
108.913779
76.242685
68.119764
66.522956
71.486831
68.437457
63.227415
49.469471
43.603778
31.075478
19.310713
14.498830
9.066463
6.985664
6.912947
6.837845
6.527901
7.764697
7.245541
8.035898
8.800626
8.481741
8.455515
9.260774
9.266734
9.315610
9.580851
10.104775
10.666847
11.284947
10.954738
10.503531
11.363626
11.675954
11.975765
11.547804
11.961460
11.869669
12.460947
12.356639
12.297630
13.547540
12.945533
13.840795
13.985634
14.204979
13.229847
14.467835
14.431477
14.675856
14.990568
16.288757
15.087724
16.837716
18.701553
20.709634
23.675561
26.122928
29.843450
32.570958
35.498738
37.858486
39.694905
38.671494
39.198995
36.062598
35.678744
30.351877
27.770996
24.853945
22.331476
19.644499
20.208955
18.806458
17.525554
19.217730
17.229915
17.277598
16.805530
15.749931
17.675757
15.739799
15.525818
16.400814
16.229749
##ZVALUE=235
26.789904
32.429695
67.900419
162.937641
260.142684
398.436785
511.189699
610.455871
639.955997
609.917641
502.536893
382.979512
244.515538
170.977712
113.560557
91.319680
86.447597
89.314580
92.159510
89.109540
83.415508
64.369440
52.636862
33.664703
22.015572
13.591647
9.699464
7.472634
6.870627
6.705523
6.716847
6.898642
7.294416
7.539988
8.616447
8.321404
8.583665
9.120703
9.157658
8.992553
8.757710
9.335876
9.995699
9.937882
9.605885
9.311438
10.520816
10.992885
10.740757
10.288954
11.501908
11.627674
11.313558
12.611747
12.710690
12.346506
12.437701
12.801886
13.529658
12.671947
13.639927
14.588833
14.275908
14.709830
15.789866
17.095804
18.938780
21.063685
23.620725
27.742982
30.014515
31.572580
34.957528
34.411550
35.867691
35.532713
35.313964
29.920936
28.976798
25.388598
23.224950
21.284819
20.336509
19.863844
18.833876
18.389821
19.006729
17.536879
16.612411
16.549826
16.738772
16.992688
16.105771
16.236901
16.839504
16.233921
##ZVALUE=240
2.218485
2.372861
9.987950
27.325749
80.141425
154.550672
302.437544
443.309546
646.387935
761.666894
825.843811
792.902708
705.119967
529.520512
391.487479
235.641599
163.563490
112.413764
95.686913
97.832680
105.704665
107.214451
101.652741
90.610981
69.323778
53.511858
36.752820
25.357604
15.681982
11.156797
8.588433
7.423759
7.664561
7.787943
7.806420
8.104444
7.963777
8.160472
8.318424
8.171797
8.524656
8.148551
8.190870
9.069443
9.189844
9.274483
9.189844
9.586811
9.964705
10.532737
9.723902
10.136962
10.547638
10.616779
11.164546
11.082888
11.256933
10.868907
11.336803
12.304783
12.078881
12.525916
12.380481
13.499856
13.914704
15.396476
16.717911
18.670559
20.999908
24.446845
26.332736
29.779673
31.264424
32.929778
32.056570
31.647682
28.019547
27.805567
25.989413
22.627711
21.687746
20.984411
19.227862
17.790794
18.374920
17.067790
17.286539
16.941428
16.403794
17.515421
16.789436
16.461611
15.611649
15.946627
15.427470
15.874505
##ZVALUE=245
1.591444
1.591444
1.792908
2.034903
5.332828
26.809573
69.563985
176.230669
303.157568
466.337800
709.046721
879.774690
1009.144783
1014.041901
933.392644
800.114870
584.177971
432.185531
300.979614
172.903538
122.060776
96.312761
100.704432
112.116933
114.462972
106.337667
93.817711
74.551702
58.694482
41.970611
28.798580
16.824603
11.933446
9.002686
7.782578
7.356405
7.278919
7.212758
7.587671
7.756948
7.390976
7.730722
7.730722
7.844567
8.085966
7.633567
7.890463
7.869601
8.161664
8.617640
8.823872
8.611679
8.621812
9.302497
8.701682
9.240508
9.451509
9.446740
9.666681
9.917617
9.518862
10.793805
10.632873
11.139512
11.782646
13.053417
14.386773
16.355515
18.171668
20.078421
21.640658
25.099516
26.761889
26.863813
26.927590
25.661588
25.056601
22.366643
22.215843
20.002723
18.282533
17.349720
17.133951
16.605854
15.312433
15.252829
15.643835
14.835596
14.754534
15.097857
14.425516
14.944673
14.316440
14.317632
15.486479
15.157461
##ZVALUE=250
1.539588
1.375675
1.549721
1.588464
1.804829
1.669526
3.008842
10.770559
50.673485
110.878944
263.601542
425.052643
609.423518
859.932899
1002.961993
1015.885472
1015.885472
976.966619
824.932456
573.548675
388.436913
247.864723
133.726001
92.878938
91.173649
102.621913
115.560889
119.269490
110.973716
99.584460
84.555745
61.678886
46.221614
27.275681
18.613935
11.445880
8.593798
7.022619
6.996989
7.309914
7.257462
7.005930
7.254481
6.975532
6.643534
7.210970
7.620454
7.204413
7.556677
7.152557
7.700920
7.556677
7.425547
7.544756
8.008480
8.393526
8.383989
8.277893
8.438826
8.899570
8.697510
8.832812
9.168983
9.650588
9.918809
10.744929
11.660457
13.601780
14.369488
16.576648
18.172860
19.608736
20.537972
21.052957
21.280646
20.682812
20.266771
18.740892
16.648769
15.808940
15.468597
13.966560
13.722777
13.124943
13.640523
12.900829
12.941957
13.200641
12.723804
12.904406
12.624860
12.964606
12.369752
13.090968
12.637973
12.595654
##ZVALUE=255
1.157522
1.305938
1.292825
1.342893
1.259446
1.562834
1.821518
1.670718
1.955628
4.833937
27.363896
69.841743
143.124461
309.502482
482.645035
739.582777
913.177729
1015.794873
1015.794873
1015.794873
904.085636
702.769756
425.468683
262.841582
133.032799
88.635683
75.948834
83.974600
103.956461
114.896894
118.192434
114.388466
104.043484
81.543922
65.426826
41.227937
28.708577
17.167926
11.224747
7.639527
6.761551
6.316900
6.025434
6.208420
6.443858
6.670952
6.436706
6.336570
6.360412
6.906986
6.813407
7.126927
7.043481
6.782413
7.082820
7.472634
7.455945
7.483959
8.001924
7.520914
7.797480
7.598996
8.480549
8.192658
8.515716
9.094477
10.017753
11.009574
12.537837
13.678670
15.220642
16.976595
17.478466
17.190576
17.533898
17.520785
15.634894
15.321970
14.566779
13.389587
12.661815
12.627840
12.058616
11.709929
11.603832
11.380911
10.904670
11.569858
11.882782
10.868907
10.775924
11.005998
11.099577
10.941625
11.247993
10.950565
##ZVALUE=260
1.186728
1.037717
1.259446
1.291633
1.278520
1.228452
1.263618
1.365542
1.529455
1.901984
1.793504
3.092885
10.656714
47.447681
101.791620
245.958567
408.855677
677.840710
894.089937
1015.794873
1015.794873
1015.794873
1015.794873
908.916593
589.913726
396.460891
210.840702
123.656988
73.626637
68.411827
84.148645
100.639462
113.617778
120.873451
117.699504
104.341507
87.160468
63.140988
46.668649
28.865933
19.231439
11.408925
8.424520
6.528497
6.327629
6.501675
6.630421
6.710887
6.348491
6.579757
6.706715
7.044673
6.951690
6.883740
6.935596
6.867647
7.396936
7.737875
7.591844
7.526875
7.300973
7.504821
7.491708
7.895827
8.477569
8.615851
9.219646
9.865761
11.190772
12.963414
13.455749
14.192462
15.171766
15.316606
14.832616
14.677644
14.097691
12.903810
12.664795
11.529922
10.864735
10.902882
10.410547
10.575652
9.879470
10.064840
10.617971
10.115504
9.897947
9.873509
10.211468
10.038614
9.730458
9.719729
9.899735
9.972453
##ZVALUE=265
1.073480
1.098514
1.041889
1.085997
1.146793
1.271963
1.312494
1.371503
1.449585
1.459718
1.521707
1.877546
1.842976
2.181530
5.270839
28.591752
71.086884
183.512568
327.249765
614.893436
872.967839
1015.794873
1015.794873
1015.794873
1015.794873
1015.794873
817.637444
568.365455
307.171941
179.366469
87.623000
59.999824
62.889457
85.264444
101.360679
118.224621
123.200417
116.997957
105.301738
85.505843
66.899657
44.693947
30.876994
17.440915
11.595488
7.843971
6.662607
6.019473
6.343722
6.472468
6.534457
6.669760
6.561875
6.683469
6.845593
6.548762
7.175803
6.567836
6.709695
6.841421
6.945729
7.076859
6.913543
7.109642
7.361770
7.950664
8.794665
9.261966
10.276437
11.482835
12.537837
13.251901
13.619661
13.485551
13.453960
13.216734
12.556911
11.692643
10.946989
10.367632
9.956956
9.313822
9.341836
9.344816
8.612871
8.937716
8.994937
9.107590
9.004474
9.101629
9.300709
8.951426
9.104609
9.058714
9.032488
9.247661
##ZVALUE=270
1.047850
0.892878
1.096725
0.981688
1.112819
1.065731
1.221895
1.257658
1.244545
1.121759
1.418591
1.183748
1.501441
1.599789
1.633763
1.854897
2.483726
11.837482
38.253665
127.214789
260.618925
462.917686
825.099945
1015.794873
1015.794873
1015.794873
1015.794873
1015.794873
1015.794873
828.060508
563.798547
287.785530
154.317617
65.716505
50.259829
62.985420
80.804825
103.532672
115.468502
121.362805
118.460655
104.618669
88.897943
65.681934
48.999786
29.276609
20.404458
11.875629
8.784533
7.164478
6.692410
6.136894
6.697774
6.904602
6.648898
6.891489
6.878972
6.340742
6.606579
6.743670
6.892681
6.829500
6.766915
6.996989
6.838441
7.535815
7.742643
9.150505
9.735823
10.666847
11.884570
12.779832
12.906790
13.378859
13.119578
11.837482
11.350513
10.388494
10.138750
9.414554
9.147525
8.858442
8.531809
8.583665
8.568764
8.418560
8.523464
8.774996
8.442998
8.604527
8.310676
8.145571
8.525848
8.444786
8.351803
8.514524
##ZVALUE=275
0.873804
0.822544
0.878572
1.015663
1.000762
0.925660
1.085997
1.065731
1.010895
1.218915
1.288652
1.410842
1.278520
1.542568
1.428723
1.481771
1.711845
1.790524
1.986623
5.170703
20.366907
62.689781
193.882585
375.130773
727.604032
994.603634
1015.794873
1015.794873
1015.794873
1015.794873
1015.794873
1015.794873
788.941383
422.155857
235.472918
92.119575
49.789548
45.328736
57.879686
81.334710
97.072721
113.693476
119.508505
115.973949
106.139779
85.320473
68.905950
47.581792
33.442974
20.234585
13.686419
8.880496
7.339716
6.663799
6.370544
6.510615
6.541610
6.476641
6.664991
6.533861
6.652474
6.655455
6.863475
6.730556
6.974936
7.407665
7.785559
8.466840
8.874536
10.107756
10.919571
11.364818
11.792779
12.388825
11.832714
11.274815
10.871887
10.150671
9.786487
9.009838
8.492470
8.228421
7.915497
8.254647
8.066893
7.828474
7.967949
7.884502
7.622838
8.020997
7.778406
7.915497
7.731915
7.961988
7.998943
7.982850
##ZVALUE=280
0.915527
0.923872
0.931621
0.969768
0.860691
1.131892
0.969768
1.118779
1.216531
1.150966
1.126528
1.248717
1.344681
1.234412
1.264811
1.468658
1.500845
1.450777
1.709461
1.793504
1.979470
2.937913
11.119843
54.660439
137.854815
341.996551
565.658808
964.066982
1015.794873
1015.794873
1015.794873
1015.794873
1015.794873
1015.794873
983.361006
590.086579
343.900919
138.861537
64.276457
34.853816
41.548610
59.807897
76.459646
96.773505
109.476447
118.538737
114.706755
102.855563
89.007616
67.130923
50.380826
32.965541
21.984577
13.209581
9.783506
7.695556
6.796718
6.672740
6.632805
6.502867
6.781816
6.640553
6.664991
6.989837
6.748438
7.500648
7.798672
8.236766
8.714795
9.745955
10.308623
10.555983
11.119843
10.738969
10.580420
9.739995
9.569526
9.263754
8.675456
8.309484
8.313656
7.937551
7.732511
7.688999
7.494688
7.573962
7.921457
7.805824
7.279515
7.619858
7.708669
7.462502
7.343888
7.532835
7.650852
7.444620
##ZVALUE=285
0.845790
0.811815
0.758767
0.801682
0.897646
0.966787
0.966787
1.040697
1.042485
1.007915
1.065731
1.204610
1.057982
1.229644
1.323819
1.296997
1.402497
1.415610
1.429915
1.566410
1.624823
1.940727
1.868606
2.435446
6.510615
22.553802
88.128448
193.029642
438.159704
727.723837
1012.731791
1015.794873
1015.794873
1015.794873
1015.794873
1015.794873
1015.794873
843.215585
527.118444
239.860415
113.104582
38.594604
27.854443
38.119555
53.302646
75.770617
89.610815
105.787516
113.270879
113.169551
106.035471
86.996555
72.263479
50.295591
35.643578
21.605492
14.563799
9.739995
7.782578
6.873608
6.531477
6.768703
6.708503
6.843805
7.110834
6.688833
7.251501
8.050799
8.333921
9.141564
9.348989
10.094643
10.272861
9.930730
9.809732
9.569526
8.709431
8.226633
8.157492
8.309484
7.646680
7.554889
7.504821
7.567406
7.491708
7.443428
7.473826
7.341504
7.112622
7.218719
7.411838
7.480979
7.312894
7.242560
7.325411
7.307529
##ZVALUE=290
0.978708
0.881553
0.857711
0.886917
1.017451
0.927448
1.023412
0.909567
0.913739
0.961423
1.086593
1.051426
1.106858
1.119971
1.179576
1.167655
1.257658
1.211762
1.329780
1.290441
1.437664
1.582503
1.611710
1.855493
1.955628
2.448559
2.994537
9.171963
50.412416
125.543475
262.825489
576.998591
932.283998
1015.794873
1015.794873
1015.794873
1015.794873
1015.794873
1015.794873
1015.794873
782.457590
389.120579
193.526745
60.959458
27.490854
25.311708
33.897758
50.647855
66.221952
87.969899
100.649595
110.791922
111.237764
102.202892
89.585781
67.489743
51.024556
34.190416
23.715496
14.549494
10.322928
7.861853
6.755590
6.873608
6.608963
7.150769
7.278919
8.015633
8.300543
9.174943
9.354949
9.845495
10.208488
9.773970
9.662509
9.154677
8.678436
8.491874
8.074641
7.907748
7.494688
7.728934
7.499456
7.581711
7.363558
7.457733
7.472634
7.594824
7.358789
7.003546
7.314682
7.184744
7.305741
7.135868
7.180572
7.046461
##ZVALUE=295
0.883937
0.792742
0.731945
0.989437
0.867844
0.866652
1.015663
0.863671
0.788569
1.161695
0.822544
0.985861
0.997782
1.043677
1.207590
0.993609
1.021624
1.255870
1.225471
1.292825
1.406670
1.425743
1.450777
1.588464
1.754761
1.918674
1.915693
2.337694
2.536774
4.053712
15.434623
75.421929
183.931589
468.507409
795.561671
1015.794873
1015.794873
1015.794873
1015.794873
1015.794873
1015.794873
1015.794873
1007.822752
573.041439
305.374861
101.174712
40.585995
18.755794
21.741986
33.315420
44.714808
64.610839
79.698563
96.548796
104.412436
105.934739
99.321604
83.770752
68.919659
49.420595
36.157966
22.321939
15.511513
10.335445
8.512735
7.338524
7.278919
7.984638
8.281469
8.874536
9.493828
9.732842
9.748936
9.756684
9.266734
9.104609
8.552670
8.199811
7.910728
7.581711
7.712841
7.442832
7.581711
7.513762
7.367730
7.615685
7.509589
7.387996
7.631779
7.448792
7.378459
7.263422
7.372499
7.223487
7.337928
7.336736
##ZVALUE=300
0.774860
0.803471
0.787973
0.933409
0.829697
0.743866
0.880957
0.944734
0.832677
0.950694
0.894666
0.977516
1.004934
0.959635
0.897646
1.089573
1.085997
1.222491
0.988841
1.184940
1.050830
1.249909
1.395941
1.518726
1.499653
1.528859
1.877546
1.805425
2.056956
2.127886
2.481937
2.912879
10.503531
40.544868
157.777667
333.485603
727.021694
1015.794873
1015.794873
1015.794873
1015.794873
1015.794873
1015.794873
1015.794873
1015.794873
867.000818
437.870026
225.576758
73.298812
26.072860
15.601516
19.229650
29.316545
40.070415
57.895780
73.210597
90.567470
98.967552
101.249814
96.350908
83.537698
69.389939
49.934983
37.530661
23.639798
16.326904
11.017919
9.227991
8.402467
8.610487
9.031892
9.345412
9.250641
9.250641
9.087920
8.764863
8.142591
7.844567
7.860661
7.620454
7.664561
7.378459
7.681847
7.560849
7.494688
7.641912
7.487535
7.536411
7.466674
7.312894
7.483959
7.395744
7.330775
7.569790
7.246733
7.629991
##ZVALUE=305
0.799894
0.728965
0.806451
0.924468
0.851750
0.807643
0.782609
0.826716
0.743866
0.986457
0.881553
0.938773
0.997782
1.014471
1.046658
1.033545
1.048446
1.029968
1.059771
1.111627
1.059771
1.181960
1.111627
1.133680
1.387596
1.678467
1.605749
1.640916
1.823902
1.767874
1.926422
2.191663
2.552867
2.882481
4.187822
26.585460
81.167817
259.143710
506.222844
974.753499
1015.788913
1015.788913
1015.788913
1015.788913
1015.788913
1015.788913
1015.788913
1015.788913
739.277005
330.885649
152.603984
42.474866
16.322732
14.122725
17.977953
28.379560
38.936734
55.659413
69.412589
84.952712
92.304945
95.884800
91.854930
79.301000
66.842437
47.436953
35.176873
23.854971
16.670823
11.874437
10.248423
9.607673
9.234548
8.978844
8.625984
8.276701
8.078814
7.744431
7.667542
7.317662
7.193685
7.342696
7.433891
7.535815
7.353425
7.390976
7.443428
7.555485
7.563829
7.351637
7.534623
7.612705
7.590652
7.494688
7.799864
7.737875
##ZVALUE=310
0.676513
0.748634
0.831485
0.905991
0.980496
0.805855
0.877976
0.776649
0.870824
0.846982
1.013875
0.858903
0.919700
0.929832
0.949502
0.898838
0.969768
1.036525
0.962615
1.077652
1.070499
1.048446
1.089573
1.193881
1.266599
1.313686
1.300573
1.513958
1.471639
1.446605
1.594424
1.746416
1.936555
2.161860
2.341866
2.550483
3.001690
10.771751
39.626956
153.181553
330.561996
757.561922
1015.800834
1015.800834
1015.800834
1015.800834
1015.800834
1015.800834
1015.800834
1015.800834
985.174775
521.206856
271.200538
86.407661
29.041767
11.778474
12.237430
16.950965
23.018718
34.902692
46.755672
63.894987
76.860785
86.993575
90.811849
87.531805
79.330802
64.569712
51.726699
35.616755
26.514530
17.795563
13.631582
10.150671
8.972883
7.918477
7.948875
7.685423
7.475615
7.296801
7.175803
7.307529
7.294416
7.521510
7.548928
7.457733
7.605553
7.698536
7.806420
7.804632
7.360578
7.936954
7.684827
7.991791
7.686615
7.575750
##ZVALUE=315
0.804663
0.764728
0.738502
0.677705
0.825524
0.918508
0.773668
0.943542
0.822544
0.797510
0.809431
0.723600
0.872612
0.933409
0.831485
0.757575
1.072884
0.976920
0.980496
0.997782
1.066923
1.160502
0.934601
1.162887
1.013875
1.141429
1.299977
1.202822
1.355410
1.400709
1.342893
1.719594
1.580715
1.784563
1.841784
2.013445
2.276897
2.736449
3.084540
5.090833
19.281507
96.601844
233.025551
577.508807
966.866612
1015.800834
1015.800834
1015.800834
1015.800834
1015.800834
1015.800834
1015.800834
1015.800834
727.627873
389.825702
134.427547
48.229694
13.609529
10.650754
11.713505
14.865994
22.557974
30.647516
45.167804
57.548881
72.612762
82.113743
86.356997
84.254742
74.254870
64.428449
49.154758
37.479997
24.398565
17.536879
11.780858
9.429455
7.978678
7.637739
7.415414
7.372499
7.246733
7.327795
7.393956
7.601976
7.405877
7.371902
7.330775
7.659793
7.737875
7.633567
7.727742
7.695556
7.848740
7.873774
7.646680
##ZVALUE=320
0.743866
0.579953
0.756979
0.620484
0.711679
0.846982
0.707507
0.790954
0.971556
0.760555
0.833869
0.816584
0.910759
0.746846
0.860691
0.893474
0.830889
0.853539
0.905991
0.787973
0.902414
0.922680
0.855923
1.077652
1.064539
1.128912
1.125932
1.155734
1.177788
1.299977
1.341701
1.395941
1.414418
1.572967
1.558661
1.726747
1.832843
2.092719
2.098680
2.448559
2.798438
3.644824
8.453727
49.903989
143.922567
425.947905
752.406716
1015.794873
1015.794873
1015.794873
1015.794873
1015.794873
1015.794873
1015.794873
1015.794873
958.751440
563.968420
226.822495
91.051459
21.300912
10.847449
9.949803
10.510683
14.219880
18.495917
28.837919
39.478540
55.197477
66.981912
78.394413
82.984567
80.591440
74.379444
60.028434
47.948956
33.147931
24.408698
15.760660
11.776686
8.901954
7.925630
7.690787
7.410645
7.474422
7.641912
7.412434
7.545948
7.619858
7.538795
7.517934
7.438660
7.856488
7.656813
8.016825
7.715821
7.973909
##ZVALUE=325
0.585914
0.670552
0.721812
0.819564
0.794530
0.696778
0.722408
0.749826
0.841618
0.793934
0.877976
0.804663
0.846982
0.734925
0.986457
0.869632
0.820756
0.810623
0.822544
0.856519
0.948906
0.876784
0.953674
0.909567
1.015663
0.988841
0.884533
0.982881
1.263618
1.170635
1.160502
1.403689
1.214743
1.467466
1.479983
1.596808
1.790524
1.752973
1.738667
2.155900
2.296567
2.486706
2.602935
3.118515
4.936457
31.362772
91.687441
282.185674
563.266873
1015.794873
1015.794873
1015.794873
1015.794873
1015.794873
1015.794873
1015.794873
1015.794873
1015.794873
768.453479
327.940583
146.129727
35.867691
13.192892
9.370446
9.554625
10.883808
13.385415
20.013452
27.670860
41.408539
52.795410
66.151619
73.725581
78.780651
76.003671
66.932440
56.946874
43.446422
32.812953
21.437407
15.657544
11.137724
9.150505
8.302927
7.825494
7.605553
7.447600
7.677674
7.478595
7.589459
7.506609
7.855892
7.922649
7.937551
8.136630
7.991791
##ZVALUE=330
0.688434
0.546575
0.560880
0.671744
0.651479
0.720620
0.466704
0.651479
0.774860
0.777841
0.769496
0.616908
0.650883
0.752807
0.891685
0.735521
0.757575
0.851750
0.815988
0.842810
0.822544
1.000762
0.811815
0.793934
0.946522
0.955462
0.792742
0.930429
1.029968
0.960827
0.920892
1.044869
1.166463
1.180768
1.227856
1.261830
1.275539
1.405478
1.522899
1.631975
1.965761
1.870990
2.106428
2.317429
2.416968
3.116727
3.470778
12.718439
45.724511
180.149674
389.552712
890.123844
1015.715599
1015.715599
1015.715599
1015.715599
1015.715599
1015.715599
1015.715599
1015.715599
998.333693
491.168499
238.688588
72.240829
22.506714
9.915829
9.313822
9.639859
10.708570
14.322996
18.886924
27.954578
36.472678
51.047802
60.484409
69.785714
72.550774
70.374608
63.701868
52.645802
42.462945
29.610991
22.426844
15.249848
11.958480
9.256601
8.395910
7.568598
7.603765
7.496476
7.708669
8.001924
7.965565
8.145571
8.168817
8.289814
##ZVALUE=335
0.736713
0.552535
0.684857
0.767708
0.799894
0.631809
0.637770
0.793934
0.759959
0.679493
0.617504
0.689626
0.768900
0.837445
0.515580
0.777841
0.748634
0.734925
0.650883
0.730753
0.841618
0.836849
0.925660
0.944734
0.922680
0.912547
0.861883
1.004934
0.956655
1.022816
1.044869
1.124740
1.250505
1.201630
1.367927
1.331568
1.196861
1.380444
1.362562
1.514554
1.395941
1.687407
1.901984
1.972914
2.153516
2.281666
2.593994
2.995729
3.489852
6.454587
25.350451
118.679404
283.159614
701.932907
1015.785933
1015.785933
1015.785933
1015.785933
1015.785933
1015.785933
1015.785933
1015.785933
1015.785933
728.378892
377.647877
118.576884
38.789511
12.061000
9.610653
9.878874
9.775758
11.060834
13.602972
18.877983
24.912953
36.221743
45.156479
56.669712
63.879490
67.804456
66.479445
58.854818
51.674843
40.675998
32.101870
22.300482
16.596913
11.938810
9.933710
8.630753
8.149743
8.233786
8.247495
8.338690
8.255839
8.571744
##ZVALUE=340
0.598431
0.607967
0.622869
0.631809
0.564456
0.650883
0.675917
0.694990
0.631809
0.760555
0.770688
0.758767
0.617504
0.626445
0.648499
0.687838
0.804663
0.636578
0.703931
0.606775
0.798702
0.719428
0.745654
0.906587
0.727773
0.927448
0.798702
0.721812
0.863671
0.861883
0.897646
0.937581
0.967979
1.022816
0.954866
1.117587
0.955462
1.151562
1.227856
1.188517
1.365542
1.410842
1.481771
1.587868
1.666546
1.756549
2.063513
1.992583
2.316833
2.553463
2.878904
3.822446
14.571548
53.555965
202.432871
436.235666
957.275629
1015.755534
1015.755534
1015.755534
1015.755534
1015.755534
1015.755534
1015.755534
1015.755534
937.948823
423.476696
193.741918
46.764612
15.333891
10.064840
9.813905
9.284616
9.428859
10.142922
11.638999
16.488433
22.771955
33.367872
42.300820
54.052472
59.872866
63.245893
62.811971
56.980848
49.653649
39.332509
31.347871
21.978617
16.860962
12.568831
10.416508
9.607673
9.180903
9.164810
8.945465
##ZVALUE=345
0.675917
0.697970
0.617504
0.683665
0.660419
0.679493
0.716448
0.763535
0.683665
0.814795
0.849962
0.728965
0.774860
0.783801
0.639558
0.642538
0.726581
0.692606
0.672936
0.739694
0.795722
0.633597
0.824928
0.761747
0.939965
0.892878
0.906587
0.833869
0.901818
0.872612
0.838637
1.035929
0.990629
0.994802
1.083612
1.092553
1.162887
1.088977
1.201630
1.199841
1.434684
1.339912
1.400709
1.522899
1.504421
1.725554
1.789927
1.950860
1.846552
2.217889
2.476573
2.724528
3.043413
3.441572
5.386472
37.707686
121.610761
370.439887
708.241463
1015.794873
1015.794873
1015.794873
1015.794873
1015.794873
1015.794873
1015.794873
1015.794873
1015.794873
640.140772
257.871747
104.892850
26.227832
12.293458
10.385513
9.561777
8.924603
8.426905
9.165406
10.831952
15.280843
20.753741
30.458570
38.305521
49.022436
54.426789
58.865547
58.606863
54.184794
48.703551
39.541721
32.070875
23.035407
18.356442
14.313459
12.189746
10.910630
##ZVALUE=350
0.665784
0.734925
0.805855
0.832677
0.764728
0.615716
0.825524
0.831485
0.613928
0.714660
0.722408
0.663996
0.690818
0.764728
0.811815
0.965595
0.936985
0.733733
0.743866
0.805855
0.683665
0.919700
0.786781
0.835657
0.794530
0.775456
0.885725
0.924468
0.814795
0.758767
1.055598
0.878572
0.896454
0.988841
1.037717
1.059771
0.971556
1.143813
1.220703
1.242757
1.108646
1.323819
1.363754
1.322627
1.422763
1.502633
1.580715
1.737475
1.715422
1.883507
1.926422
2.102852
2.392530
2.764463
2.787709
3.036857
3.930926
16.927719
62.416792
233.266950
486.288667
991.554856
1015.794873
1015.794873
1015.794873
1015.794873
1015.794873
1015.794873
1015.794873
1015.794873
846.088529
374.249816
158.532858
36.409497
13.621449
9.334683
8.683801
7.751584
7.652640
7.599592
8.490682
10.739565
13.837814
19.231439
25.092959
35.341978
42.376518
49.983859
54.128766
55.100918
53.039789
46.317577
40.108562
31.057000
25.556684
19.431710
##ZVALUE=355
0.781417
0.791550
0.741482
0.709891
0.848770
0.640750
0.753999
0.776649
0.817776
0.669956
0.739694
0.763535
0.767708
0.891685
0.780821
0.869632
0.918508
0.845790
0.838637
0.986457
0.877976
0.957847
0.834465
0.867844
0.846982
1.031756
1.035929
1.007915
1.085997
0.880957
1.095533
1.067519
0.990629
1.044869
1.115799
1.164675
1.248717
1.280904
1.197457
1.236796
1.320839
1.260638
1.443624
1.402497
1.463890
1.547933
1.538992
1.620650
1.864433
1.950860
1.842976
2.172589
2.072453
2.356768
2.550483
2.702475
2.950430
3.260970
3.732443
7.900000
29.214621
139.182806
322.027802
767.505765
1015.794873
1015.794873
1015.794873
1015.794873
1015.794873
1015.794873
1015.794873
1015.794873
1015.794873
532.979965
244.005919
60.750842
18.779635
9.645820
8.417964
8.058548
7.599592
7.319450
7.374883
8.082986
9.510517
12.829900
17.339587
23.893714
30.795932
38.954616
45.762658
51.156878
52.898526
50.784945
47.105551
39.848685
##ZVALUE=360
0.718832
0.797510
0.772476
0.794530
0.789762
0.762939
0.753999
0.858903
0.929832
0.682473
0.869632
0.894666
0.833869
0.767708
0.855923
0.998974
0.795722
1.035929
0.900626
0.957847
0.887513
0.814795
0.835657
0.900626
0.966787
1.066923
0.917912
1.103878
1.083612
0.956655
0.912547
1.116991
1.105666
1.189709
1.086593
1.170635
1.321435
1.152754
1.226664
1.238585
1.284480
1.321435
1.284480
1.314878
1.287460
1.391768
1.495481
1.566410
1.619458
1.725554
1.793504
1.839995
2.062917
2.103448
2.174973
2.731681
2.602935
2.710819
3.035665
3.506541
3.625751
5.147457
12.812614
66.817999
187.275410
541.262627
961.350799
1015.794873
1015.794873
1015.794873
1015.794873
1015.794873
1015.794873
1015.794873
1015.794873
741.919875
379.152894
125.098825
39.505959
10.559559
8.642673
7.928610
7.557869
7.169843
6.891489
7.035732
7.371902
8.899570
10.960698
15.159845
20.195842
28.368831
34.758449
42.344928
46.836734
49.677491
##ZVALUE=365
0.880957
0.711679
0.725985
0.685453
0.804663
0.746846
0.854731
0.682473
0.798702
0.834465
0.819564
0.771880
0.778437
0.744462
0.857711
0.842810
0.894666
0.763535
0.770688
0.782609
0.896454
0.752807
0.905991
0.978708
1.014471
0.860691
1.064539
0.918508
1.036525
0.940561
1.159906
1.158714
1.048446
1.143813
1.230836
1.208782
1.062751
1.294613
1.331568
1.238585
1.239777
1.201630
1.340508
1.265407
1.372695
1.255870
1.369715
1.345873
1.463890
1.581907
1.613498
1.621842
1.722574
1.789927
2.009869
2.012849
2.146959
2.237558
2.386570
2.779961
2.998710
3.264546
3.790855
4.417896
6.491542
32.890439
111.990571
370.352864
736.132860
1015.793681
1015.793681
1015.793681
1015.793681
1015.793681
1015.793681
1015.793681
1015.793681
990.763903
575.932860
198.889971
68.235993
14.264584
8.629560
7.769465
7.223487
7.040501
6.841421
6.782413
6.905794
7.534623
8.649826
11.260509
14.483929
19.678473
25.107861
31.929612
##ZVALUE=370
0.781417
0.651479
0.902414
0.749826
0.750422
0.718832
0.887513
0.765920
0.639558
0.755787
0.583529
0.831485
0.809431
0.906587
0.823736
0.745654
0.830889
0.889897
0.991821
0.961423
0.882745
1.006722
0.848770
0.945926
0.828505
0.776649
0.939965
0.804663
0.956655
0.983477
0.942945
0.904799
0.845790
0.980496
0.988841
0.927448
1.000762
0.981688
1.071692
1.004934
1.164675
1.196861
1.075864
1.260638
1.205802
1.362562
1.308918
1.185536
1.217723
1.432896
1.475811
1.401901
1.590848
1.549721
1.629591
1.941919
1.730919
1.836419
2.029538
2.152920
2.246499
2.560616
2.794862
2.977848
3.363490
3.934503
4.993677
19.221902
72.652698
264.840722
557.236671
1015.794873
1015.794873
1015.794873
1015.794873
1015.794873
1015.794873
1015.794873
1015.794873
1015.794873
779.702663
287.656784
113.162994
24.671555
9.901524
7.450581
7.061958
6.867647
6.717443
6.795526
7.138848
7.789731
8.325577
9.916425
11.488795
14.606714
##ZVALUE=375
0.694990
0.538826
0.657439
0.633597
0.596642
0.591874
0.620484
0.740886
0.531673
0.682473
0.625849
0.654459
0.699759
0.713468
0.635982
0.701547
0.736713
0.786781
0.762939
0.738502
0.645518
0.805855
0.690818
0.941753
0.785589
0.767708
0.807643
0.767708
0.817776
0.755787
0.790954
0.892878
0.982881
0.883937
0.921488
0.881553
0.797510
0.786781
0.948906
0.848770
0.935793
0.956655
0.963807
0.883937
1.121759
1.042485
0.936985
1.064539
0.943542
1.294613
1.169443
1.184940
1.248717
1.412630
1.286864
1.327991
1.391768
1.473427
1.532435
1.526475
1.754761
1.702905
1.944900
2.187490
2.299547
2.504587
3.015995
3.549457
4.213452
9.053946
31.224489
129.222274
316.238999
797.585845
1015.794873
1015.794873
1015.794873
1015.794873
1015.794873
1015.794873
1015.794873
1015.794873
1011.314988
541.250706
262.669921
68.439841
19.139647
7.717609
6.957650
7.154942
6.880760
7.112622
7.501841
7.836819
8.199811
8.741617
##ZVALUE=380
0.633597
0.485778
0.538826
0.609756
0.486970
0.487566
0.508428
0.615716
0.501871
0.644922
0.662804
0.636578
0.680685
0.603795
0.709891
0.793934
0.597835
0.649691
0.618696
0.719428
0.632405
0.635982
0.653863
0.710487
0.747442
0.705719
0.828505
0.826716
0.712872
0.714660
0.611544
0.692606
0.722408
0.718832
0.851750
0.791550
0.633597
0.677705
0.829697
0.853539
0.893474
0.805855
0.799894
0.885725
0.900626
0.921488
0.977516
0.961423
1.140833
1.086593
1.051426
1.311898
1.129508
1.129508
1.132488
1.134872
1.328588
1.274943
1.305938
1.311898
1.347661
1.608729
1.640916
1.836419
2.071857
2.127886
2.415776
2.864599
3.116727
3.766418
4.098415
5.526543
15.558600
85.292459
221.125484
593.781471
989.318490
1015.794873
1015.794873
1015.794873
1015.794873
1015.794873
1015.794873
1015.794873
1015.794873
733.371973
389.308929
129.296780
42.064786
9.985566
7.317662
7.019639
7.069707
7.318854
7.348657
7.456541
##ZVALUE=385
0.541806
0.554919
0.515580
0.575781
0.637770
0.474453
0.497699
0.429749
0.591874
0.517964
0.641942
0.618696
0.675917
0.577569
0.436902
0.502467
0.509620
0.477433
0.584722
0.690818
0.503659
0.631809
0.662804
0.559688
0.657439
0.716448
0.454783
0.660419
0.702739
0.600815
0.718832
0.751615
0.724792
0.662804
0.462532
0.762939
0.712872
0.732541
0.663996
0.819564
0.744462
0.783801
0.709891
0.845790
0.738502
0.947714
0.884533
1.044869
0.981688
0.930429
0.855923
0.907779
1.197457
1.073480
1.049638
1.073480
1.059771
1.170635
1.322627
1.126528
1.126528
1.369715
1.425743
1.570582
1.584888
1.799464
2.009869
2.354980
2.517700
2.950430
3.099442
3.231764
3.379583
3.980994
7.464886
44.954419
133.121610
394.186974
767.698884
1015.794873
1015.794873
1015.794873
1015.794873
1015.794873
1015.794873
1015.794873
1015.794873
961.455703
577.169657
235.772729
88.609457
16.916990
7.965565
6.973743
6.694794
6.522536
##ZVALUE=390
0.531673
0.665784
0.468493
0.583529
0.513792
0.480413
0.626445
0.398755
0.432730
0.722408
0.557899
0.439882
0.381470
0.706911
0.585914
0.477433
0.632405
0.522733
0.668764
0.726581
0.640750
0.515580
0.570416
0.524521
0.583529
0.597835
0.638962
0.735521
0.722408
0.687838
0.759959
0.586510
0.729561
0.704527
0.679493
0.631809
0.633597
0.659823
0.765920
0.783801
0.860691
0.940561
0.751615
0.823736
0.812411
0.855923
0.900626
0.925660
0.963807
0.924468
0.999570
1.044869
1.077652
1.040697
1.139641
1.136661
1.286864
1.301765
1.292825
1.275539
1.425743
1.404881
1.603961
1.542568
1.758933
1.935959
2.175570
2.639890
2.854466
2.991557
3.156662
3.230572
3.242493
3.192425
3.142953
3.633499
4.535913
22.221804
77.846646
274.792910
573.006868
1015.794873
1015.794873
1015.794873
1015.794873
1015.794873
1015.794873
1015.794873
1015.794873
1015.794873
931.757092
384.090543
169.393420
42.362809
12.404919
7.019639
##ZVALUE=395
0.510812
0.477433
0.496507
0.519753
0.482798
0.293851
0.443459
0.401735
0.534654
0.482798
0.488758
0.478625
0.497699
0.578761
0.496507
0.432730
0.461936
0.586510
0.559688
0.504851
0.645518
0.589490
0.546575
0.554919
0.426769
0.647902
0.589490
0.522733
0.375509
0.487566
0.384450
0.631809
0.602603
0.673532
0.599623
0.635982
0.653863
0.663996
0.653863
0.823736
0.671744
0.748634
0.628829
0.886917
0.843406
0.838637
0.768900
0.841618
0.881553
0.768900
0.983477
0.872612
0.784993
0.811815
0.822544
0.855923
1.052618
0.970960
1.001954
1.181960
1.190901
1.136661
1.312494
1.489520
1.584888
1.620650
1.714826
2.070665
2.201796
2.197623
2.391934
2.421737
2.379417
2.354980
2.498627
2.506971
2.540946
2.914667
3.486872
11.145473
44.492483
178.964734
371.291637
796.777010
1015.792489
1015.792489
1015.792489
1015.792489
1015.792489
1015.792489
1015.792489
1015.792489
1015.792489
521.307588
253.883004
75.212717
##ZVALUE=400
0.501871
0.576973
0.520945
0.339746
0.626445
0.500679
0.543594
0.581741
0.473857
0.726581
0.427961
0.515580
0.391603
0.532866
0.477433
0.495911
0.642538
0.443459
0.639558
0.563860
0.580549
0.420809
0.621676
0.465512
0.520945
0.433922
0.577569
0.604987
0.568628
0.573993
0.625849
0.625849
0.706911
0.673532
0.693798
0.768900
0.682473
0.635982
0.812411
0.853539
0.728965
0.711679
0.731945
0.735521
0.790954
0.840425
0.851750
0.694990
0.728965
1.001954
0.874996
0.745654
0.798702
0.991821
0.893474
0.975728
1.009703
0.958443
1.011491
1.095533
1.239777
1.225471
1.359582
1.556873
1.495481
1.673698
1.847744
2.076626
2.075434
2.147555
2.371669
2.272725
2.352595
2.079606
2.159476
2.054572
2.197623
2.335906
2.807975
2.939701
3.286600
6.411672
22.330880
96.648932
233.214498
593.484640
982.975960
1015.794873
1015.794873
1015.794873
1015.794873
1015.794873
1015.794873
1015.794873
1015.794873
796.370506
##END
