##TITLE=AAI0552
##FORMAT=SPECTACLE-ASCII V-1.2
##DATA TYPE=ULTRAVIOLET SPECTRUM
##SECOND TYPE=ULTRAVIOLET SPECTRUM
##DATE=05/24/18
##TIME=16:00:15
##SPECTROMETER/DATA SYSTEM=SPECTACLE
##XUNITS=NM EM
##YUNITS=ENERGY
##YFACTOR=1
##FIRSTX=220
##LASTX=410
##NPOINTS=96
##3DDATA=Equidistant
##ZUNITS=NM EX
##FIRSTZ=210
##LASTZ=400
##ZPOINTS=39
##XYDATA=(Y..Y)
##ZVALUE=210
7.395744
8.028746
7.736683
7.079840
6.707907
6.718636
6.220937
5.745888
5.978942
5.373955
4.954934
4.494786
4.708767
4.186630
4.623532
4.774928
5.676746
7.101893
5.307794
6.626844
6.024837
7.794499
8.015633
8.474588
8.434653
9.009838
8.581877
9.476542
10.284781
11.252761
11.084676
11.955500
12.568831
13.354421
14.112592
13.616681
14.353991
14.042854
15.621781
14.415979
15.119910
16.497970
17.809868
17.143488
17.508864
19.040704
19.118786
19.954443
21.862984
20.920634
20.872951
21.476746
23.778677
21.675825
23.386478
24.412870
24.461746
25.324821
24.154782
26.353598
25.484562
26.223660
27.302504
28.486848
30.678511
33.364892
40.770769
47.621727
59.265494
69.123507
81.018806
87.368488
98.194480
95.822811
101.858974
98.979473
98.307729
91.125965
80.059767
73.022842
58.377981
50.458908
41.571856
38.601756
31.935573
28.079748
27.036667
24.691820
24.015903
23.655891
26.172996
25.368929
26.683807
28.996468
31.054616
32.028556
##ZVALUE=215
34.713745
31.119585
27.161837
20.274520
16.674995
14.201999
13.756752
13.947487
13.471842
12.443662
12.058616
9.613633
7.576942
6.504655
5.475879
5.067587
5.727410
6.259680
5.209446
5.715489
6.893873
6.953478
7.484555
7.492900
8.678436
8.360744
8.636713
8.293986
9.531975
10.334849
10.342598
11.500716
10.677576
10.903478
11.878610
11.550784
12.716651
12.521744
13.575554
13.998747
13.711452
15.092492
16.131997
16.585588
15.545487
17.298460
17.734766
18.166900
18.980503
18.789768
19.978881
19.207597
20.620823
19.849539
22.130609
22.458434
21.374822
23.365617
22.401810
21.353960
21.564960
22.531748
22.334456
25.396943
25.800467
29.663444
32.927990
41.148663
44.210553
54.628849
60.926676
71.826577
76.294541
79.828501
82.236528
78.484416
78.751445
70.525408
66.734552
57.164431
54.421425
43.812990
37.161708
32.058954
28.841496
28.470755
24.253726
23.504496
22.976995
23.344755
22.242665
19.596815
20.206571
20.058751
21.330714
20.857453
##ZVALUE=220
103.270411
102.388859
100.311637
80.801845
70.320964
51.910877
39.556623
30.868649
28.044581
24.352670
26.285648
26.385784
22.144914
19.777417
16.981959
11.064410
9.592772
8.075833
6.051660
5.376935
5.528927
6.137490
6.203651
6.847978
6.998777
7.414818
8.010864
8.497834
8.662939
8.337498
10.035634
10.341406
10.131598
11.175871
12.451410
11.733770
12.460947
11.539459
11.925697
11.656880
13.348460
13.237596
14.367700
15.294552
14.892817
14.812946
14.522672
14.901757
17.349720
16.296506
16.042590
16.613603
18.691421
16.709566
17.874837
17.884970
19.054413
19.156933
20.412803
19.375682
19.716620
20.144582
19.906759
21.262765
21.880865
24.599433
28.143525
29.782653
36.240816
42.496920
48.040748
52.647591
57.380795
60.294867
63.763857
59.234500
54.156780
51.632524
48.173666
44.050813
36.983490
33.767819
29.165745
26.893616
23.033619
21.493435
20.714998
19.512773
16.095638
16.675591
16.319752
17.019510
16.005635
16.122460
16.913414
16.502738
##ZVALUE=225
165.198445
169.506669
200.861692
224.356651
221.595764
200.828910
167.742968
117.660761
85.281730
63.515902
47.308803
43.609738
44.946671
46.213865
41.396618
36.798716
28.487444
22.867918
16.037822
10.238886
8.439422
6.106496
6.221533
6.249547
6.549954
6.765723
7.776618
7.817745
8.389950
8.191466
8.810759
8.628964
9.680986
9.514689
10.543466
10.016561
11.057854
10.808706
10.749698
11.597872
12.734532
12.327433
11.912584
11.969805
11.789799
12.452602
13.239980
13.548732
14.989972
15.510917
14.731884
15.144944
15.825629
15.107989
15.673637
15.279651
15.370846
16.528964
17.089844
17.176867
16.147494
16.890764
17.179847
17.827749
18.503666
20.211935
22.682548
26.033521
28.734803
31.572580
36.164522
40.974617
43.661594
45.904517
48.178434
44.469833
44.848919
39.469600
33.101439
29.960871
27.222633
24.384856
22.615790
19.439459
17.810464
16.591549
17.326474
14.704466
15.633702
15.239716
15.920997
14.485717
14.863610
14.224648
14.127493
15.050769
##ZVALUE=230
110.362768
124.943852
190.714598
288.419724
360.962749
416.129827
420.909524
383.749604
328.778625
255.460739
166.605711
113.989711
78.686476
69.027543
67.532659
70.225596
68.914890
62.640905
56.826472
42.295456
32.294989
20.393729
14.617443
9.521842
7.474422
6.623864
6.946921
7.495880
7.135868
7.830858
7.436872
8.289814
8.913875
9.051561
9.455681
9.285808
10.205507
9.051561
10.040998
10.089874
10.488629
10.933876
10.874867
12.521744
12.317896
11.369586
12.204647
12.826920
13.137460
12.395978
14.166832
13.202429
14.279485
14.232993
14.195442
14.247894
14.716983
14.565587
15.542507
15.411973
16.480684
16.391873
15.617609
15.306473
17.904639
19.264817
20.228624
21.976829
25.287867
30.573606
34.599900
37.814975
38.748980
40.752888
40.653944
38.122535
38.324594
32.856464
30.837655
26.197433
24.194717
22.372603
18.990636
17.541647
16.103983
15.488863
15.421510
14.569759
14.068484
14.581680
14.338493
13.218522
14.668703
14.074445
13.595819
12.641549
##ZVALUE=235
26.905537
29.812455
80.895424
148.303509
276.719928
384.202003
529.501438
613.178611
643.646717
617.802739
501.153469
395.051837
288.176537
172.472000
123.109818
92.508793
86.528659
89.897513
94.038844
88.850856
80.053806
68.104863
48.679709
36.178827
21.618605
15.290976
10.567904
7.990599
6.823540
6.632805
7.594824
7.645488
6.893873
7.682443
8.355975
8.566976
8.219481
8.609891
9.066463
8.790493
8.772612
9.948611
9.530783
9.159446
9.067655
10.398626
10.558963
11.036992
11.196733
10.478497
11.538863
11.771917
11.143684
12.027621
12.187958
12.366772
12.420416
13.221502
12.961626
13.432503
12.852550
13.212562
13.311505
14.058948
14.893413
16.641617
17.524958
19.313693
22.311807
26.284456
27.626753
29.389858
32.004714
33.473969
32.315850
31.899810
31.029582
29.770732
25.968552
22.407770
21.042824
18.456578
17.174482
15.889406
15.121698
14.701486
13.167858
13.623834
13.866425
13.786554
12.834668
12.966990
12.511611
12.760758
13.297796
12.219548
##ZVALUE=240
2.212524
2.485514
7.438660
30.962825
70.465803
166.231990
274.460912
462.702513
614.519715
735.530853
837.476850
809.015036
683.846474
562.445521
393.192768
264.683962
160.082579
114.016533
96.070766
94.830990
104.422569
106.182694
102.751851
86.886883
70.765615
50.802827
38.057566
24.120808
16.973615
11.250973
9.018779
7.944703
7.174611
7.361770
7.792711
8.179545
7.340908
7.479787
8.428693
8.259416
8.074641
8.304715
8.441806
8.433461
8.876920
9.004474
9.318590
9.423494
9.771585
9.985566
9.576678
9.960532
10.501742
10.982752
11.182427
10.501742
11.022687
10.948777
11.293888
10.916591
11.386871
11.915565
11.928678
12.291670
13.197660
13.720989
15.357733
17.492771
19.319654
22.063851
24.510622
26.335716
27.635694
29.070973
28.380752
27.746558
25.421977
24.194717
21.264553
20.074844
17.480850
16.324520
14.644861
15.085936
13.799667
14.004707
13.081431
13.720989
12.740493
11.764765
12.458563
12.024641
11.311769
11.959672
11.488795
11.551976
##ZVALUE=245
1.333952
1.461506
1.700521
1.720786
5.537868
16.845465
59.144497
125.162601
277.954936
433.858633
673.734546
826.143622
930.725932
961.875916
902.470946
722.849965
570.897460
373.111963
246.364474
137.364864
100.562572
91.299415
100.373626
111.912489
113.082528
108.352900
92.424750
76.281428
57.326555
42.709708
29.824972
18.350482
12.636781
8.565784
7.444620
6.876588
7.609725
7.414818
7.152557
8.039474
7.513762
7.800460
7.739663
7.836819
8.127689
8.017421
7.972717
8.401871
8.192658
8.696914
8.842945
8.443594
9.361506
9.473562
9.212494
9.576678
9.646416
9.765625
9.876490
9.568930
11.102557
9.853840
10.463595
10.757446
10.970831
12.222528
12.833476
14.875531
16.539693
18.817782
20.502806
22.505522
22.430420
23.894906
23.699999
22.598505
20.923615
19.732714
18.551946
16.103983
15.095472
13.646483
12.215972
12.044907
12.031794
11.487603
11.260509
10.832548
10.807514
11.025667
10.614991
11.355877
10.558963
10.765791
11.061430
10.536909
##ZVALUE=250
1.322627
1.199841
1.613498
1.432896
1.596808
1.770854
2.676845
9.438992
42.641759
96.634626
235.569477
386.510491
572.335720
818.360448
966.114998
1015.802026
1015.802026
917.911530
757.410526
514.627695
339.707732
213.033557
115.214586
89.297891
89.604855
101.836920
113.825798
115.259886
110.207796
99.232793
83.517432
61.638951
46.321750
28.115511
18.767715
11.827946
8.842945
6.469488
6.929636
6.604791
6.834865
6.778836
6.885529
7.626414
7.172823
7.645488
7.385612
8.239746
8.040667
8.086562
8.566976
8.231997
8.488894
8.838773
8.891821
8.660555
9.458661
9.470582
9.384751
9.299517
9.174943
9.906888
9.446740
9.955764
10.027885
10.035634
11.437535
12.787580
14.168620
16.384721
17.921925
19.814968
19.346476
19.503832
20.019412
19.329786
17.941594
16.047955
14.511943
13.715625
12.820959
11.326671
10.397434
10.627508
10.111928
10.796785
10.003448
9.769797
9.265542
9.631515
9.651780
9.295940
9.098649
9.270906
9.616613
9.361506
##ZVALUE=255
1.268983
1.313686
1.303554
1.502633
1.430511
1.373887
1.466870
1.710653
2.251863
4.972816
26.682615
69.064498
143.995881
319.005847
499.563813
777.340531
975.505710
1015.794873
1015.794873
1015.794873
963.068604
758.515596
466.063619
291.121006
142.626762
94.772577
76.215863
84.539652
101.990700
111.995935
117.496848
114.891529
102.714896
83.453655
65.039992
42.832494
29.637814
18.159747
11.992455
8.448958
7.269979
6.960630
7.052422
7.072687
7.556677
7.365942
7.740855
8.056760
8.206964
8.112788
8.373857
8.201599
8.392930
9.256601
8.916855
8.656979
8.818507
8.727908
8.971691
8.914471
9.106994
9.362698
9.074807
9.048581
9.126663
9.900928
10.594726
11.394620
12.603998
14.284849
14.611483
16.382933
16.805530
17.668605
16.518831
16.553998
14.390945
13.874769
12.584925
11.170506
10.560751
9.682775
9.439588
9.339452
8.979440
8.727908
8.498430
8.726716
8.224845
8.642673
8.668900
8.432865
8.351803
8.088946
8.259416
7.797480
##ZVALUE=260
1.167655
1.068711
1.177788
1.191497
1.284480
1.280904
1.450777
1.401901
1.571774
1.722574
2.106428
2.668500
9.017587
43.536425
100.793839
248.203874
417.952538
709.797740
943.774581
1015.794873
1015.794873
1015.794873
1015.794873
979.524851
648.155808
433.534980
232.159495
132.542849
74.296594
67.858696
84.615946
99.903941
112.996697
121.526718
117.815733
104.308724
87.736845
64.279437
47.596693
29.317737
20.148754
12.077689
9.175539
7.494688
7.836819
7.264614
7.285476
7.545948
8.138418
8.104444
8.347631
8.320808
8.283854
8.480549
8.748770
9.157658
8.426905
8.611679
8.960962
8.830428
8.931756
8.976460
8.611679
8.319616
8.808970
8.663535
9.380579
10.683537
11.488795
12.469888
13.573766
14.488697
15.030503
15.267730
14.957786
13.817549
13.325810
11.721849
10.768771
9.519458
9.405613
8.684993
8.089542
8.050799
8.024573
7.873774
7.509589
7.770658
7.713437
7.355809
7.257462
7.283688
7.733703
7.815957
7.273555
7.164478
##ZVALUE=265
0.985861
1.199841
1.266599
1.172423
1.402497
1.286864
1.316667
1.498461
1.286864
1.557469
1.457930
1.733899
1.631975
2.176762
4.752874
27.544498
71.282983
186.588764
340.201855
650.172830
932.871699
1015.794873
1015.794873
1015.794873
1015.794873
1015.794873
895.934701
637.143850
360.351801
207.016468
117.737651
66.390634
63.821673
84.685683
101.667643
117.836595
120.768547
117.225647
105.785728
85.271001
67.133904
44.971704
30.757785
18.765926
12.877584
8.503795
7.591844
7.443428
7.296801
7.427931
8.061528
7.677674
8.097887
8.357763
8.102655
8.236766
8.138418
8.306503
7.975698
8.399487
7.946491
7.994771
7.823706
8.015633
8.166432
8.238554
8.936524
9.955764
10.253787
11.452436
12.669563
13.212562
13.465881
13.381839
12.927651
11.981726
11.032820
9.914637
9.620786
8.438826
8.109808
7.201433
7.254481
6.984472
6.824732
6.876588
6.961823
6.888509
7.000566
6.732941
6.425977
6.313920
6.488562
6.461740
6.545782
6.816983
##ZVALUE=270
1.095533
1.032948
1.224875
1.184940
1.230836
1.156926
1.089573
1.104474
1.317859
1.408458
1.623631
1.360774
1.512766
1.561642
1.769662
1.969934
2.844930
12.402534
39.155483
133.729577
265.268683
485.477448
858.751535
1015.794873
1015.794873
1015.794873
1015.794873
1015.794873
1015.794873
917.080045
551.149845
335.890651
150.099993
78.536868
50.610900
60.787797
84.135532
99.804997
116.897821
121.375918
116.564631
107.502937
86.733699
68.736672
46.824813
32.133460
19.897819
13.888478
8.812547
8.046627
7.319450
7.195473
7.308722
7.403493
7.263422
7.439852
7.282495
7.337928
7.434487
6.813407
7.287860
7.026792
6.972551
6.745458
7.085800
7.599592
8.102655
8.559823
9.688735
10.211468
11.790991
11.853576
12.369752
12.017488
12.154579
11.441708
10.627508
9.400845
8.530617
7.755756
7.203817
7.067919
6.513000
6.887913
6.409883
6.095767
6.489754
6.193519
6.198883
5.964637
5.793571
5.956888
6.139874
5.927682
6.221533
6.154776
##ZVALUE=275
1.002550
0.965595
1.041889
0.994802
1.114607
1.091957
1.011491
1.191497
1.207590
1.286864
1.148582
1.323819
1.446605
1.485944
1.477599
1.652837
1.782775
1.997948
2.304912
5.333424
22.260547
68.087578
213.202834
412.423611
809.016824
1015.794873
1015.794873
1015.794873
1015.794873
1015.794873
1015.794873
1015.794873
884.566903
463.136435
257.012844
102.080703
53.752661
44.822693
57.321787
80.230832
96.121430
111.478567
118.090510
115.486979
107.454658
84.966421
69.059730
48.765540
34.816861
20.766854
13.704896
8.999705
7.588863
6.631613
6.590486
6.225705
6.207824
6.307960
6.520748
6.244779
6.355643
6.438494
6.349683
6.277561
6.442666
6.684661
7.311702
8.014441
8.579493
9.224415
10.447502
11.285543
11.285543
11.566877
11.201501
10.033846
9.357929
8.501410
8.070469
6.769896
6.787777
5.945563
6.015897
5.744696
5.572438
5.543828
5.384684
5.561709
5.675554
5.501509
5.256534
5.493760
5.570650
5.391836
5.399585
5.340576
##ZVALUE=280
0.954866
1.033545
1.109838
0.888705
0.945926
1.042485
0.962615
1.189709
1.085997
1.050830
1.153946
1.364946
1.236796
1.323819
1.395941
1.466870
1.594424
1.788735
1.835823
2.033710
2.191663
2.675653
13.602972
50.518513
173.638463
333.336592
660.406947
977.754593
1015.794873
1015.794873
1015.794873
1015.794873
1015.794873
1015.794873
1015.794873
618.593693
366.243720
153.870583
71.280599
34.956932
39.326549
58.027506
75.603724
96.327662
108.553767
116.060972
113.478899
101.594925
88.229775
65.814853
50.009489
31.311512
22.111535
12.903810
9.318590
6.793737
6.402731
6.055832
5.748868
5.961657
5.677938
5.793571
5.710721
5.888939
6.061792
6.190538
6.464720
7.135868
7.630587
8.524656
9.116530
9.698868
9.900928
9.953976
9.493828
8.660555
8.220673
7.576942
6.978512
6.253719
5.930662
5.781651
5.571842
5.681515
5.508661
5.382895
5.291700
5.170703
5.153418
5.232692
5.090833
5.167723
5.260706
5.107522
4.969835
5.096793
##ZVALUE=285
0.869632
0.906587
1.061559
0.992417
1.039505
0.865459
1.053810
0.967979
1.094937
1.187921
1.232624
1.164675
1.271963
1.349449
1.184940
1.436472
1.348853
1.455545
1.503825
1.618862
1.715422
1.822710
2.302527
2.612472
6.673932
24.896860
96.027851
212.469697
489.860773
814.799666
1015.794873
1015.794873
1015.794873
1015.794873
1015.794873
1015.794873
1015.794873
900.173783
560.700893
257.066488
124.092698
41.718483
28.057694
38.205981
52.375793
74.808002
88.887811
106.798410
111.901760
112.567544
105.315447
86.621642
71.962476
49.412847
35.227537
21.123886
13.669729
8.901954
7.013679
6.041527
5.897880
5.689859
5.786419
5.771518
5.815625
6.109476
6.440878
6.655455
7.444620
8.268952
8.478761
9.089708
9.319782
8.764863
8.492470
8.037686
7.573962
6.945729
6.427765
6.010532
5.693436
5.607605
5.253553
5.338788
5.313754
4.969835
5.120635
5.173683
5.029440
4.920959
5.029440
5.093813
4.774928
4.866719
4.690886
4.991889
##ZVALUE=290
0.976920
0.905991
0.757575
0.985861
0.954866
0.958443
0.991821
1.037717
1.049638
0.981688
0.993609
1.088977
1.078844
1.178980
1.144409
1.216531
1.251698
1.421571
1.355410
1.466870
1.617670
1.674891
1.878738
1.931787
2.283454
2.467632
3.289580
10.296702
52.976608
132.379532
275.861621
634.375811
986.796021
1015.794873
1015.794873
1015.794873
1015.794873
1015.794873
1015.794873
1015.794873
815.926790
401.248932
201.239586
67.336559
28.852820
25.313497
34.192801
50.457716
64.556599
85.955858
99.938512
109.053850
110.182762
100.950003
88.692904
67.084432
51.801801
33.072829
22.680759
13.744831
9.563565
6.915927
6.092787
5.905628
5.420446
5.826950
5.865693
6.467700
7.105470
7.490516
8.235574
8.166432
8.770823
8.341670
7.757545
7.365942
6.739497
6.148815
5.873442
5.769730
5.389452
5.099773
4.906654
4.557967
5.002618
4.557967
4.635453
4.746914
4.801750
4.516840
4.565716
4.625916
4.465580
4.577637
4.567504
4.506707
##ZVALUE=295
0.875592
1.092553
0.919700
0.986457
1.084805
0.974536
1.039505
1.181960
1.057982
1.056790
1.172423
1.031756
1.055598
1.187921
1.151562
1.226664
1.278520
1.371503
1.298785
1.457930
1.414418
1.677871
1.598597
1.833439
2.016425
2.117753
2.375841
2.479553
2.687573
4.613996
16.259551
78.888535
195.144415
514.228940
882.512927
1015.864015
1015.864015
1015.864015
1015.864015
1015.864015
1015.864015
1015.864015
1015.864015
607.465506
324.716568
109.477639
44.585466
19.707680
21.775961
32.812953
44.444799
63.520670
78.645945
95.037818
103.533864
104.382634
97.437501
83.363652
68.558455
48.216581
35.670996
21.574497
14.375448
9.259582
7.351637
6.310940
6.137490
6.373525
6.801486
7.643700
7.869601
8.055568
8.475780
8.157492
7.922649
7.164478
6.462932
6.137490
5.727410
5.347729
5.175471
5.124807
5.003810
4.852414
4.926920
4.963875
4.863739
4.591942
4.703999
4.792809
4.665852
4.699826
4.395843
4.418492
4.433990
4.365444
##ZVALUE=300
0.829697
0.954866
0.967979
0.797510
1.094937
1.057982
0.991821
0.854731
0.864863
0.908971
0.946522
1.047850
0.971556
1.057982
1.053810
1.046658
1.207590
1.217723
1.211762
1.263618
1.290441
1.523495
1.477599
1.479983
1.579523
1.724958
1.760721
2.073646
2.159476
2.412796
2.676845
3.194809
10.871887
40.539503
153.264999
328.743458
744.515657
1015.794873
1015.794873
1015.794873
1015.794873
1015.794873
1015.794873
1015.794873
1015.794873
952.167511
478.928685
249.719620
84.661841
29.446483
15.821457
19.530654
28.791428
39.489865
57.849884
72.148442
90.165734
97.812414
99.848509
95.472932
82.399845
68.911910
49.605966
36.825538
22.535920
15.428662
9.885430
7.878542
7.022619
7.400513
7.727742
7.832646
7.676482
7.581711
6.854534
6.632805
6.151795
5.684495
5.308986
5.102754
4.898906
4.913807
5.011559
4.709959
4.709959
4.653931
4.705787
4.552603
4.539490
4.591942
4.449487
4.473925
4.041791
4.133582
4.308820
4.374981
##ZVALUE=305
0.771880
0.703931
0.797510
0.775456
1.096725
0.984669
0.807643
0.833869
0.915527
0.911951
1.098514
1.170635
0.980496
1.149774
1.015663
0.916719
0.989437
1.250505
1.089573
1.212955
1.323819
1.344681
1.537800
1.410842
1.308918
1.467466
1.657605
1.625419
1.820922
1.909733
2.182722
2.474785
2.628565
3.208518
4.599690
27.511716
86.214542
278.456807
544.402003
1012.358665
1015.794873
1015.794873
1015.794873
1015.794873
1015.794873
1015.794873
1015.794873
1015.794873
742.202997
329.232812
153.631568
42.750835
17.106533
14.747977
18.183589
28.049946
38.964748
54.679513
68.585873
84.090829
91.872811
95.230937
90.229511
78.465939
66.193938
47.123432
35.050511
22.799969
15.973449
10.681748
9.303689
8.374453
7.961988
7.228851
6.935596
6.131530
5.811453
5.603433
5.052686
4.922748
4.930496
4.919767
4.643798
4.583597
4.477501
4.511476
4.578829
4.649758
4.437566
4.403591
4.289746
4.443526
4.194975
4.205704
4.164577
4.026890
##ZVALUE=310
0.924468
0.822544
0.853539
0.791550
0.901818
0.804663
0.996590
0.925660
0.887513
0.880957
0.829697
0.930429
1.068711
1.011491
1.061559
1.067519
1.055598
1.053810
1.177788
1.109838
1.377463
1.286864
1.349449
1.237988
1.297593
1.484752
1.527667
1.538992
1.593828
1.694560
1.826882
2.026558
2.158880
2.429485
2.571940
2.979636
3.472567
11.833906
44.087768
172.559023
373.095870
872.070789
1015.794873
1015.794873
1015.794873
1015.794873
1015.794873
1015.794873
1015.794873
1015.794873
1015.794873
591.171980
308.187604
100.744963
33.187866
12.342930
12.909770
17.266870
23.172498
34.975410
46.790838
63.437819
75.499415
85.640550
90.393424
86.311698
78.513622
64.510703
50.775409
35.198927
26.078820
17.555952
12.772679
9.155869
7.716417
6.484985
6.004572
5.407929
5.248785
5.052686
4.697442
4.811883
4.769564
4.745722
4.710555
4.767776
4.756451
4.547834
4.497766
4.581809
4.349947
4.372597
4.060864
4.235506
4.049540
4.174709
##ZVALUE=315
0.798702
0.755787
0.712872
0.803471
0.940561
0.824928
0.906587
0.850558
0.919700
0.873804
0.955462
0.894666
0.961423
0.895858
0.961423
1.059771
1.080632
1.034737
1.058578
1.030564
1.091957
1.305938
0.961423
1.191497
1.385808
1.276731
1.427531
1.489520
1.399517
1.592636
1.603961
1.699924
2.035499
1.911521
2.083778
2.438426
2.428889
2.877712
3.259778
5.717874
21.321774
103.303790
254.035592
652.259588
1015.792489
1015.792489
1015.792489
1015.792489
1015.792489
1015.792489
1015.792489
1015.792489
1015.792489
823.637843
448.039770
156.955719
55.980682
14.689565
10.976791
11.919737
14.750957
22.103786
30.072927
44.219494
56.202412
70.985556
79.930425
85.101724
83.245635
74.332952
63.536763
48.441887
36.006570
22.926927
16.020536
9.894967
7.583499
5.946755
5.173683
4.879832
4.676580
4.464984
4.511476
4.659891
4.634857
4.431605
4.367828
4.514456
4.301667
4.395843
4.275441
3.968477
4.184842
4.072785
4.041791
4.096627
##ZVALUE=320
0.872612
0.680685
0.864863
0.739694
0.713468
0.744462
0.800490
0.872612
0.825524
1.006722
0.890493
0.940561
0.868440
1.024604
0.932813
0.973940
1.043677
0.964999
1.009703
1.035929
1.110435
1.108646
1.102686
1.249909
1.134872
1.179576
1.360774
1.286864
1.373887
1.544952
1.655817
1.519918
1.402497
1.740456
1.802444
1.941919
2.189875
2.273917
2.408624
2.738833
3.137589
4.020929
10.339618
63.993931
172.304511
489.936471
876.535773
1015.793681
1015.793681
1015.793681
1015.793681
1015.793681
1015.793681
1015.793681
1015.793681
1004.593968
611.570477
240.173936
102.136731
24.834871
11.161566
9.667873
10.496974
13.672709
18.223524
28.618574
38.756728
53.587556
65.403581
77.109933
81.752539
79.057813
72.775483
59.100986
46.741962
31.819940
22.497773
13.746619
9.843707
6.359816
5.501509
4.952550
4.848838
4.466772
4.286766
4.412532
4.626513
4.371405
4.237890
4.269481
4.144907
4.137754
4.090667
4.124641
4.057884
3.884435
##ZVALUE=325
0.762939
0.817776
0.752807
0.899434
0.845790
0.717640
0.867844
0.712872
0.775456
0.879765
0.848770
0.862479
0.918508
0.866652
0.872612
0.946522
0.873804
0.940561
0.960827
0.960827
1.075864
1.081824
0.916719
1.105666
1.245737
1.135468
1.176596
1.297593
1.280904
1.263618
1.222491
1.439452
1.425743
1.452565
1.455545
1.806617
1.773834
1.881719
1.984835
2.156496
2.331734
2.692938
2.816916
3.405809
5.845428
37.273765
110.142827
327.457786
638.569593
1015.794873
1015.794873
1015.794873
1015.794873
1015.794873
1015.794873
1015.794873
1015.794873
1015.794873
817.849636
359.834433
163.486004
40.458441
13.632774
9.529591
9.390712
10.365844
12.780428
19.426942
26.972890
39.747953
50.744414
63.994527
71.939826
75.618625
73.885918
64.243674
55.513978
41.289926
30.809641
19.452572
13.507605
8.216500
6.260872
5.147457
4.604459
4.453659
4.476905
4.390478
4.125834
4.220605
4.141927
4.181862
3.892779
4.101992
4.002452
3.861785
##ZVALUE=330
0.775456
0.750422
0.734925
0.716448
0.758767
0.821948
0.776649
0.791550
0.788569
0.863671
0.888705
0.887513
0.907779
0.974536
0.823736
0.899434
0.947714
0.914931
0.960827
1.108646
1.060963
0.842810
1.195669
1.120567
1.143813
1.194477
1.144409
1.117587
1.109838
1.285672
1.191497
1.199841
1.233816
1.579523
1.536608
1.573563
1.687407
1.779795
1.876950
2.066493
2.157688
2.266765
2.319813
2.807975
2.956986
3.482699
4.074574
14.621615
53.736567
211.144686
453.976393
975.034833
1015.794873
1015.794873
1015.794873
1015.794873
1015.794873
1015.794873
1015.794873
1015.794873
1015.794873
541.578531
264.377594
80.750585
24.424791
9.795427
9.076595
9.241700
10.324717
13.874769
18.070936
26.462674
35.775900
48.789978
58.629513
67.366958
70.155859
67.574978
62.198639
49.854517
39.574504
27.211905
19.608736
13.255477
9.458661
6.425977
5.194545
4.764795
4.480481
4.315972
4.154444
3.907681
4.144907
3.938675
3.893971
4.022717
##ZVALUE=335
0.712872
0.785589
0.883937
0.826716
0.973940
0.880957
0.975728
0.920892
0.946522
0.753999
1.073480
0.864863
1.038909
0.892878
1.031756
0.831485
1.172423
0.995994
0.998974
0.978708
1.067519
1.193881
1.102686
0.886917
1.069903
1.148582
1.032948
1.179576
1.291633
1.073480
1.351833
1.186728
1.372695
1.383424
1.314878
1.554489
1.530647
1.670718
1.605749
1.677871
1.903772
1.944900
2.148747
2.060533
2.429485
2.485514
2.955794
3.197789
3.731847
6.983876
25.377870
122.544765
298.123956
765.713453
1015.918851
1015.918851
1015.918851
1015.918851
1015.918851
1015.918851
1015.918851
1015.918851
1015.918851
772.279501
401.142836
126.376748
42.602420
12.498498
9.726882
9.541512
9.861588
10.682940
12.636781
17.817616
23.599863
34.520626
43.553710
55.021644
61.563849
65.535903
64.243674
56.895614
49.138665
38.603544
29.906631
19.953847
14.144778
9.264946
6.889701
5.289912
4.644990
4.374981
4.308820
4.117489
4.115701
4.046559
##ZVALUE=340
0.630617
0.668764
0.780821
0.699759
0.735521
0.726581
0.683665
0.812411
0.793934
0.835657
0.617504
0.903606
0.700951
0.886917
0.893474
0.930429
0.800490
0.822544
0.929832
0.891685
0.790954
0.846982
0.965595
0.980496
1.080632
1.034737
0.915527
1.057982
1.008511
0.965595
1.076460
1.126528
1.157522
1.348853
1.216531
1.268983
1.224875
1.311898
1.386404
1.368523
1.628995
1.589656
1.628995
1.812577
1.870990
2.059937
2.185702
2.545714
2.702475
3.093481
3.345609
4.454851
12.314916
73.602796
206.384659
597.793460
1006.723642
1015.794873
1015.794873
1015.794873
1015.794873
1015.794873
1015.794873
1015.794873
1015.794873
946.952701
537.341833
206.936598
72.438717
15.775561
10.646582
9.764433
9.292960
9.117723
9.357929
11.507869
14.960766
22.358894
29.924512
41.825771
50.442815
58.726668
60.947537
59.889555
55.597425
46.678782
37.847757
27.264953
20.500422
13.233423
9.492636
6.427765
5.141497
4.309416
4.309416
4.062653
##ZVALUE=345
0.644922
0.744462
0.600815
0.663996
0.780821
0.616908
0.828505
0.782609
0.799894
0.732541
0.744462
0.883937
0.753999
0.798702
0.981688
0.760555
0.924468
0.771880
0.972748
0.788569
0.906587
0.967979
1.022816
1.103878
0.913739
0.933409
1.093745
0.951886
0.915527
0.854731
1.094937
1.107454
1.212955
1.110435
1.182556
1.125932
1.176596
1.267791
1.375675
1.467466
1.445413
1.514554
1.633763
1.553893
1.777411
1.902580
1.914501
2.019405
2.260804
2.539754
2.671480
2.985597
3.294945
3.775954
6.332994
41.627884
136.481524
427.630544
836.457610
1015.794873
1015.794873
1015.794873
1015.794873
1015.794873
1015.794873
1015.794873
1015.794873
1015.794873
746.735930
288.756490
118.695498
28.829575
13.265610
10.664463
9.574890
8.511543
7.810593
8.243918
9.666681
14.459491
19.729733
29.227734
36.816597
45.972466
51.846504
56.735873
56.378841
52.195787
46.149492
36.413670
28.125644
18.821955
13.579726
8.921623
6.705523
5.090833
##ZVALUE=350
0.657439
0.765920
0.774860
0.800490
0.720620
0.765920
0.702739
0.723600
0.738502
0.705719
0.896454
0.935793
0.740886
0.919700
0.815988
0.758767
0.809431
0.932813
0.810623
0.878572
0.836849
0.929832
1.016855
0.911951
0.972748
1.002550
1.025796
0.921488
1.043677
1.027584
0.975728
1.081824
1.088977
1.093745
1.199841
1.261830
1.124740
1.269579
1.388788
1.381636
1.392961
1.473427
1.544952
1.486540
1.478791
1.625419
1.957417
1.934767
1.886487
2.190471
2.441406
2.592802
2.717972
2.875924
3.264546
3.742576
4.507899
18.519759
68.347454
260.471702
565.588474
1015.792489
1015.792489
1015.792489
1015.792489
1015.792489
1015.792489
1015.792489
1015.792489
1015.792489
949.136615
429.235697
186.560750
41.838884
14.482737
9.350777
8.570552
7.454753
6.844997
6.744862
7.432699
9.262562
12.660623
18.362999
23.987889
33.213496
40.164590
48.009753
50.819516
51.664710
49.478412
42.056441
35.218596
26.616454
20.039678
13.635755
##ZVALUE=355
0.822544
0.855923
0.817776
0.866652
0.897646
0.806451
0.955462
0.743866
0.843406
0.764728
0.915527
0.978708
0.842810
0.939965
0.819564
0.917912
0.802875
0.974536
0.889897
0.838637
1.062751
0.829697
1.150966
1.032948
1.034737
0.997782
1.061559
1.053810
1.068711
1.206994
1.225471
0.971556
1.067519
1.176596
1.166463
1.055598
1.148582
1.311898
1.400709
1.507998
1.503825
1.443624
1.408458
1.627803
1.558661
1.809597
1.881719
1.892447
1.964569
2.025962
2.090931
2.255440
2.424717
2.603531
2.835989
3.208518
3.134608
3.609657
4.242659
8.694530
31.580925
147.019625
344.693661
834.058523
1015.789509
1015.789509
1015.789509
1015.789509
1015.789509
1015.789509
1015.789509
1015.789509
1015.790105
551.660657
259.244442
68.857670
20.451546
9.344816
8.278489
7.200837
7.028580
6.508827
6.490946
6.900430
8.148551
11.117458
15.020967
21.421909
27.493834
35.564899
41.527748
46.968460
47.046542
44.808984
40.614605
32.837987
##ZVALUE=360
0.814795
0.707507
0.716448
0.664592
0.824928
0.871420
0.802875
0.820756
0.935793
0.674725
0.730753
0.819564
0.849962
0.798702
0.948906
0.785589
0.782609
0.807643
0.831485
0.974536
0.882745
1.002550
1.094937
0.915527
1.022816
1.016855
1.029968
1.053810
1.057982
1.125932
1.158714
1.023412
1.225471
1.193881
1.209974
1.169443
1.406670
1.353621
1.277924
1.204610
1.356602
1.445413
1.459718
1.445413
1.521707
1.614690
1.633763
1.675487
1.684427
2.046824
1.899600
2.077818
2.219677
2.368689
2.490878
2.578497
2.675653
2.936721
3.368855
3.695488
4.169941
5.712509
13.659596
70.958734
198.716521
580.381751
998.452902
1015.701890
1015.701890
1015.701890
1015.701890
1015.701890
1015.701890
1015.701890
1015.701890
809.095502
417.453051
141.530633
44.356585
10.242462
8.026958
7.283688
6.948709
6.383657
6.125569
5.739927
6.205440
6.867647
8.854866
12.464523
16.827583
24.014711
29.624701
36.373734
40.602684
43.126941
##ZVALUE=365
0.816584
0.784993
0.775456
0.655651
0.896454
1.010895
0.836849
0.918508
0.899434
0.882745
0.941753
0.824928
0.848770
1.019835
0.970960
0.939965
0.872612
0.909567
1.267791
0.987649
1.053810
0.934601
0.949502
0.935793
0.982881
1.010895
1.052618
1.052618
0.995994
1.109838
1.269579
1.044869
1.196861
1.159906
1.240969
1.200438
1.164675
1.345873
1.281500
1.401901
1.400709
1.322627
1.526475
1.359582
1.481771
1.512766
1.495481
1.604557
1.563430
1.720786
1.809597
1.844764
1.952648
2.158880
2.112985
2.155900
2.188683
2.628565
2.578497
2.945662
3.204942
3.767610
4.019737
4.755855
6.891489
35.243630
114.453435
379.781723
766.792893
1015.794873
1015.794873
1015.794873
1015.794873
1015.794873
1015.794873
1015.794873
1015.794873
1013.208628
610.039830
221.968889
80.308914
15.528798
8.402467
7.289648
6.531477
6.170869
5.783439
5.245805
5.179644
5.270839
5.912781
7.831454
10.080934
14.539957
19.199848
25.891662
##ZVALUE=370
0.788569
0.807643
0.889897
0.642538
0.776649
0.765920
0.764728
0.864863
0.763535
0.807643
0.808835
0.860691
0.718832
0.736713
0.901818
0.909567
0.916719
0.941753
0.885725
0.811815
0.872612
0.961423
0.969768
0.972748
1.037717
0.857711
1.033545
1.015663
1.147985
1.031756
0.949502
0.916719
1.170635
1.045465
1.138449
1.031756
1.070499
1.173615
1.128912
1.161695
1.126528
1.185536
1.134872
1.374483
1.315475
1.294613
1.287460
1.305938
1.483560
1.505613
1.528859
1.558661
1.646876
1.771450
1.714826
1.822710
1.940727
2.111793
2.149940
2.268553
2.432466
2.674460
2.844930
3.238916
3.499985
4.334450
5.007982
19.687414
78.584552
316.053629
655.127764
1015.794873
1015.794873
1015.794873
1015.794873
1015.794873
1015.794873
1015.794873
1015.794873
1015.794873
780.508518
307.673812
133.249760
34.867525
11.145473
6.986856
6.281734
5.792975
5.464554
5.042553
4.540682
4.722476
4.579425
5.235672
6.394982
8.766651
##ZVALUE=375
0.777841
0.700951
0.693798
0.738502
0.724792
0.655651
0.679493
0.703931
0.666976
0.812411
0.714660
0.675917
0.805855
0.879765
0.843406
0.661612
0.744462
0.794530
0.742674
0.727773
0.871420
0.738502
0.913739
0.723600
0.701547
0.795722
0.904799
0.944734
0.864863
0.919700
0.694990
0.924468
0.958443
0.930429
0.771880
1.012683
0.830889
0.912547
0.983477
1.002550
0.995994
1.003742
1.177788
1.228452
1.106858
1.189709
1.238585
1.100898
1.062751
1.348853
1.304746
1.375675
1.458526
1.463890
1.420975
1.497865
1.619458
1.631975
1.729727
1.711845
1.972914
1.947880
2.080798
2.496839
2.711415
2.816916
3.288984
3.913641
4.705787
9.307861
31.835437
138.808489
341.649652
874.890685
1015.794873
1015.794873
1015.794873
1015.794873
1015.794873
1015.794873
1015.794873
1015.794873
1015.794873
527.857542
257.120728
73.225498
21.291971
7.230639
6.170869
5.576611
5.173683
4.692674
4.577637
4.335642
4.106760
4.184842
##ZVALUE=380
0.671744
0.511408
0.515580
0.498891
0.645518
0.638962
0.692606
0.783801
0.736713
0.772476
0.648499
0.762939
0.684857
0.598431
0.508428
0.619888
0.676513
0.588894
0.647902
0.638962
0.753999
0.569820
0.647902
0.736713
0.653863
0.735521
0.774860
0.783801
0.870824
0.654459
0.712872
0.809431
0.916719
0.801682
0.829697
0.797510
0.846982
1.005530
0.974536
0.868440
0.921488
0.865459
0.928640
1.033545
0.923872
1.016855
1.159906
0.846982
1.185536
1.041889
1.118779
1.150966
1.215935
1.424551
1.302958
1.341701
1.377463
1.485944
1.434684
1.474619
1.471639
1.758933
1.668930
1.974702
2.167821
2.529621
2.642870
3.061891
3.353953
4.084706
4.333854
6.042719
16.468763
92.065930
243.841410
651.412606
1015.794873
1015.794873
1015.794873
1015.794873
1015.794873
1015.794873
1015.794873
1015.794873
1015.794873
730.652809
374.165773
123.006701
41.932464
9.698868
6.269813
5.483627
5.001426
4.733801
4.524589
4.288554
##ZVALUE=385
0.637770
0.668764
0.491738
0.706911
0.801682
0.533462
0.504851
0.610948
0.520945
0.611544
0.682473
0.515580
0.573993
0.460744
0.651479
0.673532
0.652671
0.574589
0.488758
0.757575
0.599623
0.719428
0.805855
0.605583
0.701547
0.465512
0.692606
0.693798
0.707507
0.603795
0.680685
0.602603
0.724792
0.615716
0.795722
0.859499
0.834465
0.718832
0.871420
0.885725
0.878572
0.853539
0.951886
0.826716
0.953674
1.026988
0.983477
0.875592
0.997782
1.050830
1.085997
1.116991
1.017451
1.014471
1.296997
1.192689
1.223683
1.273751
1.409650
1.411438
1.394749
1.512766
1.511574
1.703501
1.885891
1.957417
2.567768
2.961755
3.148913
3.359914
3.568530
3.662705
3.963709
4.290938
9.547472
34.184456
150.638819
372.545719
925.379992
1015.784740
1015.784740
1015.784740
1015.784740
1015.784740
1015.784740
1015.784740
1015.784740
1015.784740
605.517030
291.155577
85.488558
24.065971
6.776452
5.499721
5.202889
4.773736
##ZVALUE=390
0.435710
0.536442
0.616908
0.379682
0.477433
0.486970
0.389814
0.452995
0.421405
0.594854
0.435710
0.458956
0.604987
0.480413
0.537634
0.688434
0.496507
0.424981
0.601411
0.534654
0.404716
0.532866
0.672936
0.544786
0.574589
0.712872
0.739694
0.756979
0.660419
0.596642
0.755787
0.703931
0.658631
0.594854
0.753999
0.607967
0.737906
0.656843
0.855923
0.701547
0.761747
0.815988
0.744462
0.878572
0.946522
0.734925
0.787973
0.852942
1.045465
0.975728
0.974536
1.167655
1.064539
1.305938
1.084805
1.142621
1.098514
1.300573
1.176596
1.302958
1.439452
1.500845
1.625419
1.628995
1.979470
2.140999
2.347827
2.968907
3.061891
3.203750
3.365874
3.407598
3.363490
3.489852
3.531575
3.845692
4.899502
23.634434
85.130930
318.017602
676.433444
1015.707850
1015.707850
1015.707850
1015.707850
1015.707850
1015.707850
1015.707850
1015.707850
1015.707850
966.168642
413.888693
180.915594
39.137602
10.948777
5.931854
##ZVALUE=395
0.516772
0.615716
0.621676
0.514984
0.555515
0.588894
0.411868
0.489950
0.519753
0.625849
0.627637
0.570416
0.609756
0.606775
0.629425
0.657439
0.527501
0.651479
0.504851
0.619888
0.596642
0.543594
0.690818
0.495911
0.760555
0.574589
0.850558
0.653863
0.648499
0.784993
0.564456
0.708699
0.561476
0.591874
0.767708
0.719428
0.766516
0.755787
0.842810
0.759959
0.861883
0.938773
0.839829
0.925660
0.916719
0.974536
0.933409
0.875592
0.882745
0.975728
0.839829
0.964999
1.004934
1.042485
0.930429
1.123548
1.153946
1.246929
1.315475
1.085997
1.378655
1.480579
1.540780
1.642704
2.035499
2.124906
2.279878
2.684593
2.676845
3.031492
3.127456
3.018975
2.820492
2.974868
2.808571
2.943873
3.072619
3.651977
4.200935
12.760758
53.543448
220.740438
467.609763
966.506600
1015.771031
1015.771031
1015.771031
1015.771031
1015.771031
1015.771031
1015.771031
1015.771031
1015.771031
600.917935
279.872417
81.904531
##ZVALUE=400
0.555515
0.594854
0.495911
0.618696
0.601411
0.574589
0.449419
0.566840
0.570416
0.587702
0.719428
0.695586
0.722408
0.595450
0.566840
0.510812
0.570416
0.547767
0.748634
0.647902
0.666976
0.498891
0.668764
0.771880
0.841618
0.686646
0.691414
0.704527
0.656843
0.552535
0.718832
0.673532
0.857711
0.558496
0.666976
0.911951
0.717640
0.673532
0.758767
0.947714
0.812411
0.912547
0.942945
0.822544
0.979900
0.736713
0.939965
0.944734
0.996590
0.971556
1.161695
1.110435
1.054406
1.137853
1.046658
1.072884
1.178980
1.227856
1.163483
1.201630
1.274943
1.396537
1.524687
1.751781
1.839995
2.069473
2.288818
2.471805
2.617836
2.636909
2.656579
2.640486
2.755523
2.582669
2.507567
2.579689
2.553463
2.746582
3.060699
3.720522
3.872514
7.155538
24.602413
110.549927
271.382928
707.275867
1015.794873
1015.794873
1015.794873
1015.794873
1015.794873
1015.794873
1015.794873
1015.794873
1015.794873
845.217705
##END
