##TITLE=AAI0802
##FORMAT=SPECTACLE-ASCII V-1.2
##DATA TYPE=ULTRAVIOLET SPECTRUM
##SECOND TYPE=ULTRAVIOLET SPECTRUM
##DATE=05/24/18
##TIME=16:51:36
##SPECTROMETER/DATA SYSTEM=SPECTACLE
##XUNITS=NM EM
##YUNITS=ENERGY
##YFACTOR=1
##FIRSTX=220
##LASTX=410
##NPOINTS=96
##3DDATA=Equidistant
##ZUNITS=NM EX
##FIRSTZ=210
##LASTZ=400
##ZPOINTS=39
##XYDATA=(Y..Y)
##ZVALUE=210
8.698702
8.558631
8.390546
8.496642
6.695986
7.342696
7.288456
6.215572
5.756617
4.978776
4.703999
4.833937
4.644990
4.096627
4.603863
5.527735
5.514622
5.230904
5.501509
5.919933
6.248951
6.734729
6.485581
7.005930
8.452535
7.998943
8.012652
8.929968
9.102821
10.026693
9.299517
10.212660
10.126829
10.394454
9.456873
11.028647
10.592937
10.561943
10.931492
10.950565
11.536479
11.550784
11.136532
12.678504
11.911988
12.453794
12.625456
12.965798
13.244748
12.450814
12.195706
13.353825
12.501478
12.906790
13.503432
14.499426
13.905764
14.079809
14.149547
13.585687
13.257861
13.414621
14.081597
14.944673
16.142726
17.634630
19.688606
23.843646
26.231408
31.137466
36.162734
41.184425
47.587752
49.160719
50.839782
51.169991
49.419999
46.687722
43.791533
33.848882
31.901598
26.795864
24.398565
19.506812
16.331673
14.639497
15.117526
13.428926
12.424588
15.121698
14.826655
16.498566
17.644763
19.493699
21.706820
24.807453
##ZVALUE=215
33.246875
32.828450
27.158856
21.037459
18.878579
15.779734
15.046597
15.643835
16.316772
14.883876
12.404919
10.487437
7.811785
7.188916
6.215572
4.936457
4.815459
5.672574
5.556941
5.652905
5.065799
5.669594
6.862879
6.708503
7.381439
6.182790
7.380843
8.460879
7.729530
8.540750
8.358955
8.169413
9.668469
8.436441
10.231733
9.921789
10.520816
10.017753
9.714961
10.866523
9.577870
10.511875
10.308623
10.768771
11.792779
10.359883
11.322498
11.751652
11.571646
11.769533
12.262464
11.670589
10.716915
11.765957
12.203455
11.426806
12.903810
12.334585
11.941791
12.822747
12.563467
12.186766
13.011694
14.811754
13.662577
14.700890
17.626882
19.577742
23.021698
25.315881
29.201508
33.529997
38.710833
37.839413
38.552880
38.669705
39.556623
36.407709
32.391548
28.803945
27.991533
22.396445
18.788576
18.077493
15.892982
14.100671
13.261437
13.959408
12.543797
12.466908
12.114644
12.769699
12.742877
12.079477
12.713671
15.081763
##ZVALUE=220
103.475451
106.779933
99.555850
84.146857
66.843629
51.393509
42.235851
32.499433
28.650761
26.511550
27.808547
27.086735
22.646785
20.780563
14.578700
11.865497
9.025931
6.692410
5.700588
4.895926
5.738735
5.880594
5.835891
5.887747
5.767941
6.945729
6.575584
7.066727
7.191896
7.221699
7.941723
8.212924
8.447766
8.966923
8.492470
8.353591
8.613467
8.673668
9.420514
8.834600
8.700490
9.036660
9.351969
10.044575
9.344816
10.866523
10.128617
10.482669
9.635687
10.048747
10.942817
11.244416
10.462999
11.144876
10.694861
10.760427
11.046529
10.607839
12.861490
9.840727
11.116862
11.311769
11.306405
12.817979
11.493564
12.270808
14.376640
17.105937
18.317699
22.853613
24.417639
26.942492
30.442476
31.198859
31.159520
31.331778
31.652451
29.108524
25.024414
23.099780
21.130443
17.902851
17.034411
15.138984
14.493465
11.730790
12.165904
11.586547
11.006594
11.219978
10.928512
11.405945
10.250807
10.932684
9.727478
10.576844
##ZVALUE=225
162.313581
169.229507
195.621848
215.949416
216.172934
189.662576
161.595941
113.299489
86.258650
66.521764
48.586726
48.102736
48.104525
48.974752
44.511557
38.793683
31.194687
25.475621
18.061996
11.678934
8.629560
6.201863
5.427599
5.454421
6.435513
5.600452
5.798936
6.927848
6.770492
7.795691
7.510781
7.470846
7.944703
8.191466
9.047985
7.471442
8.939505
8.858442
9.252429
8.752942
8.337498
8.800626
9.072423
9.252429
8.182526
9.695888
9.461641
9.875894
9.947419
9.808540
9.635687
8.751750
10.834932
9.978414
10.209680
10.149479
10.178685
10.841489
11.007786
11.016726
9.577870
11.024475
11.709929
11.759996
12.401938
12.926459
13.958812
16.062856
18.152595
19.099712
21.774769
24.093986
26.975870
27.226806
27.173758
26.862621
24.878979
23.851991
20.417571
19.159913
17.132759
16.275644
14.315844
14.152527
12.389421
12.068748
11.558533
11.845827
11.951923
11.155605
11.724830
10.719895
11.558533
10.797977
11.366606
11.052489
##ZVALUE=230
110.779405
122.565627
186.457634
287.107825
348.752737
393.619537
391.856432
357.780457
303.731561
242.213607
152.141452
109.581947
78.630447
69.493651
69.126487
70.667863
70.223808
64.304471
54.188967
43.962598
32.145977
20.891428
13.507605
8.417964
6.793737
6.182790
6.106496
6.684661
6.313920
6.541610
6.435513
7.261634
7.651448
7.540584
7.153749
7.362962
7.641912
8.448958
7.603765
8.586645
7.577538
8.260608
8.540750
8.651614
7.954836
7.471442
9.106994
9.008646
8.608699
9.020567
8.936524
9.594560
9.174943
9.432435
9.057522
9.645820
9.600520
10.357499
9.442568
10.227561
9.865761
10.454655
12.143850
10.745525
11.749864
12.650490
13.814569
14.995933
16.636848
20.024776
20.972490
21.144748
23.309588
23.953915
24.730563
22.729635
22.608638
21.427870
19.532442
17.166734
16.273856
14.334917
14.483929
13.008714
12.847781
11.857748
11.843443
10.989904
12.045503
11.502504
11.690855
11.686683
10.437965
10.963678
11.176467
11.671782
##ZVALUE=235
26.414990
32.271743
70.217848
159.847736
249.475837
379.568934
483.569503
571.943521
591.107011
561.200976
463.975668
361.560583
234.855413
161.419511
112.365484
90.290904
87.703466
92.756748
95.013976
91.573596
83.320737
66.172481
51.290989
34.047961
22.728443
14.178753
10.075569
6.865859
6.841421
6.130934
5.844831
6.720424
7.062554
6.192923
7.435679
6.308556
7.088780
7.568598
6.922483
7.035732
6.445646
7.674694
7.243752
7.136464
7.129908
8.029938
6.890893
7.586479
7.823706
7.797480
7.714629
8.103848
8.823872
8.422732
8.571744
8.186698
9.208918
9.139776
9.036660
9.204745
9.015799
9.476542
9.830594
10.222793
10.722876
11.668801
12.692809
13.328791
14.846921
16.962886
18.451810
18.534660
20.361543
21.746755
21.619797
19.592643
19.639730
17.731786
17.201900
15.855432
15.728474
13.857484
13.583899
12.771487
12.631416
12.701750
12.161732
11.574626
12.309551
11.766553
11.384487
11.788607
11.473894
10.922551
11.736751
11.813641
##ZVALUE=240
1.854897
1.990795
9.434819
25.618672
73.829889
139.501691
269.174576
400.669575
590.340495
689.323545
752.911568
732.167959
651.978850
495.129824
367.939472
222.608447
153.861642
107.929707
93.158484
99.564791
107.885003
106.739998
99.509954
88.630915
65.971613
54.740906
36.114454
24.319887
14.312863
10.093451
7.675886
6.608963
6.372929
6.183982
5.606413
6.278753
6.577969
6.776452
6.409883
6.387830
6.506443
6.361604
6.400943
5.981922
6.463528
6.483793
6.623864
6.367564
6.979704
6.901622
6.715655
6.784797
7.636547
7.308722
7.506609
7.795691
7.322431
7.733703
7.865429
7.695556
7.775426
8.352995
8.836985
9.120703
9.669662
9.583831
11.087656
12.168884
12.961626
13.788939
15.701652
16.979575
18.454790
19.482970
18.696785
17.404556
17.780662
16.151667
15.596747
15.193820
14.373660
12.938976
12.403727
12.202859
11.959672
12.211800
12.267828
11.996627
12.008548
11.662841
12.092590
11.047721
10.922551
11.918545
11.171699
11.421442
##ZVALUE=245
1.279712
1.749992
1.647472
1.940727
4.551411
22.685528
57.957768
150.425434
263.102651
401.200652
615.219474
768.243670
879.181027
888.115764
812.695622
683.570504
480.463505
342.848897
235.021710
133.400559
98.358989
91.027617
102.214813
112.734437
114.539862
105.835795
95.839500
74.242949
59.119463
39.122701
27.623773
16.240478
11.515617
7.733703
6.602407
6.225705
6.068945
5.544424
5.381703
5.524755
5.729795
5.468726
5.268455
5.622506
5.862713
5.447865
5.694628
5.574822
6.094575
6.084442
5.717874
6.395578
6.373525
6.726980
6.006956
6.276965
6.303787
6.519556
6.483793
6.590486
6.948709
7.007718
7.249713
7.207990
7.834435
8.248687
9.371638
10.209680
10.982752
12.251735
12.752414
14.027953
15.040636
15.491843
15.904903
14.751554
15.589595
13.723969
13.354421
12.188554
12.183785
10.725856
10.674596
10.891557
10.607839
10.396838
10.536909
10.288954
10.495782
10.350943
10.027885
10.845661
10.067821
10.519624
10.326505
10.220408
##ZVALUE=250
1.486540
1.547933
1.468658
1.516938
1.681447
1.674891
3.112555
11.242628
47.608614
103.158951
243.715644
387.310982
552.753806
765.528679
894.162655
977.918506
952.291489
826.181769
675.801635
452.323556
297.573805
188.149810
104.924440
84.930658
90.171695
102.742910
114.075541
117.660761
110.508800
98.733902
82.299709
61.406493
44.389963
27.094483
17.602444
10.375977
7.414818
6.266832
5.327463
5.655885
5.368590
5.088449
5.261898
5.375743
5.338788
5.187988
5.613565
5.299449
5.488992
5.531907
5.594492
5.787611
5.610585
5.623698
5.655885
5.581975
5.608797
5.985498
6.275773
5.932450
6.203651
6.384850
6.638765
6.491542
6.963611
7.363558
7.770658
8.468628
9.294748
10.776520
11.047721
11.992455
12.668967
12.789965
12.899637
12.548566
12.233853
11.730790
10.811687
10.490417
10.357499
9.438992
9.578466
9.140968
9.133816
9.161830
9.085536
9.774566
8.663535
9.117723
9.036660
9.042621
9.272695
8.889437
8.990765
9.642839
##ZVALUE=255
1.182556
1.246929
1.294613
1.135468
1.310706
1.328588
1.400709
1.474619
2.037883
4.892945
29.031634
71.434975
146.602988
312.071443
476.599932
720.072985
885.852575
1012.838483
1015.794873
977.498889
833.374858
650.224686
397.658944
248.999596
127.384663
87.467432
76.180696
84.311962
102.826953
112.306476
117.736459
114.400983
102.996826
81.114769
64.343810
40.827990
28.884411
16.599894
10.812879
7.043481
5.600452
5.554557
5.104542
5.169511
5.196929
5.436540
5.167723
5.132556
5.352497
5.213618
4.957914
5.557537
5.267859
4.985929
5.171895
5.385876
5.355477
5.566478
5.278587
5.337000
5.197525
5.494952
5.513430
6.048679
5.752444
6.204844
6.942749
7.470846
8.232594
8.415580
9.861588
10.023713
10.481477
10.384917
10.557771
10.365844
10.363460
9.638667
9.318590
9.041429
8.653998
8.231997
8.013844
7.938743
7.621646
8.650422
8.384585
8.213520
8.283854
8.034706
8.054972
7.876754
8.164644
7.970929
7.947683
8.252859
##ZVALUE=260
1.075864
1.074672
1.120567
1.148582
1.247525
1.313686
1.252890
1.524687
1.519918
1.551509
1.716614
2.861619
9.727478
42.010546
93.827844
221.754909
368.618965
614.893436
811.970830
1015.794873
1015.794873
1015.794873
991.475582
807.204843
529.343486
352.671742
194.534659
113.798976
68.331957
66.301823
82.909465
99.889636
114.421844
120.959878
119.283795
102.920532
87.911487
63.156486
47.158599
28.295517
19.305944
10.988712
7.419586
5.532503
5.440712
5.191565
5.192757
5.317926
5.436540
5.328655
5.459785
5.435944
5.630851
5.257726
5.324483
5.474687
5.219579
5.386472
5.468726
5.565882
5.442500
5.536675
5.246997
5.310774
5.580783
6.045699
6.402731
7.006526
7.674694
8.257627
8.323789
9.068847
9.116530
9.588599
9.340644
9.468794
8.899570
8.302927
8.003712
7.544756
7.442832
7.456541
7.056594
7.144809
7.072687
7.037520
7.182956
7.191896
7.189512
7.500648
7.288456
7.548928
7.352829
7.405877
7.371902
8.269548
##ZVALUE=265
1.003742
0.897646
1.028776
0.965595
1.282692
0.995994
1.236796
1.345873
1.494884
1.213551
1.345873
1.398921
1.559854
1.950860
4.307628
23.333430
59.133768
158.495903
287.200809
547.132492
776.832700
992.680788
1015.794873
1015.794873
1015.794873
978.820920
714.131594
498.372912
274.327993
159.178972
91.304779
57.896972
62.365532
86.236596
103.161931
118.288994
122.506618
116.832852
105.856657
84.186792
66.724420
43.403506
30.345917
17.287731
11.419654
7.490516
6.107688
5.682707
5.386472
5.137920
5.782843
5.413890
5.384684
6.008744
5.592704
5.522966
5.572438
5.457997
5.544424
5.316734
5.272627
5.406737
5.773902
5.613565
5.804896
6.234646
6.467700
6.411672
7.162690
7.914901
8.265972
8.776784
8.731484
9.127855
8.522868
8.511543
8.329749
7.836819
7.679462
7.320642
7.252693
7.000566
7.018447
6.799698
6.431937
6.778836
6.627440
6.776452
6.897449
6.574988
6.823540
7.116795
6.907582
7.160902
7.147789
7.194877
##ZVALUE=270
0.839829
1.076460
1.066923
0.962615
0.986457
0.999570
0.874996
1.120567
1.058578
1.271963
1.300573
1.296997
1.632571
1.507998
1.734495
1.899600
2.356768
9.636879
31.029582
107.651949
225.180984
403.676629
730.120540
980.913639
1015.794873
1015.794873
1015.794873
1015.794873
954.218507
712.762475
485.398769
247.684717
136.485696
61.512589
49.516559
63.980818
81.491470
103.153586
117.594004
121.999979
120.751858
105.539560
90.032816
65.931678
47.592521
29.204488
19.485950
11.768937
8.545518
6.590486
6.026626
5.786419
5.695820
5.687475
5.530715
5.967617
5.831718
5.744696
5.888939
5.970597
5.950928
5.679727
5.804896
5.471706
5.642772
6.022453
6.413460
6.743670
7.120967
7.511973
7.933974
8.367896
8.612871
8.609891
8.506775
8.094907
7.751584
7.548928
7.016659
6.928444
6.465912
6.503463
6.587505
6.429553
6.446838
6.237626
6.379485
6.180406
6.197691
6.355643
6.564856
6.367564
6.665587
6.308556
6.383657
6.408691
##ZVALUE=275
1.036525
0.927448
0.926852
0.956655
0.986457
1.049638
0.765920
0.938773
1.127720
1.048446
1.223683
1.155734
1.203418
1.180768
1.427531
1.568794
1.577735
1.788735
1.944900
4.740953
18.271804
54.903626
169.595480
325.213671
626.489520
865.379572
1015.794873
1015.794873
1015.794873
1015.794873
1015.794873
910.565853
645.396709
347.066522
196.839571
81.508756
47.419667
44.563413
58.054924
80.669522
96.707940
113.598704
119.351745
117.181540
107.835531
85.184574
68.190694
48.276782
33.945441
19.723773
13.752580
8.450747
6.802678
5.961657
5.890727
5.571842
5.756617
5.944967
5.778670
5.882978
5.787611
5.960464
5.853772
5.910993
5.821586
5.737543
6.155968
6.363988
6.896853
7.275939
7.713437
7.907748
8.158684
8.542538
8.085966
7.918477
7.398725
7.216930
6.618500
6.345510
6.365776
6.267428
5.965829
6.097555
5.679727
6.044507
5.973577
6.125569
6.055832
6.039739
6.190538
6.211996
6.296635
6.292462
6.630421
6.304979
##ZVALUE=280
0.827909
0.946522
0.850558
0.785589
0.980496
0.854731
0.936985
0.842810
0.949502
0.944734
0.993609
1.063943
1.226664
1.119971
1.250505
1.270771
1.227856
1.417994
1.654625
1.688600
1.923442
2.323985
11.669993
40.600896
134.201646
250.163674
487.010479
724.104643
1015.794873
1015.794873
1015.794873
1015.794873
1015.794873
1003.192663
765.113831
442.069769
263.062716
111.508965
55.481791
33.112764
39.879680
58.682561
76.012611
97.425580
109.635592
118.955970
114.707947
103.824735
88.429451
66.446662
49.992800
32.436848
21.500587
12.650490
8.696914
6.486773
5.949736
5.697608
5.829930
5.654693
5.949736
5.658865
5.757809
6.029606
6.088614
5.986691
5.993843
6.358624
6.916523
6.939769
7.251501
7.761717
7.933974
8.063912
7.437468
7.232428
7.001758
6.497502
6.375909
6.140471
5.993843
6.170869
5.965829
5.682707
5.846620
5.899668
5.701780
6.052852
6.097555
6.237626
6.031990
6.496906
6.331801
6.381869
6.323457
6.444454
##ZVALUE=285
0.793934
0.905991
0.850558
0.780821
0.813603
0.940561
0.904799
0.931621
0.809431
0.929832
1.017451
1.030564
1.079440
1.151562
1.011491
1.061559
1.309514
1.213551
1.317859
1.414418
1.473427
1.663566
1.769662
1.988411
5.808473
21.538734
75.168610
157.302618
351.247787
569.685698
821.115971
1015.794873
1015.794873
1015.794873
1015.794873
1015.794873
980.042815
624.074936
391.517878
183.793902
89.904666
33.618808
26.624799
37.976503
52.561760
75.630546
90.858936
106.472969
114.036798
112.417936
105.287433
87.880492
71.323514
49.992800
35.639405
20.584464
13.784766
8.510947
6.986856
5.721450
5.535483
5.668998
5.499721
5.604625
5.899668
6.056428
6.025434
6.322861
6.908774
6.889701
6.904602
7.604957
7.369518
7.025599
7.317662
6.757975
6.948709
6.326437
6.322861
6.092787
5.906820
5.774498
5.883574
5.717874
5.838871
5.832911
6.193519
6.027818
5.815625
6.192923
6.504655
6.576777
6.630421
6.807446
6.941557
7.101893
##ZVALUE=290
0.698566
0.796914
0.782609
0.867844
0.701547
0.771880
0.781417
0.812411
0.878572
0.788569
0.845790
0.894666
0.944734
0.931621
0.922680
1.136661
1.127720
1.156926
1.329780
1.151562
1.224875
1.331568
1.470447
1.639724
1.762509
2.070665
2.737641
8.464456
42.931437
105.379820
250.855684
437.750816
684.996843
1013.607979
1015.794873
1015.794873
1015.794873
1015.794873
1015.794873
801.605582
542.060733
275.982618
140.767694
47.722459
23.073554
24.020672
32.845736
50.479770
66.393614
86.408854
99.761486
109.580755
110.701919
100.918412
87.503791
67.698956
50.639510
32.699704
21.956563
13.183951
9.219646
6.459951
5.952716
5.563498
5.322695
5.798936
5.861521
6.254911
6.226897
6.746650
7.150769
7.123947
7.536411
7.276535
7.143617
6.594658
6.689429
6.293654
6.183982
5.876422
5.855560
5.722642
5.777478
5.715489
5.642772
5.757809
6.005764
6.022453
6.274581
6.514788
6.341934
6.484985
6.699562
7.016659
7.386804
7.529855
##ZVALUE=295
0.676513
0.669956
0.707507
0.687838
0.808835
0.591874
0.807643
0.748634
0.830889
0.890493
0.843406
0.990629
0.826716
0.856519
0.980496
0.920892
0.883937
1.084805
0.994802
0.913739
1.078844
1.130700
1.344681
1.415610
1.491904
1.585484
1.738667
1.821518
2.227426
3.284812
12.403727
60.994625
143.970847
353.680849
577.068925
944.636464
1015.794873
1015.794873
1015.794873
1015.794873
1015.794873
1009.524465
754.300952
413.654447
224.528909
77.414513
32.117963
16.523600
19.843578
32.016635
43.974519
63.979626
78.273416
95.382929
104.053617
105.135441
98.492503
83.248615
67.870617
47.920942
34.929514
20.970702
14.742613
8.939505
6.799698
5.912781
5.671978
5.849600
5.744696
6.340742
6.450415
6.877780
6.881952
6.680489
6.645918
6.194711
6.309748
5.967617
5.871654
5.911589
5.792975
6.053448
5.639791
5.851984
5.903840
5.658865
5.821586
5.721450
5.919933
6.104708
6.278753
6.409883
6.625652
7.008910
6.845593
6.938577
##ZVALUE=300
0.657439
0.508428
0.724792
0.565648
0.658631
0.621676
0.676513
0.759959
0.667572
0.765920
0.869632
0.803471
0.705719
0.918508
0.720620
0.827909
0.863671
0.926852
0.796914
1.030564
1.086593
1.122952
1.104474
1.103878
1.278520
1.308918
1.311898
1.416802
1.614690
1.848936
2.063513
2.201796
7.539988
28.787851
106.884837
219.039917
470.023751
736.037493
1015.794873
1015.794873
1015.794873
1015.794873
1015.794873
1015.794873
883.515477
591.790676
300.863981
160.100460
54.449439
20.414591
13.384819
17.333627
27.721524
38.913488
57.171583
72.482824
90.075731
97.727776
99.830627
94.987750
82.545877
68.409443
49.435496
36.154985
21.959543
15.109777
9.059906
7.313490
6.025434
6.357431
6.434917
6.417632
6.498694
6.474853
6.150603
6.005764
5.908608
5.877614
5.620718
5.543828
5.451441
5.384684
5.578995
5.400777
5.607605
5.558729
5.514622
5.635619
6.046891
5.882978
6.039739
5.947948
6.196499
6.394982
6.208420
6.193519
##ZVALUE=305
0.668764
0.552535
0.774860
0.652671
0.655651
0.767708
0.774860
0.651479
0.835657
0.753999
0.792742
0.736713
0.710487
0.771880
0.687838
1.012683
0.852942
0.798702
1.015663
0.999570
1.084805
0.910759
0.906587
1.057982
1.143813
1.057982
1.168847
1.184940
1.514554
1.400709
1.632571
1.674891
1.816750
2.114773
4.275441
15.197992
68.317652
158.451796
371.240973
598.838925
971.989036
1015.802622
1015.802622
1015.802622
1015.802622
1015.802622
1011.295915
770.944953
428.120494
235.095620
84.513426
33.395886
11.801720
11.556745
17.188787
24.942756
39.579868
51.938891
69.927573
82.498789
92.495680
95.191002
90.448856
80.162883
62.586665
49.418807
32.833815
22.449493
13.551712
9.875894
7.215738
6.637573
6.382465
6.163716
6.120801
5.679727
5.515814
5.530715
5.380511
5.337000
5.290508
5.491972
5.739927
5.372763
5.880594
5.725622
5.692840
5.519986
5.709529
5.587935
5.796552
5.879998
5.835891
5.939603
5.979538
5.932450
##ZVALUE=310
0.317693
0.478625
0.414848
0.500679
0.601411
0.488758
0.506639
0.567436
0.543594
0.604987
0.453591
0.639558
0.576973
0.438690
0.583529
0.708699
0.603795
0.576973
0.689626
0.694990
0.694990
0.784993
0.827909
0.791550
0.754595
0.741482
0.902414
1.006722
1.057982
1.142621
1.151562
1.197457
1.346469
1.509786
1.402497
1.739860
2.024770
7.797480
27.263761
101.445913
212.375522
469.524860
752.699971
1015.631557
1015.631557
1015.631557
1015.631557
1015.631557
1015.631557
970.208645
673.558712
343.161821
183.096528
59.976578
20.752549
9.049773
10.257959
15.021563
21.021962
33.398867
45.435429
62.815547
74.278712
86.529851
89.119673
85.871816
77.211857
62.778592
49.711466
33.063889
24.126768
15.175939
10.559559
7.422566
6.580949
5.964637
5.359650
5.335808
5.148649
4.906654
5.140901
5.098581
5.111694
5.310774
5.236864
5.158782
5.506873
5.500913
5.422831
5.599856
5.466938
5.537868
5.690455
5.748868
5.605817
5.846620
##ZVALUE=315
0.675917
0.486970
0.507832
0.489950
0.463724
0.509620
0.511408
0.613928
0.395775
0.568628
0.500679
0.591874
0.604987
0.566840
0.624657
0.490546
0.537634
0.806451
0.415444
0.598431
0.529885
0.659823
0.569820
0.713468
0.630617
0.870824
0.861883
0.886917
1.010895
0.899434
1.060963
1.130700
1.142621
1.131892
1.308918
1.406670
1.545548
1.526475
1.911521
3.152490
18.008947
56.050420
173.378587
333.425999
668.506622
971.832871
1015.666723
1015.666723
1015.666723
1015.666723
1015.666723
1015.666723
781.302452
502.055883
238.443017
111.273527
28.294921
10.794997
8.119941
9.063482
13.422966
19.134879
30.173659
41.035414
58.743954
69.610476
80.680847
84.487796
81.865788
73.852539
59.544444
47.159791
32.683611
23.434758
14.224648
10.195971
7.041693
5.744696
5.155802
5.132556
5.038977
5.206466
4.945993
5.358458
5.166531
5.291700
5.431771
5.394816
5.438924
5.385876
5.573630
5.523562
5.648732
5.560517
5.738735
5.724430
##ZVALUE=320
0.628829
0.554919
0.672936
0.678897
0.536442
0.669956
0.724792
0.680685
0.650883
0.690818
0.636578
0.564456
0.705719
0.663996
0.733733
0.727773
0.696778
0.792742
0.605583
0.638962
0.769496
0.809431
0.756979
0.846982
0.949502
0.897646
0.881553
0.899434
0.901818
1.058578
1.046658
1.117587
1.189709
1.242757
1.380444
1.303554
1.399517
1.497865
1.553893
1.891851
2.152920
2.481937
5.944967
35.016537
99.022388
283.534527
485.488772
845.945477
1015.794873
1015.794873
1015.794873
1015.794873
1015.794873
1015.794873
1003.172994
609.856844
358.670950
152.112842
64.416528
16.081929
8.126497
7.605553
8.493662
12.114644
17.494559
28.309822
38.471818
53.494573
65.671802
77.732801
80.567598
79.114437
72.250962
58.410764
45.991540
31.513572
22.028685
13.931990
9.722710
6.702542
5.732775
5.634427
5.364418
5.253553
5.247593
5.452633
5.288720
5.342960
5.383492
5.619526
5.509853
5.492568
5.449653
5.766749
5.644560
5.777478
##ZVALUE=325
0.550747
0.692606
0.548959
0.541806
0.453591
0.537634
0.646710
0.523925
0.596642
0.589490
0.780821
0.674725
0.808835
0.603795
0.747442
0.719428
0.728965
0.609756
0.683665
0.800490
0.660419
0.564456
0.740886
0.793934
0.849962
0.785589
0.816584
0.773668
0.856519
0.899434
0.958443
0.879765
1.107454
0.986457
1.070499
1.072884
1.197457
1.227856
1.409650
1.449585
1.538992
1.652837
1.668930
2.124906
3.532767
21.227598
59.502721
172.023773
326.886773
649.798512
949.989557
1015.791893
1015.791893
1015.791893
1015.791893
1015.791893
1015.791893
714.411736
443.723798
196.889639
92.400908
24.337769
9.703636
7.292628
7.237792
8.515716
11.481643
17.424822
25.548935
39.616823
50.392747
63.582659
71.599483
76.191425
73.856711
64.715743
54.911971
41.205883
30.658841
19.103885
13.421774
8.888841
7.055998
5.826950
5.557537
5.413890
5.346537
5.170703
5.184412
5.433559
5.361438
5.310774
5.226731
5.135536
5.319715
5.247593
##ZVALUE=330
0.562668
0.498891
0.633597
0.456572
0.503659
0.532866
0.680685
0.552535
0.679493
0.705719
0.628829
0.683665
0.652671
0.753999
0.699759
0.673532
0.659823
0.773668
0.704527
0.578761
0.805855
0.687838
0.858903
0.723600
0.754595
0.782609
0.851750
0.803471
0.796914
0.822544
0.523925
0.990629
0.980496
1.001954
0.931621
1.011491
1.091957
1.183748
1.401901
1.155734
1.332760
1.386404
1.569986
1.607537
1.768470
2.039671
2.232790
9.011626
32.854676
120.286942
246.166587
520.586967
798.115730
1015.837789
1015.837789
1015.837789
1015.837789
1015.837789
1015.837789
887.022614
591.961741
286.150575
145.375729
46.916604
15.297532
7.270575
6.772876
7.066727
8.074641
11.787415
16.488433
25.082827
34.341812
48.564672
58.592558
67.453980
70.601702
68.344474
62.407851
50.384998
40.253997
27.532578
20.089746
13.754964
10.205507
6.992817
6.177425
5.471706
5.252957
5.114675
5.033612
5.083680
5.211830
5.157590
4.899502
5.019903
##ZVALUE=335
0.460744
0.583529
0.604987
0.441670
0.442863
0.467896
0.561476
0.505447
0.511408
0.608563
0.568628
0.610948
0.522733
0.724792
0.592470
0.629425
0.565648
0.511408
0.685453
0.561476
0.739694
0.783801
0.706911
0.781417
0.752807
0.574589
0.811815
0.646710
0.670552
0.655651
0.645518
0.857711
0.842810
0.902414
1.000762
0.845790
0.989437
1.008511
0.964999
0.952482
0.941753
1.205802
1.375675
1.353621
1.408458
1.524687
1.609921
1.773834
1.923442
4.057884
14.940500
68.094730
159.514546
386.583805
654.644966
1015.815735
1015.815735
1015.815735
1015.815735
1015.815735
1015.815735
1011.771560
746.420622
402.560830
212.038755
69.255829
24.786592
8.355975
7.055998
6.879568
7.163882
8.253455
10.407567
16.287565
22.411942
33.829808
43.022633
54.648519
61.421990
65.755844
64.120889
56.726933
49.495697
38.295984
29.576421
19.793510
14.187694
9.733438
7.523894
5.847812
5.208850
5.190969
4.875660
4.750490
4.780889
4.951954
##ZVALUE=340
0.506639
0.606775
0.474453
0.346899
0.592470
0.416636
0.462532
0.524521
0.444651
0.563860
0.490546
0.341535
0.463724
0.543594
0.494719
0.514984
0.390410
0.405908
0.543594
0.627637
0.657439
0.571609
0.577569
0.633597
0.623465
0.707507
0.555515
0.747442
0.669956
0.627637
0.726581
0.896454
0.601411
0.791550
0.818968
0.829697
0.874996
0.797510
0.866652
0.937581
0.921488
1.065731
1.125932
1.119971
1.181960
1.199841
1.206994
1.172423
1.292825
1.669526
1.692772
2.483726
6.480813
38.608909
104.740858
288.617015
518.742800
912.366509
1015.794873
1015.794873
1015.794873
1015.794873
1015.794873
1015.794873
901.789665
489.915609
275.322795
107.633471
38.919449
9.903908
7.245541
6.680489
6.537437
6.790757
7.424951
10.443926
14.310479
21.676421
30.059814
42.774677
51.511526
59.616566
62.173605
60.375929
56.191683
46.748519
38.433671
27.616620
20.549893
13.783574
10.014772
6.802678
5.595684
5.214810
5.040765
4.712939
##ZVALUE=345
0.551939
0.502467
0.415444
0.412464
0.610948
0.426769
0.464916
0.417829
0.565648
0.470877
0.512600
0.665784
0.555515
0.644922
0.598431
0.493526
0.569820
0.500679
0.621676
0.567436
0.669956
0.570416
0.640750
0.607967
0.600815
0.494719
0.491738
0.654459
0.674725
0.611544
0.652671
0.635982
0.690818
0.808835
0.858903
0.844598
0.789762
0.826716
0.787973
0.657439
0.898838
0.844598
0.863671
0.896454
1.107454
0.994802
1.365542
1.125932
1.226664
1.323819
1.506805
1.645684
1.800656
2.030730
3.248453
21.452904
68.499446
204.543471
389.778614
755.099654
1015.794873
1015.794873
1015.794873
1015.794873
1015.794873
1015.794873
1015.794873
632.897615
368.046761
150.429606
62.069893
16.423464
8.404851
6.939769
6.589890
6.052852
6.059408
6.779432
8.820891
13.689995
19.249916
28.907657
37.276745
47.256947
52.828789
56.680441
56.576729
52.098632
46.337843
36.768913
28.807521
19.251704
14.107823
9.632707
7.321835
5.655885
##ZVALUE=350
0.469685
0.434518
0.578761
0.479817
0.459552
0.516772
0.431538
0.373721
0.607967
0.493526
0.503659
0.507832
0.815988
0.577569
0.584722
0.477433
0.637770
0.567436
0.700951
0.736713
0.523925
0.581741
0.686646
0.655651
0.760555
0.701547
0.693798
0.649691
0.486970
0.604987
0.720620
0.760555
0.605583
0.723600
0.717640
0.636578
0.845790
0.898838
0.625849
0.783801
0.828505
0.837445
0.765920
0.971556
0.964999
0.921488
0.929832
1.095533
1.262426
1.197457
1.172423
1.406670
1.502633
1.673698
1.723766
1.998544
2.454519
10.603666
36.850572
133.239627
274.845958
596.703887
906.834602
1015.794873
1015.794873
1015.794873
1015.794873
1015.794873
1015.794873
786.897540
496.272445
226.031542
100.071430
23.960471
9.399652
6.450415
5.895495
5.437732
5.378723
5.661845
6.510615
8.709431
11.901855
17.806888
23.301840
33.326745
40.124655
47.790408
51.401854
52.188635
48.986673
42.071939
35.482645
25.876760
19.832850
13.459921
##ZVALUE=355
0.526905
0.483990
0.461936
0.380874
0.531673
0.503659
0.596642
0.519753
0.602603
0.502467
0.545979
0.613928
0.459552
0.537634
0.641942
0.552535
0.623465
0.776649
0.634789
0.602603
0.621676
0.688434
0.617504
0.688434
0.575781
0.567436
0.635982
0.759959
0.749826
0.594854
0.650883
0.580549
0.776649
0.701547
0.714660
0.844598
0.865459
0.854731
1.002550
0.985861
0.886917
0.881553
0.921488
0.907779
0.859499
0.890493
1.052618
1.033545
1.086593
1.240969
1.169443
1.302958
1.284480
1.361966
1.421571
1.822710
1.628995
1.893640
2.037883
4.716516
17.593503
81.377625
186.188817
427.908897
718.885660
1015.794873
1015.794873
1015.794873
1015.794873
1015.794873
1015.794873
971.606374
642.692447
295.372009
138.989687
37.160516
12.117624
6.315708
5.860925
5.647540
5.239844
5.097985
5.384684
5.965829
7.205606
10.763407
14.337897
21.488667
27.594566
35.751462
42.111874
47.130585
48.120618
44.794679
40.788651
33.171773
##ZVALUE=360
0.631809
0.639558
0.681877
0.606775
0.482798
0.629425
0.654459
0.638962
0.578761
0.530481
0.519753
0.669956
0.588894
0.587702
0.432730
0.577569
0.500679
0.716448
0.713468
0.751615
0.632405
0.687838
0.782609
0.718832
0.667572
0.862479
0.732541
0.794530
0.798702
0.653863
0.839829
0.780821
0.729561
0.758767
0.748634
0.852942
0.874996
0.829697
0.828505
0.954866
0.790954
0.908971
0.830889
0.952482
1.038909
0.954866
0.980496
0.939965
1.001954
0.884533
1.266599
1.190901
1.270771
1.261830
1.355410
1.426935
1.410842
1.542568
1.859665
2.007484
2.245903
2.804995
7.246733
37.453771
104.228854
296.914577
534.541011
947.929621
1015.794873
1015.794873
1015.794873
1015.794873
1015.794873
1015.794873
751.497746
403.393507
210.910439
68.184733
22.969842
7.226467
5.892515
5.223751
5.152822
4.846454
4.714727
4.756451
5.026460
6.301999
8.203983
12.090802
16.652942
24.114847
29.782653
37.413836
41.457415
43.888688
##ZVALUE=365
0.438690
0.473857
0.440478
0.430942
0.476837
0.548959
0.419617
0.449419
0.487566
0.511408
0.561476
0.648499
0.539422
0.497699
0.548959
0.621676
0.601411
0.516772
0.608563
0.591874
0.513792
0.562668
0.706911
0.621676
0.594854
0.650883
0.641942
0.742674
0.630617
0.499487
0.757575
0.629425
0.847578
0.825524
0.909567
0.891685
0.850558
0.687838
0.912547
0.802875
0.851750
0.874996
0.940561
0.859499
0.949502
0.836849
0.914931
0.912547
0.891685
0.987649
1.098514
1.095533
0.944734
1.139641
1.238585
1.266599
1.228452
1.522899
1.508594
1.715422
1.863837
2.022982
2.180934
2.468824
3.766418
20.264983
63.199997
194.583535
393.489599
798.821449
1015.794873
1015.794873
1015.794873
1015.794873
1015.794873
1015.794873
958.426595
538.735986
295.009613
103.510618
37.533641
8.892417
5.743504
5.330443
5.018711
4.612803
4.279613
4.332662
4.110932
4.548430
5.278587
7.309914
9.807944
14.886856
19.600987
26.130676
##ZVALUE=370
0.598431
0.277758
0.587702
0.576973
0.648499
0.652671
0.593662
0.576973
0.488758
0.557899
0.526905
0.503659
0.530481
0.554919
0.540614
0.473857
0.530481
0.583529
0.476837
0.518560
0.551939
0.586510
0.720620
0.684857
0.552535
0.751615
0.558496
0.544786
0.698566
0.647902
0.599623
0.640750
0.650883
0.622869
0.647902
0.631809
0.747442
0.810623
0.739694
0.797510
0.751615
0.806451
0.689626
0.821948
0.906587
0.918508
0.689626
0.936985
0.844598
0.902414
0.935793
0.927448
0.942945
1.078844
1.103878
1.086593
1.254678
1.098514
1.217723
1.274943
1.365542
1.678467
1.699924
1.761913
1.894832
2.212524
2.715588
10.403991
38.008690
142.191648
289.827585
606.235862
948.841572
1015.794873
1015.794873
1015.794873
1015.794873
1015.794873
1015.794873
669.170022
384.615660
148.215890
63.768625
17.145872
6.920695
5.017519
4.550815
4.490614
4.302859
3.957748
3.885627
3.786683
4.019737
4.752874
6.034970
8.858442
##ZVALUE=375
0.485778
0.528693
0.619888
0.462532
0.487566
0.488758
0.561476
0.471473
0.548959
0.556707
0.497699
0.466704
0.476837
0.607967
0.442863
0.655651
0.629425
0.405908
0.515580
0.645518
0.590682
0.615716
0.644922
0.492930
0.595450
0.608563
0.617504
0.615716
0.611544
0.592470
0.469685
0.507832
0.702739
0.554919
0.550747
0.584722
0.677705
0.546575
0.658631
0.722408
0.528693
0.756979
0.645518
0.810623
0.753999
0.778437
0.669956
0.696778
0.698566
0.815988
0.864863
0.872612
0.813603
0.859499
0.907779
0.790954
0.982881
0.937581
1.097918
1.041889
0.985861
1.258850
1.243949
1.372695
1.508594
1.731515
1.954436
2.233982
2.440810
5.780458
21.123886
89.275837
209.767818
510.262847
833.013654
1015.794873
1015.794873
1015.794873
1015.794873
1015.794873
1015.794873
856.704712
554.538965
275.505781
133.769512
37.320852
11.830926
5.183816
4.488826
4.260540
3.957748
3.776550
3.666878
3.553629
3.435612
3.760457
##ZVALUE=380
0.450611
0.379682
0.414848
0.516772
0.447631
0.444651
0.415444
0.512600
0.362992
0.431538
0.488758
0.446439
0.545979
0.656843
0.510812
0.549555
0.355840
0.550747
0.405908
0.497699
0.543594
0.482798
0.452995
0.536442
0.570416
0.529885
0.527501
0.638962
0.615716
0.558496
0.696778
0.478625
0.500679
0.565648
0.546575
0.588894
0.585914
0.570416
0.683665
0.647902
0.687838
0.530481
0.686646
0.668764
0.586510
0.612736
0.688434
0.637770
0.770688
0.685453
0.771880
0.809431
0.746846
0.787973
0.901818
0.920892
0.863671
0.823736
0.835657
0.953674
0.919700
1.097918
1.100898
1.191497
1.134872
1.472831
1.643896
1.695752
2.086759
2.247691
2.383590
3.358722
10.192990
56.563616
146.738887
382.100940
655.887723
1015.794873
1015.794873
1015.794873
1015.794873
1015.794873
1015.794873
1015.794873
754.140019
380.870700
195.281506
63.487887
22.315979
6.103516
4.531741
3.976822
3.795624
3.598928
3.557801
3.459454
##ZVALUE=385
0.430942
0.430942
0.518560
0.541806
0.439882
0.451803
0.395775
0.378489
0.378489
0.556707
0.458956
0.367761
0.448823
0.418425
0.556707
0.596642
0.367761
0.537634
0.460744
0.461936
0.400543
0.531673
0.516772
0.455976
0.561476
0.508428
0.529885
0.535846
0.634789
0.410676
0.414848
0.737906
0.597835
0.508428
0.586510
0.677705
0.611544
0.508428
0.633597
0.523925
0.582933
0.524521
0.646710
0.550747
0.763535
0.621676
0.496507
0.651479
0.643730
0.689626
0.871420
0.855923
0.787973
0.788569
0.807643
0.662804
0.721812
0.839829
0.833869
0.852942
0.867844
0.970960
0.984669
1.112819
1.056790
1.300573
1.491904
1.688600
1.912713
1.880527
1.853704
2.125502
2.093911
2.572536
4.693866
28.356910
85.574389
249.411464
482.716560
934.265852
1015.794873
1015.794873
1015.794873
1015.794873
1015.794873
1015.794873
998.750925
594.244599
339.855552
133.558512
49.436688
9.858608
4.775524
3.934503
3.733635
3.627539
##ZVALUE=390
0.464916
0.496507
0.321865
0.295639
0.452995
0.373721
0.372529
0.405908
0.388622
0.388622
0.321865
0.529885
0.405908
0.481606
0.403523
0.579953
0.527501
0.523925
0.433922
0.574589
0.500679
0.361800
0.378489
0.536442
0.508428
0.479817
0.520945
0.379682
0.550747
0.458956
0.574589
0.608563
0.500679
0.622869
0.527501
0.707507
0.659823
0.415444
0.554919
0.764728
0.593662
0.646710
0.690818
0.556707
0.598431
0.692606
0.672936
0.585914
0.503659
0.616908
0.628829
0.805855
0.774860
0.851750
0.832677
0.752807
0.594854
0.792742
0.688434
0.852942
0.898838
0.861883
0.939965
1.062751
1.169443
1.210570
1.469851
1.578927
1.744628
1.760721
1.841784
1.885891
1.788735
1.880527
1.999736
2.009869
2.795458
13.307929
49.929619
183.051825
382.769704
789.336562
1015.794873
1015.794873
1015.794873
1015.794873
1015.794873
1015.794873
1015.794873
854.742527
509.457588
205.773711
91.186762
23.591518
7.401705
4.181862
##ZVALUE=395
0.480413
0.523925
0.501871
0.474453
0.581741
0.443459
0.458956
0.432730
0.463724
0.470877
0.434518
0.534654
0.326633
0.488758
0.517964
0.524521
0.469685
0.572801
0.492930
0.621676
0.520945
0.624657
0.525713
0.627637
0.537634
0.632405
0.658631
0.489950
0.436902
0.533462
0.602603
0.624657
0.524521
0.610948
0.648499
0.625849
0.513792
0.548959
0.628829
0.705719
0.526905
0.573993
0.600815
0.623465
0.638962
0.682473
0.542998
0.627637
0.723600
0.720620
0.686646
0.701547
0.739694
0.729561
0.835657
0.752807
0.771880
0.787973
0.674725
0.853539
1.023412
1.035929
0.928640
0.958443
1.178980
1.365542
1.429915
1.532435
1.673698
1.711845
1.777411
1.588464
1.651645
1.778603
1.747608
1.753569
1.853704
2.111793
2.375841
6.982684
28.619766
123.076439
260.669589
555.436611
896.729827
1015.823483
1015.823483
1015.823483
1015.823483
1015.823483
1015.823483
1015.823483
722.168684
322.856903
151.064992
42.791963
##ZVALUE=400
0.499487
0.363588
0.419617
0.488758
0.401735
0.327826
0.503659
0.360608
0.415444
0.434518
0.495911
0.508428
0.581741
0.538826
0.518560
0.413656
0.368953
0.331998
0.597835
0.433922
0.428557
0.444651
0.582933
0.581741
0.433922
0.498891
0.471473
0.349879
0.456572
0.571609
0.541806
0.429749
0.593662
0.516772
0.642538
0.662804
0.574589
0.503659
0.599623
0.573993
0.534654
0.406504
0.672936
0.674725
0.574589
0.584722
0.622869
0.628829
0.683665
0.622869
0.675917
0.732541
0.781417
0.587702
0.721812
0.778437
0.810623
0.778437
0.790954
0.851750
0.765920
0.779629
0.848770
0.826716
1.106858
1.269579
1.388788
1.533628
1.429915
1.513958
1.582503
1.484752
1.486540
1.375675
1.431704
1.533628
1.458526
1.552701
1.733899
1.878738
2.212524
3.948808
13.652444
59.780478
146.162510
378.660560
667.629838
1015.791893
1015.791893
1015.791893
1015.791893
1015.791893
1015.791893
1015.791893
893.951654
471.062660
##END
