##TITLE=FKDZ0101
##FORMAT=SPECTACLE-ASCII V-1.2
##DATA TYPE=ULTRAVIOLET SPECTRUM
##SECOND TYPE=ULTRAVIOLET SPECTRUM
##DATE=05/24/18
##TIME=18:28:21
##SPECTROMETER/DATA SYSTEM=SPECTACLE
##XUNITS=NM EM
##YUNITS=ENERGY
##YFACTOR=1
##FIRSTX=220
##LASTX=410
##NPOINTS=96
##3DDATA=Equidistant
##ZUNITS=NM EX
##FIRSTZ=210
##LASTZ=400
##ZPOINTS=39
##XYDATA=(Y..Y)
##ZVALUE=210
4.525781
5.351901
4.925728
4.814863
5.077720
4.939437
4.915595
4.640818
4.271865
4.092455
2.960563
3.312826
3.801584
3.656745
3.185868
4.148483
4.149675
4.372597
3.566742
4.426837
4.427433
4.978776
4.694462
5.194545
5.973577
7.076859
8.844733
10.569692
13.548732
15.413761
15.834570
17.466545
19.470453
19.391775
20.322800
20.248890
20.900965
21.230578
21.263957
19.944906
17.721653
17.832518
16.918778
16.312599
16.698837
16.107559
14.045835
14.409423
13.010502
12.331605
11.654496
11.930466
10.952950
10.748506
10.558963
10.182858
10.685921
9.600520
9.404421
10.015965
9.620786
8.918643
9.253621
9.548664
8.447766
11.314750
11.424422
12.249947
14.484525
16.623735
17.349720
19.170642
23.729801
22.298694
23.553967
22.307634
22.870898
20.142794
18.767715
16.402602
14.326572
12.940764
10.921955
9.538531
9.300709
8.239746
7.836819
6.364584
8.059740
8.697510
8.819699
8.196831
8.753538
10.148883
11.368990
13.652444
##ZVALUE=215
19.958615
19.571781
17.690659
13.018847
12.824535
10.895729
9.567738
10.696650
10.171533
10.800958
8.171797
6.575584
6.569624
5.731583
4.402995
4.315972
4.282594
3.799796
3.728867
4.707575
5.059838
4.234910
4.894733
5.834699
6.389618
9.536743
11.479855
14.895797
19.043684
21.393895
24.727583
30.015707
32.868981
34.284592
35.356879
37.208796
36.601424
33.856630
36.437511
33.781528
32.057762
28.673410
29.507875
27.421713
24.508834
23.842454
21.081567
20.757914
20.282865
18.523932
17.043948
17.684698
15.735626
15.332699
13.673902
13.258457
12.228489
12.472868
11.741519
11.811852
11.627674
11.130571
10.593534
10.048747
10.344982
11.259913
12.211800
13.037920
14.597774
15.650988
16.410947
18.480420
19.444823
19.893646
20.743608
20.557642
20.112991
18.502474
16.252995
15.159845
12.708902
12.316704
10.722876
9.720922
9.015799
8.474588
8.081794
7.479787
7.287860
7.683635
7.231832
7.467866
7.409453
7.654428
7.890463
9.719729
##ZVALUE=220
62.687993
61.892867
59.819818
52.786469
43.202639
33.621788
27.491450
23.712516
21.373630
19.489527
23.260713
23.283958
20.998716
16.721487
15.233755
11.126995
8.329749
5.492568
5.398989
3.851652
4.230738
3.882647
5.197525
6.033778
6.906986
12.266636
14.313459
21.183491
25.997758
32.907724
36.977530
45.915842
48.189759
51.910877
53.325891
57.389736
56.075454
54.083467
54.735541
49.218535
49.276948
46.216846
41.881800
39.731860
37.059784
33.075809
31.206608
29.531717
25.739670
25.825500
23.182631
22.134781
20.668507
19.618869
17.554760
16.717911
16.608834
15.558600
15.158653
12.838840
13.438463
12.930632
12.429953
11.446476
12.577772
12.317896
12.636781
12.975931
14.535785
14.320612
17.150640
18.935800
17.407537
18.850565
18.326640
17.134547
16.769767
16.528964
16.667843
13.647676
12.860894
12.616515
11.400580
10.898709
9.753704
8.846521
8.930564
8.136630
8.250475
7.805824
7.950664
8.504987
8.459687
8.196831
7.564425
8.437634
##ZVALUE=225
99.202991
99.505782
121.755600
135.168433
137.728453
122.445822
107.567906
78.790784
59.116483
44.782758
39.415956
40.424466
41.498542
41.817427
37.818551
36.090612
28.453469
22.128820
15.291572
10.691881
7.066727
5.852580
4.539490
6.132722
8.066893
11.836886
16.102791
23.186803
28.954744
36.526918
41.450858
49.428940
53.763986
60.012937
60.325861
63.927770
62.395930
62.394738
60.298443
55.889487
54.941773
50.771832
49.446821
44.528842
41.182637
38.631558
36.025643
33.213496
30.947924
29.092431
26.179552
24.577975
23.797750
22.321939
21.103621
19.761920
18.252730
17.408729
17.089844
15.431643
15.315413
14.534593
15.314817
14.723539
13.731718
14.085770
14.341474
15.505552
14.572740
16.541481
17.607808
16.664863
18.173456
17.927885
18.346906
16.849637
16.955733
16.414523
15.160441
12.715459
13.382435
11.674762
11.701584
11.497736
10.456443
10.897517
9.847879
10.004640
9.828806
9.751916
9.659529
9.842515
9.831786
9.214878
10.393858
9.674430
##ZVALUE=230
68.069696
75.016618
116.033554
176.290870
218.214989
250.825882
253.627896
236.720443
203.433633
167.262554
109.895468
82.084537
62.942505
62.009692
63.327551
67.391992
65.277815
62.272549
54.526925
42.320490
31.384826
20.119548
12.898445
8.806586
8.125901
10.439754
11.747479
17.740726
21.274686
28.207898
32.987595
37.012696
39.558411
43.536425
45.592785
47.113895
47.713518
46.350956
43.937564
43.312907
40.209889
38.748980
36.852956
34.749508
32.587647
31.548738
28.444529
26.740432
25.151968
24.307966
21.799803
20.704865
19.719601
18.957853
19.814968
18.097758
17.814636
17.057657
16.269684
16.765594
16.167760
15.134811
15.117526
14.878511
14.775991
15.690923
15.244484
16.019940
15.417933
16.955733
16.674995
19.621849
18.293858
20.152926
18.984675
18.944740
18.591881
18.750429
17.786622
14.735460
14.764667
15.062690
13.973713
13.843775
13.913512
13.025999
12.855530
12.481809
13.074875
11.378527
12.852550
12.703538
11.600852
11.546612
11.733770
11.589527
##ZVALUE=235
15.501976
17.836690
51.022768
94.410777
154.441595
244.220495
315.265656
379.461646
397.102833
374.948978
326.812863
238.333941
180.206895
115.745664
91.354847
79.605579
81.354976
88.752508
92.660785
88.157654
80.316663
67.858696
47.764778
35.806894
21.909475
15.137792
10.879636
11.101961
12.358427
14.512539
16.407967
18.826723
20.115972
21.808743
22.025704
24.444461
22.264719
24.359822
24.068952
23.440719
22.801757
21.652579
21.419525
20.227432
20.135641
18.613935
18.368959
16.943812
16.603470
15.361905
15.021563
15.010834
14.944673
14.434457
13.699532
14.813542
13.310909
13.391972
14.487505
14.625788
13.810992
14.149547
14.051795
13.849735
13.170838
14.547706
14.348626
15.253425
16.173720
16.486645
16.454458
17.687678
18.046498
18.988848
18.503666
18.613935
17.394423
17.797947
17.106533
16.043782
15.252829
15.839934
15.432835
14.016628
14.367700
13.942719
14.291406
13.641715
13.367534
14.787912
13.745427
13.443828
13.997555
13.284683
13.343692
13.593435
##ZVALUE=240
1.634955
1.693964
5.927682
17.248988
48.247576
92.885494
185.159445
272.962451
393.506885
466.648936
501.488447
488.582850
441.083908
342.642665
254.900455
158.901811
117.228627
90.900660
86.683631
93.779564
103.756785
108.241439
102.146864
90.346932
68.254471
53.868890
37.170649
26.981831
17.396808
13.603568
10.478497
11.052489
11.239648
12.106895
13.400912
12.461543
13.495684
13.632774
14.500618
14.868975
13.906956
15.387535
14.548898
14.540553
14.738441
14.262795
14.076829
14.100671
13.428926
13.224483
12.920499
12.211800
12.585521
11.820793
12.507439
12.084842
12.297630
12.685657
12.245774
12.175441
12.208819
12.079477
12.707710
12.398958
11.912584
12.835860
13.709664
13.934970
14.450550
15.062690
15.841722
17.348528
17.840862
17.953515
17.423630
17.963648
17.720461
17.309785
16.352534
16.433597
15.025735
15.475750
15.218854
16.409755
15.592575
14.916658
15.042424
14.978647
15.738606
14.722943
14.379621
15.308857
14.718771
15.179515
14.267564
14.960766
##ZVALUE=245
1.098514
1.369715
1.138449
1.276731
3.592968
10.650754
37.843585
76.916814
168.921947
260.787010
401.718616
496.353507
559.885502
571.239591
537.543893
433.512926
339.516997
228.557587
157.569647
101.548433
83.095431
85.469484
99.266768
109.474659
113.433003
109.474659
94.267726
81.869960
61.200857
47.361851
32.691956
21.677613
17.437935
13.059974
12.773871
13.788939
13.034940
14.187694
14.184713
14.816523
15.139580
15.187860
14.919639
14.560819
14.813542
14.708638
13.998747
13.622642
13.338923
12.881756
12.839437
12.373924
11.810660
11.414886
11.467934
10.828972
10.804534
10.578632
10.887980
10.686517
10.558963
10.228753
10.458827
10.361671
10.760427
10.797977
10.791421
11.630654
12.192726
12.795925
13.726950
14.288425
15.177727
15.767813
15.720725
15.693903
14.679432
15.279651
14.532804
15.488863
13.693571
14.265776
14.371872
13.881922
14.248490
14.422536
14.308691
14.738441
14.095902
14.007688
14.702678
13.563633
14.004707
14.384985
12.988448
14.669895
##ZVALUE=250
1.104474
1.037717
1.220703
0.945926
1.121759
1.241565
2.024770
5.769730
25.637746
58.206916
141.008496
232.451558
337.411761
481.198430
569.925904
625.965595
612.282753
535.862446
443.170667
299.846530
205.102563
133.376718
86.871982
77.458620
87.800622
102.517605
115.451813
118.615627
116.061568
105.956793
92.293620
71.327686
55.762529
39.274693
29.067993
22.619963
20.206571
19.627810
18.599629
17.889738
18.063784
17.979741
18.404722
17.956495
16.804934
17.578602
16.198754
16.355515
14.961958
14.541745
14.247894
13.717413
13.059974
12.302995
12.599826
10.998845
10.921955
10.546446
10.159612
9.490848
9.761453
9.027719
9.512901
9.463429
8.992553
9.713769
9.584427
10.131598
11.002421
11.597872
12.539625
12.299418
13.103485
13.161898
13.209581
13.240576
14.383793
12.760758
12.806654
12.789965
13.337731
12.552738
12.732744
12.784600
12.714863
13.047457
12.880564
13.333559
13.171434
13.319850
12.977719
13.049841
12.314916
13.112426
12.537837
12.014508
##ZVALUE=255
0.841618
0.789762
1.070499
1.032948
1.012683
0.964999
1.185536
1.248717
1.348853
2.950430
15.046597
39.502978
84.189773
184.388757
289.494991
453.212857
557.614565
657.019615
683.358908
635.003448
544.624925
429.298878
265.657902
169.980526
96.785426
73.180795
74.053407
87.252855
109.097958
124.125481
129.595995
129.750967
119.512677
103.076696
84.517598
63.941479
49.832463
37.057996
31.715631
27.431846
25.348663
24.541616
23.798943
22.607446
22.592545
20.975471
20.341873
19.297600
18.478632
17.134547
16.824603
15.789866
14.309883
14.119744
13.040900
12.252927
11.796951
11.025667
10.821819
10.439754
9.351969
9.293556
9.355545
9.315610
8.907914
9.289980
9.307861
9.671450
10.126829
10.502934
11.067986
11.396408
11.823773
12.235641
12.410879
12.012720
12.047887
11.578798
11.531711
11.704564
11.319518
11.232495
11.788607
11.566877
11.413693
11.582971
11.920929
11.697412
11.830926
11.654496
11.651516
12.207627
11.641979
11.337996
11.816621
11.197925
##ZVALUE=260
0.808835
0.951886
0.814795
1.002550
0.846982
1.003742
1.057982
1.018643
1.179576
1.223683
1.148582
1.630783
5.433559
24.232864
55.661798
138.130784
231.654644
388.617516
516.218543
666.745901
735.265613
738.916993
646.953583
527.691841
351.284742
241.991878
142.447948
93.582869
71.635842
77.005625
93.187690
120.748878
137.737989
148.146749
148.638487
134.388804
119.890571
94.504952
77.891946
57.869554
46.916604
37.564635
33.179522
30.254722
28.085709
26.571751
25.228858
23.213625
22.223592
21.016598
19.868612
18.236637
17.513633
15.780926
15.216470
13.676882
13.317466
12.220740
12.093782
11.262894
10.213852
9.970665
10.062456
9.613633
9.741783
9.463429
9.432435
9.810925
9.886622
10.252595
10.350943
10.887980
11.413693
11.348724
11.098981
11.134744
10.837913
10.812879
10.852814
10.468960
10.764599
10.215640
10.964870
10.969639
10.631680
10.302663
10.433793
10.418892
10.834932
10.778904
10.859966
10.387897
10.943413
10.588765
10.663867
10.561943
##ZVALUE=265
0.711679
0.691414
0.723600
0.634789
0.620484
0.751615
0.814795
0.864863
0.892878
0.793934
0.981688
1.005530
1.141429
1.432896
2.590418
14.836788
38.189888
101.177692
182.531476
343.871713
492.246747
633.111596
768.676996
797.205567
730.093718
630.899668
472.205877
337.491632
194.268823
128.447413
84.040761
77.956915
88.883638
116.841793
134.845972
153.720975
160.610676
154.856443
144.289732
121.594667
102.076530
78.012943
62.887669
47.178864
38.814545
32.834411
29.623508
27.104616
25.246739
24.125576
22.550821
20.903945
19.102693
18.239617
16.873479
15.978813
14.686584
14.042854
13.068914
11.675954
10.828972
10.868907
10.859966
10.029674
9.641647
9.646416
9.616613
9.649992
9.571910
10.307431
10.152459
10.190606
10.759830
10.275841
10.614991
10.405779
10.496974
10.244846
10.149479
9.561777
10.271668
10.318756
10.060668
9.796619
10.376573
9.927750
9.922981
9.976625
10.104775
9.623766
9.858608
10.108948
9.943843
9.982586
10.094643
10.008812
##ZVALUE=270
0.733733
0.703931
0.789762
0.676513
0.708699
0.805855
1.006722
0.782609
0.903606
0.952482
0.988841
0.946522
1.153946
1.234412
1.162887
1.183748
1.565814
5.988479
19.650459
66.847801
138.266683
246.081948
441.717505
599.769950
771.813989
837.967992
832.415819
759.899616
600.131750
461.604595
332.263708
187.928677
121.094584
80.229640
78.382492
96.959472
115.293860
138.130784
151.623487
157.107711
155.608654
139.699578
123.450756
97.077489
78.144670
55.011511
43.585896
34.016967
27.891994
24.398565
21.935701
20.788908
19.383430
17.741919
17.111897
15.988946
14.719963
13.584495
13.166666
12.449622
11.861920
10.949969
10.425448
10.260940
9.657741
9.552836
9.264946
9.701848
9.735823
9.674430
9.689927
10.157824
10.593534
9.905696
10.386705
10.157824
9.886622
9.640455
9.682775
9.206533
9.789467
9.604692
9.233952
9.656549
9.430647
9.534955
9.200573
9.074807
9.465814
9.125471
9.409785
9.128451
9.641647
9.085536
9.288788
9.166598
##ZVALUE=275
0.527501
0.670552
0.544786
0.709891
0.694990
0.570416
0.483990
0.675917
0.532866
0.717640
0.812411
0.749826
0.816584
0.795722
0.677705
1.025796
1.191497
1.170635
1.215935
2.965927
10.747910
33.512712
103.317499
196.158886
376.381874
523.758531
699.386597
810.954571
869.414806
837.802887
745.176673
568.519831
414.801836
237.732530
147.364736
79.905987
62.185526
66.964626
81.607699
102.935433
120.345950
137.249827
142.391920
139.790773
128.533840
106.157660
88.328719
65.255761
50.285459
34.193993
26.579499
19.804835
17.538667
15.709996
14.402866
13.425946
12.673736
12.118816
11.507869
10.643601
10.685921
9.792447
9.608865
9.333491
9.181499
8.950830
8.833408
9.028912
9.100437
9.388924
9.342432
9.470582
9.547472
9.366870
9.601712
9.368658
9.151697
9.287596
9.361506
8.871555
9.229779
8.814931
8.821487
8.863807
8.979440
8.665919
9.214878
8.925796
8.635521
8.519888
8.610487
8.765459
8.953810
8.620620
8.506775
8.694530
##ZVALUE=280
0.551939
0.527501
0.406504
0.555515
0.571609
0.612736
0.619888
0.731945
0.717640
0.764728
0.724792
0.759959
0.739694
0.672936
0.778437
0.792742
0.742674
0.854731
0.765920
0.991821
1.207590
1.399517
6.247759
22.911429
77.415705
146.843791
284.624696
431.288481
633.748770
767.665505
853.165984
877.507925
813.827515
639.426708
483.250618
285.674930
175.977945
84.422827
49.854517
39.310455
47.672987
67.144632
84.240437
105.591416
119.240880
126.670599
125.890970
113.338828
98.930597
75.172782
58.300495
38.662553
27.766824
18.571615
13.940930
11.013746
9.959936
9.187460
9.296536
9.033680
8.726716
8.324981
8.244514
8.114576
8.342862
7.823706
8.183718
8.274913
8.124709
8.441806
8.503795
8.910894
8.532405
8.775592
8.499622
8.709431
8.453727
8.768439
8.527637
8.552670
8.793473
8.570552
8.180737
8.265972
8.836985
8.168817
8.350611
8.646846
8.387566
8.400679
8.468628
8.562803
8.410811
8.222461
8.159876
8.570552
##ZVALUE=285
0.574589
0.588894
0.645518
0.617504
0.544786
0.498891
0.586510
0.709891
0.795722
0.708699
0.653863
0.677705
0.710487
0.550747
0.701547
0.766516
0.916719
0.820756
0.775456
0.797510
1.020432
0.993609
1.368523
1.249909
2.928972
11.115670
41.523576
89.325905
199.959874
327.648520
481.146574
694.121718
830.662847
919.719934
893.560648
750.242472
600.342751
382.511616
241.738558
117.290616
61.472654
29.323697
26.460886
38.569570
53.288937
76.040626
92.278719
108.220577
116.784573
116.501451
109.388828
92.445612
76.736808
54.222941
39.713979
23.507476
16.429424
10.968447
8.966923
7.765889
7.536411
7.232428
7.340908
7.015467
6.980896
7.442832
7.285476
7.398725
7.864833
8.106828
8.230805
7.988811
8.606911
8.179545
8.406639
8.693933
8.213520
8.148551
8.240938
8.351803
8.456707
8.620620
8.276701
8.732677
8.619428
8.491874
8.464456
8.587837
8.389950
8.579493
8.655787
8.370876
8.150935
8.443594
8.234978
8.497834
##ZVALUE=290
0.619888
0.635982
0.685453
0.480413
0.589490
0.561476
0.571609
0.584722
0.558496
0.639558
0.732541
0.784993
0.679493
0.759959
0.755787
0.643730
0.848770
0.990629
0.939965
0.942945
0.830889
0.926852
0.877976
1.054406
0.943542
1.319647
1.641512
4.496574
22.040606
53.519607
134.313703
236.538649
427.469015
594.202876
794.378519
893.690586
915.492773
844.940543
664.113760
505.322814
304.314494
183.755755
79.510808
39.451718
19.727945
22.159815
34.881830
46.565533
67.315698
84.821582
102.265477
111.397505
112.200975
105.515718
89.519620
74.141622
50.708652
37.415624
23.661852
16.412735
10.365844
8.224845
6.804466
6.744862
6.676912
6.550550
6.688833
7.029772
7.310510
7.684827
7.833838
8.023977
7.912517
8.157492
8.347631
8.199811
8.353591
8.317828
8.220673
8.082986
8.195639
8.517504
8.397698
8.741617
8.696914
8.861423
8.453727
8.639693
8.528829
8.630753
8.350611
8.592606
8.429885
8.418560
8.523464
8.195639
##ZVALUE=295
0.554919
0.539422
0.564456
0.447631
0.551939
0.519753
0.540614
0.445843
0.548959
0.506639
0.544786
0.490546
0.620484
0.566840
0.676513
0.811815
0.720620
0.770688
0.611544
0.828505
0.846982
1.005530
0.782609
0.804663
0.964999
1.070499
1.065731
1.309514
1.326799
2.404451
8.207560
36.231875
82.017779
194.262862
319.429636
524.621010
682.705641
856.466889
918.478966
879.444480
776.850581
578.773618
412.881970
224.253535
125.857592
47.775507
22.931695
15.032887
19.402504
30.853748
43.000579
62.255859
78.389645
95.697641
104.134679
106.693506
100.369453
85.179806
71.058869
51.121712
37.041903
22.591949
15.339851
9.918809
7.802844
7.029772
6.333590
6.482601
6.679893
6.855726
7.249713
7.593632
7.720590
7.973909
7.889867
7.596612
8.120537
7.900000
7.981658
8.340478
8.387566
8.127689
8.187890
8.688569
8.498430
8.757710
8.700490
8.570552
8.359551
8.325577
8.171797
8.667707
8.442998
8.630753
8.208752
8.460879
##ZVALUE=300
0.516772
0.493526
0.498891
0.383854
0.591874
0.491738
0.479817
0.503659
0.479817
0.450611
0.501871
0.643730
0.430942
0.548959
0.609756
0.561476
0.565648
0.609756
0.633597
0.729561
0.836849
0.615716
0.691414
0.886917
0.965595
0.789762
0.807643
1.053810
1.037717
1.078844
1.096725
1.379848
4.451871
15.495420
56.234598
116.719604
254.181623
399.713516
622.127652
767.138004
900.735855
925.385952
840.264559
709.166527
489.416718
329.245925
169.861913
92.300773
34.089684
15.335679
12.396574
16.408563
26.712418
37.728548
54.955482
71.103573
89.118481
98.046660
100.906491
97.322464
84.482431
70.549846
51.198602
37.908554
23.113489
16.297698
10.203719
7.969737
6.854534
6.870627
7.031560
7.098913
7.020831
7.491708
7.224679
7.615685
7.677674
7.560849
7.982850
8.127689
8.237958
8.206964
8.556843
8.380413
8.511543
8.501410
8.380413
8.411407
8.503795
8.379817
8.319616
8.277893
8.340478
8.196831
8.242726
8.235574
##ZVALUE=305
0.460744
0.516772
0.562668
0.526905
0.520945
0.653863
0.450611
0.441670
0.487566
0.496507
0.443459
0.467896
0.487566
0.583529
0.609756
0.624657
0.529885
0.354648
0.648499
0.483990
0.620484
0.678897
0.677705
0.818968
0.794530
0.696778
0.714660
0.888705
0.894666
0.856519
1.081824
1.138449
1.075864
1.379848
2.018809
10.058880
29.680729
92.113614
174.278021
340.439677
500.367880
719.636679
855.506659
938.647985
912.726521
756.483674
607.197881
396.165848
253.296494
118.289590
57.194829
19.097924
9.905696
10.638833
15.301704
24.870634
36.104918
53.343773
67.002773
84.441900
92.173815
95.841885
92.038512
79.855919
67.368746
49.340725
35.787821
22.707582
15.531778
10.489821
8.510947
7.359982
7.203817
7.305741
7.011890
7.163882
7.323623
7.541776
7.625818
7.908940
8.020997
8.137822
8.060932
8.459687
8.316636
8.233786
8.210540
8.403659
8.291602
8.387566
8.413792
8.175969
8.027554
8.161664
8.080602
8.058548
##ZVALUE=310
0.478625
0.363588
0.470877
0.447631
0.425577
0.365973
0.639558
0.420809
0.446439
0.498891
0.497699
0.416636
0.434518
0.527501
0.565648
0.533462
0.379682
0.567436
0.451803
0.546575
0.701547
0.678897
0.671744
0.667572
0.694990
0.859499
0.522733
0.722408
0.842810
0.822544
0.851750
0.846982
0.981688
0.910759
1.067519
1.220703
1.335740
4.264712
14.475584
52.627921
110.661983
243.424773
385.574698
606.905818
770.653486
924.930573
952.797532
873.270631
743.799806
521.948934
355.003476
182.367563
97.107887
34.200549
14.252663
8.129478
9.170771
13.743639
19.837618
32.046437
44.596791
62.117577
74.344873
86.154938
89.788437
87.133646
79.691410
65.242648
51.387548
35.052896
25.351644
16.279817
11.602640
8.448958
7.583499
7.317662
7.046461
7.129908
7.272959
7.437468
7.660985
7.631779
7.863641
7.934570
8.063912
7.992983
8.060932
8.226633
8.260608
8.084774
8.131862
8.174777
8.052588
7.955432
8.099675
8.097887
##ZVALUE=315
0.458956
0.512600
0.346899
0.580549
0.634789
0.479817
0.524521
0.496507
0.533462
0.486970
0.462532
0.393987
0.455976
0.544786
0.417829
0.408888
0.568628
0.558496
0.561476
0.552535
0.592470
0.727773
0.541806
0.704527
0.502467
0.660419
0.592470
0.762939
0.623465
0.654459
0.827909
0.756979
0.823736
0.856519
0.878572
0.998974
1.012683
0.966787
1.249909
2.088547
7.007718
31.957626
74.167848
180.462003
310.283899
539.597869
702.547431
885.379910
969.444513
952.482820
855.770707
641.023517
466.345549
253.519416
138.819814
50.230622
20.639896
8.289814
7.201433
8.742809
11.832714
19.473433
27.861595
41.874647
54.523945
71.158409
80.333948
84.961653
84.549785
74.738860
63.994527
48.568845
36.406517
23.034811
16.260743
11.096597
9.111762
7.634759
7.595420
7.475615
7.280707
7.619858
7.587671
7.537603
7.616878
7.992983
7.782578
7.815957
8.047819
8.294582
8.109808
8.330941
8.085966
7.878542
7.639527
7.923841
##ZVALUE=320
0.342727
0.324845
0.522733
0.388622
0.454783
0.344515
0.414848
0.466704
0.305772
0.324845
0.411868
0.367761
0.540614
0.500679
0.578761
0.535846
0.506639
0.527501
0.441670
0.436902
0.496507
0.452995
0.299811
0.580549
0.488758
0.764728
0.548959
0.612736
0.658631
0.653863
0.854731
0.646710
0.708699
0.665784
0.842810
0.818968
0.876784
0.888705
0.984669
0.963807
1.081824
1.378655
3.205538
17.818809
47.040582
129.158497
227.773786
408.317447
569.402575
777.744651
891.498923
940.148830
889.177918
720.523000
548.799634
322.020650
185.750723
76.657534
35.092831
11.423826
6.978512
6.930828
7.814765
11.059642
16.476512
26.823878
37.194490
52.565932
64.691901
76.146722
81.184506
78.702569
73.029995
58.650970
47.920942
34.012794
24.600625
15.788674
11.759996
9.013414
7.989407
7.663965
7.755756
7.394552
7.810593
7.730722
7.697940
7.702708
7.726550
7.717609
7.714629
7.652640
7.777810
7.743835
7.913709
7.650852
##ZVALUE=325
0.431538
0.499487
0.423789
0.410676
0.288486
0.317693
0.318885
0.292659
0.432730
0.397563
0.434518
0.433922
0.546575
0.501871
0.390410
0.319481
0.598431
0.506639
0.477433
0.558496
0.461936
0.445843
0.479817
0.568628
0.602603
0.423789
0.363588
0.518560
0.578761
0.651479
0.593662
0.675917
0.732541
0.735521
0.628829
0.777841
0.731945
0.814795
0.935793
0.820756
0.776649
1.080632
1.143813
1.226664
2.142787
7.496476
33.018589
74.818730
178.325772
303.644538
515.403748
675.945878
854.391456
925.212502
901.905894
798.588991
581.736565
416.721702
229.497552
129.634738
48.176646
19.702911
7.439852
6.004572
6.276965
7.699728
10.883808
16.062856
26.409626
37.260652
51.355958
62.195659
72.476864
76.536536
74.620843
68.820715
56.948662
45.164824
31.321645
23.035407
15.011430
11.685491
9.073615
8.238554
7.634759
7.666945
7.658601
7.591844
7.444620
7.600784
7.442832
7.616878
7.469654
7.722974
7.563829
7.537603
##ZVALUE=330
0.414848
0.391603
0.382662
0.407696
0.361800
0.465512
0.450611
0.275970
0.342727
0.262856
0.481606
0.409484
0.346899
0.464916
0.453591
0.496507
0.351667
0.392795
0.380874
0.427961
0.555515
0.455976
0.439882
0.457764
0.585914
0.436902
0.615716
0.544786
0.639558
0.562668
0.616908
0.565648
0.540614
0.588894
0.605583
0.721812
0.790954
0.706911
0.590682
0.770688
0.844598
0.870824
0.982881
1.033545
0.931621
1.312494
1.252890
4.215837
15.029907
54.548979
114.174485
246.305466
384.601951
602.702498
760.955811
907.605886
931.097865
845.552683
708.470941
484.467745
324.012637
156.406760
79.799891
27.096868
11.093616
6.269813
6.042719
6.218553
7.550716
10.835528
15.048981
23.955703
33.322573
47.671795
57.643652
67.553520
71.653724
69.999695
64.417720
52.715540
42.872429
29.884577
23.237467
15.983582
12.141466
9.440780
8.071661
7.500648
7.625818
7.286668
7.309914
7.155538
7.232428
7.412434
7.089972
7.382631
##ZVALUE=335
0.211596
0.305772
0.246763
0.224710
0.315905
0.394583
0.508428
0.335574
0.488758
0.491738
0.469685
0.334978
0.347495
0.508428
0.477433
0.429749
0.524521
0.416636
0.293851
0.549555
0.518560
0.426769
0.442863
0.365973
0.467896
0.572801
0.513792
0.517964
0.518560
0.423789
0.459552
0.539422
0.572801
0.545979
0.619888
0.562668
0.577569
0.698566
0.531673
0.743866
0.736713
0.607967
0.844598
0.882745
0.979900
0.900626
0.936985
1.008511
1.059771
1.957417
7.073879
32.182932
73.384643
179.125667
306.830406
526.046753
703.812838
893.766880
962.731838
934.382677
828.042030
604.331493
427.563787
231.010914
122.470856
41.474700
16.150475
7.006526
5.914569
6.070733
6.295443
7.847548
10.176897
16.005635
22.284985
33.013821
42.983890
55.619478
63.214898
67.745447
66.719651
59.621930
52.512884
41.704774
32.398701
22.465587
16.805530
11.555552
9.384751
8.303523
7.313490
7.223487
7.058978
6.915927
7.013679
7.055998
##ZVALUE=340
0.332594
0.325441
0.225902
0.540614
0.245571
0.298619
0.393987
0.319481
0.347495
0.211596
0.351667
0.336766
0.421405
0.250936
0.349879
0.278950
0.318885
0.410676
0.427961
0.484586
0.362992
0.436902
0.490546
0.464916
0.313520
0.391603
0.367761
0.494719
0.459552
0.544786
0.474453
0.397563
0.518560
0.521541
0.440478
0.504851
0.581741
0.551939
0.555515
0.684857
0.593662
0.670552
0.556707
0.714660
0.830889
0.794530
0.593662
0.876784
0.939965
0.977516
1.171827
1.398921
3.474951
18.721819
50.558448
137.714744
246.051550
437.940955
606.012940
811.667442
921.209455
948.526859
876.526833
697.549582
516.732931
285.839438
159.931779
63.091516
24.131536
7.918477
6.160736
6.025434
5.953908
6.397963
7.248521
10.354519
14.411807
22.016764
30.095577
42.717457
51.505566
60.197711
63.497424
62.499642
58.219433
49.788952
41.024685
30.525923
23.288727
16.001463
12.164712
8.949637
7.863641
7.002950
6.679893
6.823540
##ZVALUE=345
0.310540
0.448823
0.337958
0.384450
0.324845
0.331998
0.368953
0.366569
0.373721
0.256896
0.295639
0.366569
0.395775
0.422597
0.346899
0.440478
0.267625
0.444651
0.476837
0.318885
0.391603
0.418425
0.351667
0.496507
0.498891
0.299811
0.398755
0.344515
0.414848
0.634789
0.417829
0.286698
0.474453
0.345707
0.426769
0.501871
0.523925
0.545979
0.546575
0.464916
0.443459
0.657439
0.553727
0.499487
0.641942
0.772476
0.554919
0.597835
0.619888
0.874996
0.868440
0.950694
1.102686
1.206994
2.081990
7.695556
36.193728
81.203580
187.739730
307.012796
513.832569
671.244860
835.686922
892.658830
852.320790
742.760897
539.100766
370.714664
180.738568
89.775920
28.690696
12.138486
6.566644
6.092787
5.700588
5.665421
5.794764
6.611943
9.510517
13.191700
20.557642
27.914643
37.671924
45.632720
54.215789
58.028698
58.217645
55.053830
47.302842
39.691925
29.946566
22.789836
15.532970
11.586547
8.883476
7.528663
##ZVALUE=350
0.315905
0.322461
0.283718
0.385642
0.456572
0.325441
0.331998
0.349879
0.328422
0.311732
0.398755
0.304580
0.380874
0.459552
0.303984
0.246763
0.502467
0.406504
0.281930
0.371933
0.398755
0.438690
0.332594
0.304580
0.429749
0.551939
0.431538
0.452995
0.404716
0.609756
0.699759
0.323653
0.431538
0.662804
0.513792
0.386834
0.474453
0.527501
0.587702
0.541806
0.289679
0.555515
0.408888
0.513792
0.596642
0.621676
0.576973
0.662804
0.632405
0.724792
0.776649
0.760555
0.888705
0.909567
0.928640
1.145601
1.205802
4.732609
16.293526
58.144927
121.804476
267.357826
408.712626
608.798862
752.565861
874.942541
880.123973
771.870017
623.720884
406.249762
255.554914
118.299723
54.478645
15.080571
7.145405
5.441904
5.432963
5.321503
5.259514
5.703568
6.448627
8.927584
12.035966
18.070936
23.854971
33.325553
40.390491
47.997832
51.753521
53.201914
50.842762
44.094920
37.817955
28.642416
22.479892
15.602708
##ZVALUE=355
0.315905
0.352859
0.393987
0.214577
0.250936
0.348687
0.184774
0.404716
0.436902
0.255704
0.331998
0.480413
0.257492
0.359416
0.320673
0.437498
0.481606
0.365973
0.458956
0.429749
0.388622
0.416636
0.344515
0.364780
0.451803
0.413656
0.535846
0.445843
0.435710
0.515580
0.450611
0.489950
0.416636
0.582933
0.475645
0.399947
0.576973
0.612736
0.617504
0.502467
0.652671
0.515580
0.695586
0.524521
0.600815
0.696778
0.503659
0.708699
0.582933
0.666976
0.669956
0.791550
0.751615
0.775456
0.842810
0.889897
0.954866
1.063943
1.278520
2.371669
8.624792
37.930608
84.169507
192.661881
322.049856
532.702804
684.200525
829.733610
874.684453
809.957981
688.547492
488.992929
322.394967
150.098801
73.114634
21.783710
9.126663
5.556941
4.985929
4.984736
5.090833
4.962683
5.204678
5.892515
7.265806
10.929704
14.848709
21.386743
27.714968
36.258698
42.259693
47.885776
48.720837
46.749711
41.879416
34.857988
##ZVALUE=360
0.281930
0.356436
0.355840
0.475645
0.407696
0.256896
0.223517
0.303984
0.448823
0.545979
0.323653
0.361800
0.389814
0.321865
0.334978
0.303984
0.255704
0.460744
0.373721
0.312924
0.530481
0.329614
0.387430
0.498891
0.377893
0.372529
0.480413
0.447631
0.401735
0.502467
0.406504
0.332594
0.480413
0.429749
0.438690
0.495911
0.479817
0.549555
0.556707
0.478625
0.568628
0.584722
0.599623
0.573993
0.567436
0.484586
0.640750
0.578761
0.624657
0.496507
0.771880
0.575781
0.734925
0.696778
0.657439
0.817776
0.893474
0.996590
1.056790
1.178980
1.256466
1.539588
3.742576
18.188953
49.114823
135.978460
240.347981
423.008800
592.320561
783.537626
867.115855
866.512656
780.421495
580.046773
411.499739
214.838982
115.084648
42.736530
15.993714
5.928874
5.046725
4.864931
4.771948
4.600883
4.668832
4.618764
5.282760
6.389618
8.412600
12.294650
16.669631
24.529696
30.076504
37.179589
41.412711
44.443607
##ZVALUE=365
0.385642
0.279546
0.420809
0.222921
0.456572
0.299811
0.354648
0.407696
0.418425
0.364780
0.481606
0.277758
0.402927
0.426769
0.304580
0.429749
0.385642
0.440478
0.498891
0.376701
0.374913
0.324845
0.306964
0.259876
0.406504
0.472665
0.308752
0.289679
0.386834
0.368953
0.653863
0.443459
0.351667
0.643730
0.510812
0.329614
0.500679
0.503659
0.371933
0.401735
0.440478
0.572801
0.704527
0.450611
0.529885
0.589490
0.534654
0.522733
0.545979
0.596642
0.486970
0.581741
0.568628
0.694990
0.535846
0.603795
0.750422
0.781417
0.977516
0.846982
0.870824
1.115799
1.064539
1.301765
1.760721
9.625554
28.929710
85.317492
170.614719
345.547795
497.632623
694.059730
814.716816
870.008469
811.562538
638.929605
479.514003
281.724930
157.842636
58.470964
22.545457
6.829500
4.785657
4.655719
4.445910
4.265904
4.295707
4.171729
4.044771
4.568696
5.213618
7.425547
9.867549
14.816523
19.532442
26.836991
##ZVALUE=370
0.264645
0.316501
0.465512
0.343919
0.262856
0.290871
0.301600
0.329614
0.313520
0.288486
0.273585
0.248551
0.404716
0.267625
0.144839
0.349879
0.251532
0.367761
0.316501
0.409484
0.341535
0.327826
0.395775
0.458956
0.469685
0.513792
0.433922
0.349879
0.394583
0.412464
0.324845
0.455976
0.486970
0.515580
0.489950
0.450611
0.547767
0.497699
0.437498
0.548959
0.634789
0.361800
0.483990
0.629425
0.629425
0.474453
0.612736
0.522733
0.482798
0.534654
0.479817
0.502467
0.440478
0.614524
0.646710
0.670552
0.764728
0.588894
0.751615
0.679493
0.665784
0.772476
0.948906
0.956655
0.997782
1.152754
1.424551
3.657937
20.809770
56.235790
147.574544
253.861547
440.540910
603.623986
782.617927
851.943493
824.643970
714.854002
510.416627
348.839760
172.439814
90.779662
33.494830
12.812614
4.971623
4.248619
3.934503
4.115701
3.934503
3.846884
3.749728
3.721714
3.932714
4.763603
6.299615
8.499622
##ZVALUE=375
0.347495
0.331998
0.403523
0.300407
0.347495
0.248551
0.307560
0.320673
0.317693
0.357628
0.328422
0.266433
0.454783
0.349879
0.430942
0.521541
0.390410
0.352859
0.423789
0.409484
0.386834
0.343919
0.401735
0.323653
0.316501
0.264645
0.598431
0.276566
0.490546
0.434518
0.462532
0.473857
0.465512
0.330806
0.370741
0.369549
0.375509
0.408888
0.453591
0.461936
0.407696
0.454783
0.366569
0.377893
0.499487
0.433922
0.448823
0.445843
0.527501
0.532866
0.421405
0.527501
0.601411
0.489950
0.647902
0.575781
0.518560
0.540614
0.514984
0.537634
0.578761
0.740886
0.622869
0.667572
0.697970
0.880957
0.950694
1.094937
1.199841
2.548695
8.455515
34.519434
81.084967
200.578570
333.942771
550.175905
703.827739
837.032795
863.104463
770.938993
628.865957
407.692790
264.707804
126.948953
64.007640
19.859672
8.005500
4.306436
3.876686
3.667474
3.611445
3.791451
3.463626
3.415942
3.423691
3.738999
##ZVALUE=380
0.373721
0.274777
0.381470
0.157952
0.305772
0.277758
0.209808
0.295639
0.128746
0.439882
0.339746
0.397563
0.498891
0.285506
0.378489
0.331998
0.286698
0.317693
0.306964
0.424981
0.357628
0.309944
0.166893
0.190735
0.260472
0.403523
0.323653
0.291467
0.338554
0.519753
0.374913
0.553727
0.513792
0.403523
0.394583
0.485778
0.331998
0.496507
0.474453
0.395775
0.466704
0.382662
0.202656
0.445843
0.421405
0.259876
0.457764
0.418425
0.311732
0.487566
0.483990
0.475645
0.546575
0.547767
0.437498
0.523925
0.516772
0.551939
0.454783
0.458956
0.668764
0.540614
0.585914
0.586510
0.645518
0.664592
0.736713
0.951886
0.886917
1.121759
1.093745
1.651645
5.242825
18.019676
64.197779
128.283501
265.756845
414.158702
618.948936
743.792653
819.260478
794.319510
671.013594
532.930493
334.182978
207.515955
89.628696
40.980577
11.172891
4.770756
3.637671
3.437996
3.358722
3.182888
3.476739
3.075600
##ZVALUE=385
0.353456
0.431538
0.266433
0.298619
0.340939
0.333786
0.259876
0.236630
0.132918
0.409484
0.234842
0.179410
0.361800
0.284910
0.249743
0.365973
0.242591
0.292659
0.267625
0.420809
0.251532
0.278950
0.427961
0.346899
0.469685
0.337958
0.407696
0.320673
0.474453
0.345707
0.376701
0.594854
0.450611
0.264645
0.492930
0.453591
0.291467
0.435710
0.379682
0.282526
0.412464
0.358820
0.449419
0.364780
0.475645
0.309944
0.369549
0.374913
0.396967
0.459552
0.473857
0.373721
0.389814
0.470877
0.348687
0.486970
0.453591
0.452995
0.583529
0.633597
0.560880
0.421405
0.687838
0.761747
0.650883
0.689626
0.693798
0.658631
0.927448
1.030564
1.017451
1.023412
1.058578
1.215935
2.334714
8.040667
35.833716
85.262656
201.501846
330.386758
529.225469
661.051869
773.201585
797.464848
728.341937
613.500476
421.582460
284.650922
137.649775
69.059730
22.541881
8.020997
3.524423
3.176928
3.104806
3.092885
##ZVALUE=390
0.207424
0.307560
0.333786
0.053644
0.136495
0.321865
0.245571
0.358820
0.273585
0.255704
0.294447
0.222921
0.220537
0.336766
0.326633
0.201464
0.315905
0.449419
0.251532
0.327826
0.308752
0.507832
0.303984
0.363588
0.295639
0.287890
0.180602
0.422597
0.348687
0.539422
0.550747
0.469685
0.395775
0.427961
0.439882
0.364780
0.400543
0.504851
0.402927
0.556707
0.534654
0.559688
0.346899
0.381470
0.546575
0.541806
0.434518
0.393987
0.448823
0.456572
0.374913
0.422597
0.410676
0.369549
0.554919
0.517964
0.566840
0.378489
0.513792
0.352859
0.480413
0.442863
0.516772
0.623465
0.623465
0.671744
0.718832
0.769496
0.841618
0.851750
0.921488
0.935793
0.822544
0.797510
0.894666
0.922680
1.300573
4.325509
23.237467
59.724450
155.271888
260.635614
433.044434
573.740602
730.537772
795.015693
778.155923
695.161819
516.391993
369.133949
201.619864
108.134747
38.116574
13.870597
4.261732
3.215671
##ZVALUE=395
0.175834
0.123978
0.198483
0.213981
0.214577
0.128746
0.296831
0.278950
0.264645
0.300407
0.273585
0.139475
0.182986
0.174642
0.223517
0.289679
0.162721
0.250936
0.145435
0.259876
0.259876
0.278950
0.380874
0.413656
0.284910
0.255704
0.303984
0.273585
0.511408
0.293851
0.414848
0.605583
0.518560
0.474453
0.451803
0.561476
0.462532
0.428557
0.554919
0.505447
0.468493
0.516772
0.467896
0.397563
0.427961
0.434518
0.421405
0.403523
0.544786
0.497699
0.358820
0.382662
0.352859
0.365973
0.347495
0.442863
0.409484
0.408888
0.399947
0.487566
0.530481
0.374913
0.291467
0.393987
0.484586
0.654459
0.591874
0.618696
0.678897
0.725985
0.726581
0.686646
0.618696
0.838637
0.773668
0.741482
0.821948
0.902414
1.126528
2.955794
11.620522
47.794580
99.077821
205.285549
325.292945
517.446995
655.138493
782.629848
813.323855
745.649934
624.439716
423.270464
278.661847
130.309463
64.062476
20.922422
##ZVALUE=400
0.243783
0.149608
0.219941
0.257492
0.275970
0.270605
0.337958
0.374913
0.259876
0.196695
0.196695
0.309944
0.239611
0.202656
0.316501
0.318885
0.383854
0.234842
0.243783
0.239611
0.205636
0.368953
0.256896
0.219941
0.341535
0.339746
0.407696
0.355840
0.444651
0.449419
0.529885
0.509620
0.619888
0.600815
0.561476
0.478625
0.487566
0.369549
0.575781
0.553727
0.494719
0.551939
0.471473
0.360608
0.486970
0.538826
0.468493
0.324845
0.517964
0.488758
0.551939
0.503659
0.458956
0.420809
0.396967
0.525713
0.355840
0.405908
0.703931
0.521541
0.466704
0.584722
0.609756
0.750422
0.468493
0.572801
0.576973
0.789762
0.754595
0.787973
0.718832
0.721812
0.708699
0.745654
0.750422
0.779629
0.710487
0.765920
0.744462
0.933409
1.078844
1.498461
6.373525
20.476580
67.272782
133.029819
270.772576
402.745605
589.687824
703.915954
780.705810
762.920976
644.747019
508.517623
319.312811
202.111602
##END
