##TITLE=KDZ0151
##FORMAT=SPECTACLE-ASCII V-1.2
##DATA TYPE=ULTRAVIOLET SPECTRUM
##SECOND TYPE=ULTRAVIOLET SPECTRUM
##DATE=05/24/18
##TIME=18:46:08
##SPECTROMETER/DATA SYSTEM=SPECTACLE
##XUNITS=NM EM
##YUNITS=ENERGY
##YFACTOR=1
##FIRSTX=220
##LASTX=410
##NPOINTS=96
##3DDATA=Equidistant
##ZUNITS=NM EX
##FIRSTZ=210
##LASTZ=400
##ZPOINTS=39
##XYDATA=(Y..Y)
##ZVALUE=210
5.250573
5.318522
4.806519
4.799962
4.958510
4.187822
4.815459
4.949570
4.316568
3.694892
3.400445
3.258586
2.480745
2.795458
2.833605
3.586411
3.609657
3.642440
3.048778
3.900528
4.345775
4.328489
3.852844
4.357696
3.867745
4.291534
4.458427
6.004572
5.564690
5.274415
5.861521
5.902648
6.261468
5.924702
6.028414
5.831718
6.526709
6.589890
7.053614
6.733537
6.161928
7.193685
6.801486
7.097721
6.329417
6.596446
6.891489
7.595420
7.277727
7.183552
6.363988
6.787777
7.363558
6.580949
7.419586
7.344484
7.855892
7.098913
7.446408
7.512569
7.666945
8.243918
8.211732
8.699894
8.619428
8.969903
11.300445
14.976859
16.011596
18.024445
21.370649
21.971464
25.599599
27.211905
27.346611
27.010441
26.381612
24.335980
20.570755
20.946860
15.662909
14.123917
12.192726
9.739995
9.529591
8.116961
7.979870
8.660555
7.640719
7.958412
8.624792
8.679628
11.392832
11.507869
13.291836
15.307665
##ZVALUE=215
20.812750
20.573735
15.197992
12.589693
11.685491
10.386705
8.864999
10.267496
10.835528
9.695888
8.458495
7.011890
6.362796
4.668832
4.266500
3.558993
4.027486
4.302859
4.175901
4.521608
4.517436
4.819632
4.896522
4.825592
4.849434
5.605817
6.208420
6.278753
6.336570
6.068945
6.209612
5.786419
5.952716
6.819963
6.422997
7.152557
6.989837
7.060766
7.341504
6.460547
7.380843
6.958842
7.142425
7.275939
7.061958
7.621646
7.257462
8.348823
7.632971
7.765889
7.798672
7.749796
8.002520
7.851720
6.800890
7.609725
8.760691
9.093881
8.132458
8.100867
8.162856
8.963943
8.350611
9.265542
8.943677
10.399818
10.694861
13.418794
14.877915
16.967654
17.363429
22.456646
22.913814
26.349425
23.004413
23.273826
21.986961
21.432638
21.785498
18.714666
16.455650
12.880564
11.304617
10.297894
8.991957
8.749962
8.395910
7.128716
7.100701
7.838607
8.173585
7.078648
8.007884
7.347465
7.518530
10.249615
##ZVALUE=220
78.258514
74.018836
69.466829
58.461428
49.212575
36.485791
27.419925
22.832751
21.277666
20.715594
23.447871
22.526979
19.231439
18.659830
14.278889
11.657476
7.838607
5.844831
5.242825
4.473925
4.088879
4.378557
4.260540
4.849434
4.733801
4.772544
5.201697
5.826950
6.047487
5.751848
5.881786
6.730556
5.525947
7.935762
6.649494
7.260442
6.790757
8.516908
7.516742
6.780624
7.417798
6.928444
7.776618
7.526875
6.636977
6.713867
7.459521
7.652640
7.167459
7.509589
7.527471
8.118749
7.018447
7.736683
6.735921
6.862879
7.539988
7.683635
7.513762
7.143617
7.334948
8.326769
8.287430
8.374453
8.393526
9.420514
9.979606
12.300611
12.086630
14.899969
16.900897
19.105673
19.906759
20.314455
19.615889
21.244884
19.047856
18.244982
16.418695
14.442801
13.834834
11.888742
10.484457
9.758472
9.527802
8.340478
8.502603
7.677674
7.082820
6.604791
7.610917
7.210970
7.445812
7.417798
6.821752
7.907748
##ZVALUE=225
126.439929
127.153993
149.895549
162.448883
151.742697
137.151480
111.197829
83.853602
63.618422
48.555732
39.837956
36.783814
42.878985
41.507483
37.297606
35.100579
28.940439
21.695495
15.724897
10.113716
7.169843
4.960895
4.516840
4.557967
4.178882
5.128980
4.242659
4.375577
4.864931
5.514622
5.862713
6.217957
5.761981
6.482601
6.733537
6.579757
7.145405
7.314682
7.004738
6.477833
6.492734
6.853938
7.003546
6.588697
6.776452
6.896853
6.676912
6.664991
6.910563
6.663799
6.726980
7.318854
6.728768
6.622672
7.092953
6.231666
6.621480
6.288886
6.557703
7.594824
6.355643
6.815791
6.863475
8.090734
7.458925
8.870959
8.255839
10.588765
11.348724
13.816953
14.031529
14.997721
16.705990
16.815662
17.230511
16.168952
16.299486
15.419722
13.684630
12.125969
10.776520
9.669662
8.796453
8.873940
8.342862
7.895827
7.907748
6.998777
7.012486
6.945729
6.682873
6.725788
6.208420
6.243587
6.660819
6.732941
##ZVALUE=230
93.196630
102.527738
151.558518
225.646496
270.885825
298.751593
297.331810
264.371634
222.669840
178.253651
115.621686
85.421801
66.227913
61.644912
63.821673
65.475702
64.384937
60.164928
52.843690
41.417480
30.904412
18.925667
13.209581
7.341504
5.001426
4.991889
4.801750
4.646778
5.183816
4.826784
5.080700
5.364418
5.535483
5.502701
5.981922
5.637407
5.865693
5.582571
6.617904
6.673932
6.026626
6.792545
5.709529
5.943775
6.290674
6.682873
5.776882
5.876422
5.842447
6.142855
5.923510
6.189942
6.432533
5.837679
5.940795
6.140471
7.144809
6.087422
6.482601
6.390810
7.147789
7.065535
7.120967
7.037520
7.310510
7.457733
7.844567
9.123683
10.948777
12.505651
12.750626
14.075637
15.702844
16.353726
16.450882
15.825629
15.091896
13.312697
12.607574
11.413693
10.310411
8.976460
8.998513
8.372664
8.534789
8.280873
7.023811
8.602738
8.802414
7.385612
7.223487
7.387996
6.922483
6.837845
7.082820
7.298589
##ZVALUE=235
23.554564
27.420521
58.035851
135.060549
208.177567
307.765603
381.909013
456.754565
461.285710
440.562963
357.484818
277.518630
181.274414
130.999684
91.315508
79.014897
82.831979
88.409781
90.567470
89.029670
80.423951
64.242482
50.167441
31.538606
22.207499
13.665557
8.685589
6.010532
5.489588
5.077720
5.408525
4.738569
5.501509
4.876852
4.549623
4.617572
4.640818
5.142689
4.698634
4.849434
5.151629
4.832745
5.248785
4.936457
4.788637
5.111694
4.744530
5.013943
5.337596
5.466938
5.168915
5.040765
5.452633
5.308986
5.756617
5.574822
5.720854
5.642772
5.760789
5.493760
6.134510
5.860925
6.010532
6.310940
7.046461
7.239580
7.339716
8.754730
10.343790
11.155605
11.718869
13.159513
13.506413
12.830496
14.111996
13.545752
13.551712
11.881590
11.361837
10.396838
10.070801
8.914471
8.447766
8.574724
8.859634
8.199811
8.086562
7.384419
7.240772
7.354617
7.608533
7.291436
7.168651
6.787777
7.335544
7.255673
##ZVALUE=240
1.325607
1.730919
7.713437
22.040606
66.079497
124.979615
231.461525
337.583423
474.743843
544.211864
581.137538
550.150871
487.552881
370.384455
276.658535
171.258450
123.222470
91.211796
86.941719
93.733668
104.668736
108.786821
101.816654
89.562535
69.981813
54.982901
36.694407
24.163723
13.876557
9.359717
5.990863
5.747676
5.110502
4.854798
4.728436
4.950762
4.434586
4.878640
4.515648
4.286766
4.379749
4.230738
4.375577
4.364848
4.523993
4.653931
4.245639
4.473925
4.184842
4.239678
4.332662
4.213452
4.255772
4.337430
5.317926
4.889965
4.802942
5.114675
5.120635
5.168915
4.950762
5.450845
5.664825
5.671978
5.779862
6.672740
7.223487
7.745624
8.756518
9.312630
10.994673
11.951923
11.490583
12.577772
12.080669
12.062788
11.321902
10.459423
9.891987
9.208918
8.900762
9.088516
8.517504
8.025765
7.565618
7.562637
7.290840
7.180572
7.466674
6.977916
7.374883
7.327795
7.344484
7.229447
6.248951
7.217526
##ZVALUE=245
1.049638
0.999570
0.917912
1.291633
3.291965
17.234683
43.024421
114.441514
202.753544
306.121707
469.207764
574.948788
651.583672
654.505491
592.997670
501.119494
351.384878
257.689953
181.031823
112.459660
88.152885
89.272857
99.512935
111.114979
112.709999
105.693936
93.677640
75.106621
58.673620
38.689971
27.750731
16.151667
9.641647
6.448627
5.098581
4.868507
4.468560
4.352927
4.317760
4.094839
3.930926
3.952980
3.681779
3.972650
3.923774
4.414916
3.931522
3.737807
3.558993
3.738999
3.906488
4.025698
3.732443
3.689528
3.794432
3.860593
3.993511
4.294515
4.219413
4.159808
3.947616
4.621744
4.752874
4.672408
5.004406
5.290508
5.929470
6.618500
6.910563
8.179545
8.681417
9.507537
9.928942
9.757876
10.586977
9.522438
9.064674
8.923411
8.523464
8.104444
8.391738
7.508993
7.507801
7.083416
7.289648
6.939769
6.933808
7.179976
6.864667
6.866455
6.409883
6.529689
6.326437
7.065535
6.786585
6.575584
##ZVALUE=250
0.783801
0.770688
0.796914
0.843406
1.054406
1.098514
1.615882
9.530783
28.935671
84.196925
160.231590
308.326483
434.171557
586.922765
674.189925
724.731684
697.775483
623.277426
476.924777
355.190635
219.223499
138.829947
87.195635
78.017712
89.896917
102.290511
114.807487
116.712451
111.691952
100.393891
78.838468
62.138438
43.828487
26.686788
17.126799
9.093881
6.201863
4.703999
4.368424
3.978610
4.131794
3.877878
3.965497
3.792644
3.628731
3.882647
3.660917
3.408790
3.586411
3.638864
3.597736
3.352761
3.300905
3.159642
3.541708
3.521442
3.495812
2.990961
3.667474
3.611445
3.841519
4.233718
4.013777
3.774762
4.162788
4.580617
4.829764
5.249977
5.396605
6.729960
7.467866
7.641912
7.943511
8.639693
8.252859
7.726550
8.320808
7.511973
7.626414
6.976724
6.960630
6.303787
5.874634
6.200671
6.016493
6.275773
6.067753
6.127954
6.270409
5.964637
5.903840
5.901456
5.956888
5.801916
5.769730
5.823970
##ZVALUE=255
0.762939
0.751615
0.754595
0.856519
0.792742
0.912547
1.102686
0.939965
1.256466
3.650784
22.098422
54.536462
114.433765
241.548419
367.742777
554.415584
663.223863
766.157508
790.121555
715.614557
610.670447
474.973917
287.289619
183.630586
99.856853
76.004863
71.826577
82.579851
102.275610
113.662481
120.078921
114.491582
103.632808
82.587004
64.691901
42.293668
28.641820
15.994906
10.372996
5.698800
4.147887
3.508925
3.704429
3.560781
3.355742
3.513694
3.481507
3.403425
3.297925
3.430843
3.298521
3.369451
3.110766
3.395677
3.357530
3.266931
3.327727
3.130436
3.361702
3.264546
3.336668
3.529787
3.436804
3.308654
3.798604
3.911853
4.153848
4.549623
5.049706
5.749464
6.089807
6.738901
6.660819
6.585717
7.051826
6.904602
6.651878
6.379485
5.844831
5.624890
5.671978
5.665421
5.425811
5.521774
5.190969
5.247593
4.944801
5.199909
5.157590
4.926920
5.421638
5.203485
5.061626
5.309582
5.095601
5.099773
##ZVALUE=260
0.639558
0.594854
0.598431
0.507832
0.849962
0.658631
0.932813
0.912547
1.047850
0.970960
1.458526
1.999736
8.332729
36.618710
79.672933
184.145570
301.307440
489.254594
631.843805
800.084472
858.425498
852.118731
733.129978
593.371987
389.530659
261.872411
146.799684
89.997649
61.641932
64.968467
81.920624
99.377632
112.748742
120.893717
118.317604
103.718638
87.533593
64.454675
46.289563
27.948618
17.727613
9.919405
6.249547
4.141927
3.462434
3.481507
3.391504
3.312826
3.336668
3.306866
3.035665
3.128648
3.123879
3.296733
2.984405
3.156662
3.044605
3.251433
2.969503
3.020763
3.103614
2.885461
3.150702
3.201962
3.245473
3.641844
3.651977
4.070997
4.246831
4.970431
5.282760
5.696416
6.165504
6.299615
5.968809
5.323887
5.508661
5.306602
5.072951
4.812479
4.833937
4.422665
4.652739
4.612803
4.525781
4.703999
4.612803
4.653931
4.290938
4.671812
4.617572
4.501939
4.787445
4.755855
4.691482
4.517436
##ZVALUE=265
0.488758
0.759959
0.658631
0.796914
0.740886
0.762939
0.510812
0.621676
0.857711
0.846982
1.031756
1.094937
1.101494
1.389980
3.422499
21.013618
52.783489
134.252906
235.836506
434.846878
609.851480
766.374469
911.463499
935.173631
838.222504
715.850592
519.673824
362.309813
197.893977
120.093822
130.643845
52.556992
60.780644
83.843470
101.083517
117.810965
123.797655
117.590427
104.828477
82.816482
65.310597
43.022633
28.647780
15.412569
9.329915
5.419850
3.805757
3.370643
3.186464
3.277659
3.384948
3.266931
3.238916
3.170967
3.081560
3.293753
3.254414
2.955794
2.770424
2.878904
3.005862
2.856851
2.725720
3.026724
3.158450
3.574491
3.603697
3.934503
4.220605
4.767776
4.874468
5.233884
5.722642
5.501509
5.701780
5.168915
5.078912
4.711747
4.630685
4.332662
4.173517
4.045963
4.467964
4.284978
4.229546
4.026890
4.273653
4.359484
4.120469
4.178882
4.316568
4.311800
4.457831
4.353523
4.309416
4.412532
##ZVALUE=270
0.494719
0.435710
0.286698
0.514984
0.685453
0.659823
0.736713
0.661612
0.626445
0.691414
0.756979
0.728965
0.866652
0.916719
1.040697
1.433492
1.608729
8.389950
27.750731
90.923905
181.818008
316.487551
548.981428
729.492903
921.095014
984.145999
954.388976
856.452584
658.091903
494.467616
345.086455
177.828670
99.753737
49.978495
44.833422
61.234832
77.932477
100.657940
113.663673
120.558739
118.264556
105.807781
88.291764
63.721538
47.237873
27.495623
17.542839
10.011792
6.009936
3.852844
3.415942
3.149509
3.143549
3.004670
2.840757
3.269911
3.163815
3.140569
3.058910
3.141761
2.683997
2.896786
2.979636
2.767444
2.968907
3.221631
3.429651
3.714561
4.104972
4.424453
4.429817
4.920959
5.213618
4.998446
4.988909
4.749894
4.446507
4.411936
4.195571
4.065633
3.892779
3.835559
3.675818
3.710985
3.783703
3.940463
3.741980
3.606677
3.640652
3.709793
3.773570
3.881454
3.695488
3.787875
3.733635
3.689528
##ZVALUE=275
0.539422
0.432730
0.536442
0.605583
0.600815
0.695586
0.577569
0.586510
0.642538
0.675917
0.683665
0.737906
0.826716
0.747442
0.777841
0.953674
1.047850
1.079440
1.362562
3.965497
15.120506
43.837428
132.952929
254.371762
475.611687
643.888712
848.516822
970.260501
1015.696526
968.149900
809.497833
635.640621
453.226566
240.077972
136.483908
58.669448
37.971735
40.715933
55.389404
77.805519
94.127655
109.569430
116.978884
114.406943
104.799867
85.562468
68.192482
47.167540
31.872988
17.754436
10.882616
6.157756
4.202724
3.025532
2.874732
2.880692
2.975464
2.676845
2.828836
2.871752
2.903938
2.953410
2.821684
2.932549
2.924800
3.199577
3.226995
3.398657
3.594756
4.233718
4.495978
4.581809
4.931688
4.907846
4.775524
4.330873
4.139543
3.991723
3.868937
3.533959
3.622770
3.704429
3.694892
3.436804
3.530979
3.545880
3.329515
3.614426
3.567934
3.583431
3.357530
3.317595
3.439784
3.441572
3.514886
3.518462
##ZVALUE=280
0.402927
0.418425
0.458956
0.437498
0.526905
0.355840
0.573993
0.486970
0.658631
0.679493
0.721812
0.685453
0.727773
0.663996
0.812411
0.746846
0.739694
0.737906
1.044869
1.154542
1.265407
1.604557
8.823872
32.315850
105.739832
197.754502
374.715924
549.549460
786.646008
940.429568
1015.696526
1015.696526
947.314501
730.004907
543.661714
310.539007
184.159875
79.245567
41.195750
28.910637
35.953522
55.270791
72.218776
93.689561
106.949806
114.539862
113.019943
101.501942
87.768435
64.706802
48.891902
29.816628
19.376874
10.278821
6.172657
3.789663
3.128648
2.800822
2.852678
2.923608
2.757907
2.811551
2.987981
2.679825
3.078580
3.356934
3.232956
3.284812
3.538728
3.851652
3.962517
4.265904
4.284978
4.337430
4.427433
4.154444
4.053712
3.770590
3.877878
3.751516
3.635883
3.645420
3.415942
3.510714
3.199577
3.269911
3.251433
3.321767
3.345609
3.487468
3.419518
3.392696
3.479719
3.422499
3.356934
3.400445
##ZVALUE=285
0.444651
0.495911
0.336766
0.383854
0.373721
0.460744
0.348687
0.535846
0.418425
0.505447
0.505447
0.720620
0.652671
0.599623
0.597835
0.791550
0.736713
0.623465
0.861883
0.900626
0.915527
1.056790
1.107454
1.345873
3.799796
14.347434
55.151582
120.442510
267.627835
421.111584
660.808682
843.724608
1013.174653
1015.696526
1010.403633
893.383622
652.175546
454.401970
243.271589
139.217973
58.416724
28.804541
23.548603
32.485723
50.798655
67.181587
88.276863
101.177692
110.937953
110.937953
102.231503
88.784695
66.693425
50.988793
32.070875
20.085573
10.503531
6.598830
4.078746
3.363490
2.951622
3.066659
2.653599
2.998710
3.041625
3.122687
3.146529
3.261566
3.529787
3.872514
4.148483
4.310608
4.325509
4.210472
3.913641
3.751516
3.586411
3.607869
3.594756
3.338456
3.504753
3.310442
3.022552
3.241897
3.525615
3.100634
3.085732
3.133416
3.018975
3.246665
3.128648
3.107786
3.389716
3.279448
3.407598
3.319979
##ZVALUE=290
0.478625
0.356436
0.386834
0.442863
0.458956
0.307560
0.463724
0.376701
0.424981
0.698566
0.547767
0.590682
0.421405
0.585914
0.486970
0.562668
0.449419
0.562668
0.612736
0.790954
0.864863
0.592470
0.915527
0.974536
1.090765
1.313686
1.817942
5.488992
28.484464
71.417689
148.457885
323.059559
507.553816
781.150460
958.416462
1015.696526
1015.696526
974.171758
806.508660
552.741885
369.634628
186.039805
96.548796
35.775900
19.256473
21.262765
30.898452
47.100782
62.601566
83.665848
97.316504
107.213855
108.412504
99.775791
87.102652
65.179467
49.705505
30.802488
20.759702
10.942817
7.194877
4.010797
3.188848
3.071427
2.932549
3.069639
3.084540
3.223419
3.501773
3.802776
3.845692
4.019737
4.467964
4.207492
3.867745
3.760457
3.748536
3.522635
3.515482
3.373623
3.461838
3.332496
3.363490
3.345609
3.246665
3.291965
3.297925
3.203750
3.446937
3.281832
3.182888
3.265738
3.160834
3.348589
3.283620
3.359914
##ZVALUE=295
0.358820
0.439882
0.272989
0.382662
0.436902
0.432730
0.281930
0.231862
0.381470
0.338554
0.506639
0.455976
0.266433
0.356436
0.417829
0.456572
0.509620
0.404716
0.562668
0.637770
0.644922
0.770688
0.703931
0.741482
0.841618
0.914931
0.887513
1.146793
1.403689
2.185702
9.172559
43.084621
102.398992
253.528953
416.292548
681.960583
871.461630
1015.647650
1015.647650
1015.647650
924.999714
678.488612
477.593541
257.587433
140.848756
50.724745
22.867918
14.138818
17.975569
29.845834
40.599704
60.508847
75.060725
93.342662
101.772547
102.747679
97.045898
82.147717
67.157745
46.798587
32.991767
19.132495
12.449622
6.734729
4.778504
3.497601
3.177524
3.215671
3.276467
3.565550
3.928542
3.837943
3.959537
3.904700
4.043579
3.924966
3.434420
3.359914
3.416538
3.169775
3.216863
3.181696
3.160834
3.103614
3.219843
3.280640
2.989769
3.191829
3.135800
3.065467
3.066659
3.103614
3.195405
3.126860
3.161430
3.245473
##ZVALUE=300
0.340939
0.273585
0.196695
0.328422
0.365973
0.514984
0.294447
0.304580
0.352859
0.431538
0.496507
0.433922
0.319481
0.460744
0.393987
0.348687
0.607967
0.619888
0.579953
0.701547
0.684857
0.634789
0.718832
0.667572
0.674725
0.775456
0.866652
1.006722
1.141429
1.076460
1.208782
1.568794
5.488992
21.765828
78.436732
162.051916
343.701839
537.655950
808.447599
983.258486
1015.697718
1015.697718
1009.098887
861.563683
589.697957
392.172933
201.583505
107.689500
38.327575
15.887618
11.602640
15.830994
25.376678
36.330819
54.356456
70.290565
87.522864
95.486641
98.755956
93.823671
80.549717
67.072511
48.131943
34.784675
20.557642
13.295412
7.447600
5.135536
3.908873
3.625751
4.018545
3.880858
3.959537
3.882647
3.872514
3.729463
3.618598
3.498793
3.381968
3.315806
3.242493
3.365874
3.183484
3.196597
3.289580
3.263950
3.090501
3.374815
3.079772
3.174543
3.181696
3.337860
3.072619
3.137589
3.380775
3.480911
##ZVALUE=305
0.409484
0.318885
0.321865
0.277758
0.377893
0.334978
0.392795
0.297427
0.385642
0.436902
0.334978
0.456572
0.365973
0.490546
0.326633
0.382662
0.543594
0.386834
0.339746
0.524521
0.499487
0.463724
0.660419
0.560880
0.629425
0.747442
0.840425
0.868440
0.900626
0.871420
0.913739
1.118779
1.194477
1.396537
2.312660
14.666915
43.640733
130.204558
244.199038
470.560789
674.479604
943.489671
1015.696526
1015.696526
1015.696526
924.556851
731.966496
476.616621
300.906897
135.921836
65.944791
20.450950
10.000467
10.453463
14.553666
24.576783
35.028458
51.644444
66.479445
82.183480
89.639425
92.162490
89.584589
76.889992
64.458847
45.361519
32.807589
20.277500
12.886524
7.291436
5.470514
4.448891
4.000664
3.701448
3.785491
3.495812
3.327727
3.243685
3.301501
2.939701
3.128648
3.289580
3.254414
3.334880
3.429651
3.314614
3.167987
3.268719
3.141761
3.140569
3.165603
3.072619
3.144741
3.230572
3.391504
3.296733
##ZVALUE=310
0.232458
0.378489
0.299811
0.271797
0.361800
0.307560
0.353456
0.267625
0.302792
0.263453
0.393987
0.295639
0.326633
0.333786
0.326633
0.475645
0.434518
0.442863
0.262856
0.529885
0.508428
0.550747
0.523925
0.517964
0.558496
0.662804
0.656843
0.632405
0.840425
0.741482
0.666976
0.851750
0.911951
0.907779
1.035929
1.117587
1.476407
4.504919
27.485490
67.806840
176.365972
313.408971
562.399626
772.343874
1008.296013
1015.697718
1015.697718
1015.697718
877.486467
671.795607
405.138731
242.513418
102.458596
45.333505
13.720989
7.948875
9.360909
12.455583
20.166636
29.547811
44.966936
58.424473
74.629784
83.083510
87.680817
85.630417
75.459480
64.268708
45.956969
33.109784
19.871593
13.560653
8.427501
5.757809
4.174709
3.757477
3.511906
3.288984
3.188848
3.185868
2.989769
2.995729
3.184676
3.033876
3.169775
3.151894
3.143549
3.133416
2.889633
3.145933
3.060699
3.432631
3.248453
3.307462
3.305674
3.054738
##ZVALUE=315
0.376701
0.310540
0.406504
0.358820
0.347495
0.252724
0.401735
0.418425
0.395775
0.285506
0.346899
0.399947
0.343919
0.343919
0.406504
0.346899
0.285506
0.335574
0.432730
0.343919
0.538826
0.476837
0.512600
0.504851
0.427961
0.615716
0.504851
0.544786
0.533462
0.573993
0.692606
0.631809
0.783801
0.724792
0.852942
0.962615
1.004934
1.217723
1.357794
2.842546
10.365844
47.455430
111.100674
266.918540
438.915491
717.494488
920.681953
1015.701890
1015.701890
1015.701890
1008.741856
768.581033
555.132627
304.368734
167.784691
60.528517
23.523569
7.975698
6.854534
8.442998
11.483431
18.668771
27.245879
41.687489
54.026842
69.278479
78.685880
82.737803
80.996752
71.464777
60.145855
45.125484
33.017993
20.411611
13.233423
7.606745
5.322695
3.800988
3.513694
3.354549
3.144741
3.196597
3.006458
3.153682
3.085732
3.011823
3.053546
3.060699
3.033876
3.101826
3.129840
3.163815
3.176928
3.285408
3.271699
3.180504
##ZVALUE=320
0.345707
0.342727
0.106692
0.180602
0.304580
0.412464
0.156760
0.323653
0.227690
0.367761
0.177622
0.231862
0.470877
0.282526
0.220537
0.196695
0.310540
0.359416
0.432730
0.308752
0.278950
0.516772
0.508428
0.502467
0.421405
0.518560
0.363588
0.465512
0.662804
0.618696
0.460744
0.683665
0.626445
0.865459
0.869632
0.856519
0.850558
0.813603
0.856519
1.058578
1.218915
1.625419
4.613996
26.625991
71.213841
196.089745
334.320664
571.945906
783.069730
1014.160514
1015.699506
1015.699506
1015.699506
892.077684
666.382909
384.122729
223.251581
94.278455
40.778518
11.511445
6.499887
6.284714
7.023811
10.775924
15.479922
25.384426
36.228895
52.028894
63.071847
74.877739
78.740716
76.480508
70.763826
55.969954
43.811798
29.548407
20.424724
12.227893
7.968545
4.942417
3.941655
3.385544
3.151894
3.247857
2.955794
3.111959
2.955794
2.968907
3.211498
2.982616
3.202558
3.255606
3.050566
3.014803
3.051758
3.229976
##ZVALUE=325
0.335574
0.062585
0.220537
0.263453
0.340939
0.418425
0.297427
0.376701
0.255704
0.439882
0.504851
0.319481
0.336766
0.182986
0.454783
0.397563
0.401735
0.253916
0.303984
0.350475
0.445843
0.480413
0.473857
0.505447
0.516772
0.563860
0.259876
0.396967
0.543594
0.564456
0.722408
0.715852
0.495911
0.817776
0.628829
0.705719
0.711679
0.712872
0.702739
0.921488
1.033545
0.982881
1.142621
1.163483
2.344847
17.032623
47.649741
130.929947
243.589878
477.928519
687.499642
969.496965
1015.701890
1015.701890
1015.701890
972.457528
759.489536
479.019880
296.716690
131.994486
61.947703
17.653704
7.811785
5.611777
5.713701
7.245541
9.792447
15.559793
23.362637
36.814809
47.991872
60.763955
69.088936
73.741674
71.970820
63.497424
53.467751
39.943457
29.301643
17.855763
11.953712
7.037520
5.194545
3.858805
3.447533
3.279448
3.154874
2.949834
3.070831
2.914667
3.017783
3.118515
3.008842
3.206730
3.013611
3.094673
##ZVALUE=330
0.329614
0.159740
0.260472
0.246763
0.333786
0.334978
0.264645
0.279546
0.192523
0.246763
0.273585
0.372529
0.257492
0.380874
0.301600
0.315905
0.294447
0.301600
0.215769
0.286698
0.332594
0.449419
0.372529
0.394583
0.489950
0.433922
0.379682
0.550747
0.382662
0.468493
0.587702
0.514984
0.557899
0.530481
0.614524
0.647902
0.637770
0.701547
0.677705
0.727773
0.851750
0.846982
0.895858
0.919700
1.231432
1.251698
1.713634
5.251765
27.651787
74.676871
194.584727
336.955786
589.371920
800.856948
1015.715599
1015.715599
1015.715599
1015.715599
854.687691
639.878511
368.853807
213.637948
86.837411
36.922693
10.006428
5.887747
5.255938
5.475879
6.840825
9.485483
15.715957
22.680759
33.936501
44.612885
56.777000
64.107776
68.740845
67.465901
59.491992
50.650835
36.879778
27.504563
17.793775
12.338758
7.671714
5.479455
3.789663
3.439784
3.304482
3.161430
3.097653
3.053546
2.883673
3.107786
2.901554
3.154874
##ZVALUE=335
0.312924
0.213981
0.339746
0.210404
0.188947
0.231862
0.168681
0.200868
0.210404
0.210404
0.306964
0.212789
0.241995
0.310540
0.253916
0.392795
0.384450
0.279546
0.407696
0.327826
0.309944
0.441670
0.417829
0.313520
0.289679
0.381470
0.338554
0.354648
0.385642
0.458956
0.336766
0.279546
0.486970
0.435710
0.507832
0.487566
0.558496
0.483990
0.645518
0.545979
0.636578
0.715852
0.682473
0.740886
0.987649
0.957847
1.114607
1.233816
1.378655
2.933741
11.573434
50.942898
113.278627
267.549753
444.861650
738.626719
954.104662
1015.707850
1015.707850
1015.707850
1000.902653
733.464956
510.471463
273.445845
143.178701
47.685504
17.825961
6.733537
5.328655
5.355477
5.708933
6.734729
8.661747
14.036894
20.766854
31.710863
40.979981
52.752495
59.862733
64.349771
62.989593
55.564642
48.096776
37.354827
28.511882
18.258691
13.041496
7.967949
5.714893
3.989935
3.583431
3.307462
3.199577
3.103614
3.222823
3.089905
##ZVALUE=340
0.273585
0.250936
0.117421
0.219941
0.227690
0.273585
0.249743
0.225902
0.059605
0.144839
0.094771
0.281930
0.339746
0.266433
0.334978
0.198483
0.272989
0.289679
0.222921
0.225902
0.336766
0.361800
0.359416
0.383854
0.237823
0.457764
0.383854
0.135899
0.306964
0.444651
0.521541
0.226498
0.543594
0.531673
0.506639
0.381470
0.547767
0.458956
0.513792
0.531673
0.444651
0.466704
0.520945
0.668764
0.578761
0.825524
0.858903
0.806451
0.932813
1.099706
1.157522
1.623631
5.237460
29.514432
78.614950
209.588408
367.595553
632.250905
855.069757
1015.697718
1015.697718
1015.697718
1015.697718
828.470588
599.122643
324.090719
183.173418
72.192550
27.077794
7.572770
5.756617
5.243421
5.214810
5.075932
6.017685
8.986592
12.640953
20.062923
28.638840
40.244460
49.332976
57.096481
60.098767
58.753490
54.423809
45.158863
37.183762
26.201606
19.067526
12.122989
8.274913
5.182624
4.177690
3.483891
3.323555
3.172755
##ZVALUE=345
0.054836
0.149608
0.266433
0.280738
0.240803
0.272989
0.299811
0.397563
0.116825
0.286698
0.204444
0.232458
0.174642
0.112653
0.265837
0.344515
0.453591
0.350475
0.178814
0.365973
0.340939
0.414848
0.336766
0.404716
0.366569
0.401735
0.353456
0.250936
0.281930
0.294447
0.267625
0.388622
0.339746
0.207424
0.444651
0.418425
0.374913
0.448823
0.464916
0.503659
0.453591
0.551939
0.572801
0.590682
0.629425
0.710487
0.615716
0.764728
0.673532
0.932813
0.894666
0.885725
1.018643
1.183748
2.503991
16.529560
49.808621
142.377615
265.187025
502.309799
717.508793
990.009904
1015.696526
1015.696526
1015.696526
936.567783
719.743967
437.279940
252.293944
98.373890
42.175651
12.355447
6.482601
5.746484
5.062819
4.644990
4.634857
5.475879
7.402897
11.917949
17.807484
27.528405
35.243630
44.686794
50.553679
54.719448
55.099726
50.203800
44.376850
35.116673
27.143955
17.975569
12.711883
7.769465
5.621910
4.113913
##ZVALUE=350
0.230670
0.140667
0.265837
0.208616
0.109673
0.299811
0.143647
0.252724
0.226498
0.397563
0.434518
0.322461
0.198483
0.150800
0.291467
0.388622
0.312924
0.263453
0.259876
0.142455
0.199676
0.274777
0.372529
0.288486
0.323653
0.313520
0.328422
0.504851
0.307560
0.372529
0.350475
0.379682
0.319481
0.341535
0.327826
0.498891
0.403523
0.380874
0.510812
0.455976
0.458956
0.405908
0.649691
0.550747
0.579953
0.635982
0.667572
0.666976
0.654459
0.821948
0.751615
1.062751
0.754595
0.987649
1.130700
1.206994
1.662970
8.071661
26.587844
89.803934
182.151794
389.049649
589.200854
870.774984
1015.697718
1015.697718
1015.697718
1015.697718
835.516453
519.545674
324.171782
149.862766
66.919923
17.096996
7.081628
5.075932
4.886985
4.286766
4.189610
4.157424
5.045533
7.311702
10.490417
15.922785
21.884441
31.132698
38.691759
45.985579
49.951673
50.605536
47.981739
41.169524
34.234524
24.550557
18.222928
12.145638
##ZVALUE=355
0.129938
0.212789
0.201464
0.106692
0.149608
0.227690
0.241995
0.155568
0.183582
0.259876
0.152588
0.201464
0.104904
0.170469
0.193715
0.272989
0.186563
0.284910
0.113845
0.303984
0.300407
0.131726
0.111461
0.240803
0.269413
0.197887
0.349879
0.251532
0.176430
0.221729
0.240803
0.339746
0.284910
0.221729
0.207424
0.318885
0.387430
0.435710
0.502467
0.340939
0.470877
0.434518
0.564456
0.387430
0.458956
0.495911
0.545979
0.571609
0.593662
0.699759
0.687838
0.779629
0.705719
0.737906
0.877976
0.776649
1.075864
1.141429
1.201630
3.367662
13.285875
57.504773
126.896501
288.480520
478.544831
785.423517
995.725989
1015.631557
1015.631557
1015.631557
940.662026
645.695925
418.750644
189.066529
89.382529
25.296807
9.081960
5.070567
4.556775
4.015565
3.957748
3.828406
3.935695
4.652739
5.685687
8.922815
12.872815
19.712448
25.763512
33.843517
40.260553
44.996738
46.341419
43.344498
39.134622
31.579733
##ZVALUE=360
0.297427
0.307560
0.291467
0.281930
0.275970
0.484586
0.377893
0.295639
0.226498
0.348687
0.294447
0.286698
0.275970
0.339746
0.258684
0.440478
0.301600
0.356436
0.289679
0.347495
0.310540
0.354648
0.343919
0.423789
0.361800
0.435710
0.363588
0.401735
0.285506
0.383854
0.441670
0.359416
0.332594
0.482798
0.476837
0.509620
0.445843
0.513792
0.520945
0.485778
0.643730
0.584722
0.605583
0.723600
0.553727
0.611544
0.553727
0.677705
0.585914
0.613928
0.805855
0.872612
0.790954
0.745654
0.866652
0.816584
1.075864
1.204610
1.216531
1.302958
1.513958
2.095699
5.612969
28.363466
75.792670
206.203461
357.806683
618.964434
856.686831
1015.734673
1015.734673
1015.734673
1015.734673
776.854753
537.377596
270.124674
138.816833
47.973990
16.721487
5.431771
4.759431
4.107952
4.149675
3.819466
3.641844
3.524423
4.034638
5.244613
6.753802
10.939837
14.997721
22.660494
28.575659
35.804510
40.059686
41.894913
##ZVALUE=365
0.339746
0.315905
0.222921
0.151992
0.368953
0.296831
0.310540
0.259876
0.224710
0.310540
0.395775
0.404716
0.375509
0.330806
0.450611
0.393987
0.431538
0.391603
0.302792
0.346899
0.252724
0.319481
0.422597
0.324845
0.329614
0.271797
0.332594
0.430942
0.401735
0.393987
0.295639
0.309944
0.439882
0.505447
0.411868
0.528693
0.439882
0.433922
0.455976
0.455976
0.443459
0.434518
0.553727
0.629425
0.601411
0.538826
0.607967
0.547767
0.494719
0.627637
0.544786
0.628829
0.600815
0.743866
0.717640
0.728965
0.781417
1.046658
0.866652
1.010895
1.068711
1.217723
1.384616
1.642704
2.708435
15.043616
45.025945
131.969452
259.855986
515.152812
728.333592
995.025635
1015.721560
1015.721560
1015.721560
915.057659
681.646466
389.612913
211.802721
74.912906
27.383566
6.704926
4.443526
3.953576
3.832579
3.582835
3.443956
2.999902
3.220439
3.373623
4.162788
6.262660
8.473992
13.534427
18.246770
24.715662
##ZVALUE=370
0.181794
0.216961
0.318885
0.228882
0.313520
0.280738
0.280738
0.302792
0.302792
0.352859
0.212789
0.204444
0.269413
0.195503
0.258684
0.177622
0.177622
0.244975
0.209808
0.239611
0.275970
0.110865
0.306964
0.305772
0.283718
0.379682
0.356436
0.284910
0.208616
0.248551
0.376701
0.428557
0.268817
0.393987
0.330806
0.274777
0.357628
0.371933
0.340939
0.454783
0.463724
0.434518
0.432730
0.458956
0.430942
0.366569
0.238419
0.449419
0.422597
0.404716
0.527501
0.596642
0.670552
0.585914
0.588894
0.653863
0.376701
0.801682
0.594854
0.908971
0.831485
0.787973
0.963807
0.994802
1.207590
1.369715
1.737475
7.638931
27.387738
96.226931
196.955800
404.707789
615.267754
914.779902
1015.696526
1015.696526
1015.696526
950.023532
734.720826
440.122485
258.220434
102.433562
44.079423
11.293888
5.092621
3.849864
3.603697
3.198981
3.313422
2.808571
2.772808
2.738833
2.879500
3.489852
4.939437
7.479787
##ZVALUE=375
0.334978
0.161529
0.258684
0.166893
0.227690
0.185966
0.225902
0.337958
0.166893
0.171661
0.237823
0.230670
0.150800
0.207424
0.240803
0.147820
0.190735
0.306964
0.206828
0.285506
0.315905
0.174642
0.207424
0.223517
0.301600
0.314713
0.167489
0.331998
0.240803
0.403523
0.299811
0.271797
0.230670
0.223517
0.315905
0.402927
0.451803
0.278950
0.355840
0.425577
0.316501
0.393987
0.372529
0.504851
0.316501
0.390410
0.375509
0.408888
0.435710
0.386834
0.416636
0.480413
0.434518
0.323653
0.647902
0.346899
0.319481
0.531673
0.620484
0.633597
0.719428
0.606775
0.695586
0.682473
0.892878
0.978708
1.056790
1.270771
1.506805
3.557801
12.735724
53.680539
127.449632
310.202837
507.028699
810.260773
1001.726985
1015.697718
1015.697718
1015.697718
851.577520
545.241833
356.154442
177.179575
88.279843
25.865436
8.691549
3.929734
3.492832
3.241897
2.954602
2.770424
2.634525
2.574921
2.621412
2.429485
##ZVALUE=380
0.288486
0.109673
0.308752
0.209808
0.288486
0.291467
0.191927
0.390410
0.158548
0.119805
0.231862
0.247955
0.209808
0.184774
0.196695
-0.062585
0.049472
0.181794
0.329614
0.095963
0.284910
0.076890
0.179410
0.216961
0.399947
0.216961
0.292659
0.328422
0.193715
0.156760
0.296831
0.181794
0.400543
0.406504
0.274777
0.309944
0.237823
0.319481
0.339746
0.363588
0.316501
0.195503
0.345707
0.335574
0.154972
0.383854
0.361800
0.329614
0.388622
0.326633
0.403523
0.294447
0.277758
0.480413
0.543594
0.331998
0.429749
0.478625
0.483990
0.537634
0.489950
0.554919
0.592470
0.562668
0.548959
0.686646
0.932813
1.051426
1.072884
1.213551
1.532435
2.099872
6.422997
35.960674
93.104839
242.369771
417.628884
702.368021
939.948559
1015.696526
1015.696526
1015.696526
992.193818
709.854960
489.555001
249.561667
130.697489
43.764710
15.896559
4.752874
3.417730
2.970695
2.981424
2.698898
2.647638
2.408624
##ZVALUE=385
0.153780
0.178814
-0.006557
0.090599
0.194907
0.163913
0.089407
0.211596
0.362992
0.274777
0.182986
0.313520
0.206828
0.225902
0.119805
0.233650
0.213981
0.275970
0.255704
0.249743
0.236630
0.311732
0.368953
0.255704
0.138879
0.187755
0.146627
0.259876
0.278950
0.393987
0.054836
0.264645
0.232458
0.479817
0.318885
0.320673
0.301600
0.402927
0.312924
0.265837
0.401735
0.372529
0.313520
0.281930
0.385642
0.404716
0.377893
0.150800
0.395775
0.191927
0.285506
0.415444
0.347495
0.426769
0.407696
0.270605
0.452995
0.494719
0.462532
0.390410
0.464916
0.505447
0.675917
0.574589
0.554919
0.668764
0.854731
0.829697
1.040697
1.042485
1.249909
1.125932
1.286864
1.400709
3.428459
13.223886
59.163570
139.863491
326.421857
527.962446
833.379030
1011.570692
1015.696526
1015.696526
1015.696526
916.426778
614.498854
403.437018
188.327432
92.096925
29.049516
9.216666
3.580451
2.988577
2.869964
2.495646
##ZVALUE=390
0.184774
0.200868
0.070930
0.307560
0.285506
0.304580
0.105500
0.166893
-0.001788
0.117421
0.171661
0.232458
0.328422
0.261664
0.183582
0.173450
0.334978
0.181794
0.188947
0.147820
0.241995
0.122786
0.154972
0.210404
0.110865
0.343919
0.202656
0.074506
0.156760
0.181794
0.193715
0.020862
0.177622
0.164509
0.222921
0.272989
0.349879
0.131726
0.140667
0.294447
0.232458
0.292659
0.346899
0.290871
0.203848
0.238419
0.325441
0.270605
0.379682
0.321865
0.328422
0.399947
0.228882
0.471473
0.312924
0.382662
0.414848
0.363588
0.425577
0.318885
0.409484
0.381470
0.515580
0.475645
0.610948
0.586510
0.565648
0.783801
0.771880
1.015663
1.149774
1.100898
1.094937
1.113415
1.032948
1.300573
1.777411
8.629560
32.582879
114.730000
235.724449
485.603809
701.880455
980.309844
1015.694737
1015.694737
1015.694737
1015.694737
847.515464
540.337563
323.652625
135.397911
59.508681
14.006495
4.819632
3.188848
##ZVALUE=395
0.098944
0.127554
0.209808
0.158548
0.161529
0.136495
0.133514
0.007749
0.121593
0.212789
0.114441
0.046492
-0.039935
0.032783
0.168681
0.143647
0.196695
0.119805
0.195503
0.008941
0.131726
0.185966
0.226498
0.215769
0.153780
0.073910
0.188947
0.140667
0.314713
0.125766
0.279546
0.162721
0.256896
0.227690
0.121593
0.238419
0.147820
0.029802
0.137687
0.164509
0.091791
0.210404
0.084639
0.270605
0.393987
0.197887
0.125766
0.243783
0.283718
0.194907
0.132918
0.237823
0.192523
0.214577
0.366569
0.235438
0.406504
0.263453
0.357628
0.320673
0.367761
0.415444
0.471473
0.562668
0.546575
0.593662
0.667572
0.976920
0.905991
0.957847
0.969768
0.763535
0.780821
0.659823
0.861883
1.041889
1.077652
1.173615
1.341701
4.473925
19.189715
79.105496
165.931582
351.388454
558.182597
884.181857
1015.633941
1015.633941
1015.633941
1015.633941
1006.086469
682.836771
443.320870
204.480886
98.786950
30.226707
##ZVALUE=400
0.193715
0.209808
0.184774
0.128746
0.173450
0.203848
0.143647
-0.022650
0.228882
0.188947
0.135899
0.275970
0.229478
0.172853
0.191927
0.156760
0.168681
-0.061989
0.144839
0.121593
0.173450
0.278950
0.162721
0.164509
0.015497
0.226498
0.117421
0.190735
0.240803
0.286698
0.203848
0.256896
0.266433
0.163913
0.108480
0.152588
0.141859
0.332594
0.175834
0.267625
0.197887
0.272989
0.198483
0.272989
0.120997
0.273585
0.244975
0.221729
0.342727
0.390410
0.382662
0.446439
0.257492
0.194907
0.407696
0.256896
0.251532
0.471473
0.439882
0.343919
0.417829
0.512600
0.579953
0.535846
0.622869
0.676513
0.713468
0.883937
0.800490
0.827909
0.874996
0.844598
0.762939
0.868440
0.756979
0.803471
0.953674
0.868440
1.014471
1.110435
1.323819
2.477765
9.197593
41.809678
101.265907
255.625844
435.128808
734.368563
965.393782
1015.697718
1015.697718
1015.697718
1015.697718
765.118599
531.806946
282.275677
##END
