##TITLE=DDW001
##FORMAT=SPECTACLE-ASCII V-1.2
##DATA TYPE=ULTRAVIOLET SPECTRUM
##SECOND TYPE=ULTRAVIOLET SPECTRUM
##DATE=02/08/18
##TIME=15:12:32
##SPECTROMETER/DATA SYSTEM=SPECTACLE
##XUNITS=NM EM
##YUNITS=ENERGY
##YFACTOR=1
##FIRSTX=220
##LASTX=410
##NPOINTS=96
##3DDATA=Equidistant
##ZUNITS=NM EX
##FIRSTZ=210
##LASTZ=400
##ZPOINTS=39
##XYDATA=(Y..Y)
##ZVALUE=210
13.035536
11.528730
11.007786
10.854602
9.057522
9.133816
8.782744
7.871985
5.592704
4.973412
2.873540
2.444983
1.951456
2.090931
1.574755
1.475811
1.362562
1.688600
1.969934
1.544952
2.144575
2.322793
2.045631
1.885891
1.832843
2.203584
3.044605
2.508759
2.205968
2.601743
2.137423
3.209710
2.890825
2.748966
3.292561
2.992749
3.163815
3.084540
2.866983
3.289580
2.885461
3.227592
3.757477
3.072619
3.347993
2.948642
2.849698
3.210902
3.066659
3.314614
3.141761
3.479719
3.835559
3.487468
3.538728
3.555417
3.011823
3.278852
2.540946
3.310442
3.503561
3.854632
3.110766
4.001856
3.236532
3.346801
3.587604
4.025698
4.370809
6.199479
5.715489
5.478859
6.558895
7.466674
7.299781
7.707477
7.842779
8.304715
7.693768
7.416606
6.772876
6.197691
4.871488
5.012751
4.909635
4.326701
3.126860
3.035665
3.711581
5.300641
6.503463
9.379983
11.579990
17.361641
19.710660
25.444627
##ZVALUE=215
33.620596
31.100512
25.144815
21.152496
19.234419
16.828775
15.395880
15.221834
13.539791
13.126731
11.990666
8.672476
6.466508
4.434586
3.137589
2.088547
1.928806
1.867414
2.156496
1.759529
2.172589
2.243519
2.138615
2.385974
2.309680
2.658963
3.183484
3.008842
2.378821
3.343821
3.157854
3.364682
2.944469
3.401637
3.160834
2.907515
3.756881
2.432466
3.713965
3.086925
2.891421
3.244877
3.661513
3.717542
3.413558
3.493428
3.899932
3.527999
3.667474
3.735423
3.141761
3.865957
2.923608
4.027486
3.066659
3.826618
3.105998
3.518462
4.316568
4.353523
3.628731
3.522635
3.683567
3.337860
3.735423
3.410578
3.963709
4.007816
3.867745
4.794598
6.041527
6.310940
6.576777
7.569790
8.132458
8.327961
8.037686
8.437634
7.956624
6.863475
6.307960
6.445646
6.152987
5.026460
3.860593
3.718734
3.866553
3.379583
3.456473
2.940893
3.042817
2.627969
3.327727
4.834533
4.959702
9.227991
##ZVALUE=220
71.123838
74.802637
71.230531
62.814951
52.202940
40.146708
35.833716
26.425719
23.854971
22.662878
24.785995
24.017692
19.510984
16.249418
13.015866
9.176731
5.902648
3.846884
2.777576
2.185702
2.043843
2.488494
2.129674
2.736449
2.850890
2.714992
2.349615
2.914667
3.823638
3.798604
3.050566
3.141761
3.737807
2.956986
3.235936
3.820658
3.304482
3.605485
3.354549
3.965497
3.714561
4.250407
4.033446
3.662705
3.054738
3.822446
3.558993
3.858805
3.469586
3.620982
4.192591
3.109574
3.769994
4.025698
4.260540
4.057884
3.239512
4.023910
4.354715
3.679991
3.418922
4.067421
4.478693
3.943443
4.285574
3.943443
3.788471
4.264712
5.120635
5.475879
5.360842
6.056428
7.916689
7.240772
7.250905
8.295774
8.072853
8.594990
7.407665
7.745624
8.334517
5.032420
5.633831
5.249977
4.589558
4.243851
4.265904
3.278852
3.022552
2.907515
3.070831
3.002882
3.636479
2.969503
3.172755
2.970695
##ZVALUE=225
94.645619
93.247890
114.572644
119.740963
119.969845
110.776424
93.617439
72.752833
57.319999
44.712424
39.808750
35.892725
38.524866
39.143562
35.898685
33.282638
24.145842
19.657612
14.060736
8.057952
5.529523
3.437996
3.730655
2.688766
2.666712
2.722740
3.173947
2.867579
4.060864
2.982616
3.443956
3.260970
3.667474
3.092885
3.894567
3.842711
3.922582
3.442764
4.320741
3.910661
4.251599
3.788471
4.357696
3.784895
4.184842
3.695488
4.184842
3.962517
3.591776
4.028678
4.258752
3.861785
4.149675
4.179478
4.066825
4.703999
4.175901
5.118847
4.732609
4.340410
4.977584
4.666448
3.653765
4.026890
4.369617
4.588962
4.576445
4.500747
4.294515
5.736947
5.597472
7.396936
6.870627
8.182526
8.349419
6.450415
8.014441
7.329583
7.399917
6.979704
6.942749
5.764961
4.911423
5.188584
4.082918
4.013777
3.822446
3.211498
3.794432
3.343821
4.030466
3.936887
3.365874
3.287792
3.620982
3.114939
##ZVALUE=230
66.300631
73.336959
107.533932
152.634978
179.046988
203.082561
210.045576
192.051530
168.808699
133.480430
92.470646
74.613690
60.116649
56.267977
58.244467
63.707829
62.668920
59.433579
46.874881
39.259791
26.833415
18.683672
10.259748
6.958842
4.272461
4.412532
4.429817
3.890991
3.735423
3.616810
3.177524
3.722906
3.894567
3.208518
3.956556
3.889799
3.966689
4.157424
3.882647
3.934503
3.911853
4.280806
3.978610
3.529787
3.488660
4.614592
4.725456
4.518628
5.019903
4.247427
4.421473
4.747510
5.090833
3.774762
4.256964
4.597902
4.514456
4.232526
4.219413
5.271435
4.619956
4.603863
4.517436
4.275441
4.451871
5.366802
4.791617
5.110502
5.657673
6.438494
6.835461
7.676482
7.734895
9.151697
8.646846
8.119941
9.466410
7.239580
8.164644
7.552505
6.204844
6.359816
5.658865
5.528927
4.998446
4.865527
4.415512
4.543662
4.489422
4.594922
4.492998
4.572868
4.937649
4.377961
3.628731
3.653765
##ZVALUE=235
19.654632
23.526549
45.928955
93.115568
139.963627
215.486884
274.322629
323.274732
333.760977
326.873660
278.450847
222.189426
149.481893
121.740699
90.580583
77.150464
81.963539
87.058544
91.207623
89.392662
80.829859
66.271424
53.207874
34.129620
22.795796
13.409853
9.771585
6.518960
4.976988
4.194975
5.034804
4.756451
5.467534
5.014539
4.870892
4.958510
5.268455
4.548430
3.810525
4.600883
4.500747
4.276633
4.789829
4.573464
4.584789
5.479455
5.070567
4.403591
4.750490
4.644990
4.891753
5.227923
4.287958
4.754663
4.617572
4.404783
5.012751
5.137920
5.316734
4.600883
4.562736
4.834533
4.341602
5.424619
5.097985
5.071759
6.030798
5.364418
6.128550
6.585717
7.902980
8.728504
7.718801
9.528995
9.415746
9.789467
9.873509
9.584427
8.504987
8.600950
7.485747
6.204844
6.821752
6.727576
5.773902
5.706549
5.550981
5.168915
4.462600
5.155802
5.413890
5.316734
4.289746
4.908442
4.572868
4.524589
##ZVALUE=240
1.501441
1.798868
4.461408
20.139813
44.064522
94.294548
152.351856
245.680809
323.402882
400.999784
438.178778
426.088572
368.790627
313.725471
227.342844
161.134005
108.080506
96.529722
89.795589
96.721649
109.504461
109.781623
106.770992
99.519491
73.664784
58.673620
43.238997
26.599765
19.636750
11.448860
7.740855
6.181598
6.717443
6.215572
5.190969
5.620718
5.112886
5.679727
4.742742
5.349517
4.956722
5.169511
4.511476
4.981756
4.775524
5.093813
4.721880
4.886985
4.528761
4.445910
4.628897
4.520416
4.034638
4.411936
3.801584
4.822612
4.420877
4.425645
4.724860
4.363656
4.265904
4.433990
4.209876
4.354715
5.062819
4.271865
5.143881
5.669594
5.564690
5.948544
6.992817
7.714629
8.032918
8.366704
9.260774
8.503795
8.306503
8.403659
7.485747
7.209778
5.842447
7.764697
6.777644
5.524755
5.790591
5.549788
5.506873
4.936457
5.253553
4.936457
4.875660
4.825592
4.668832
4.826784
4.304647
4.383922
##ZVALUE=245
0.980496
1.054406
1.235604
1.398921
3.298521
11.117458
37.494898
75.117946
154.772997
232.492685
347.677469
430.158973
489.603877
498.836637
467.901826
383.268595
309.245586
214.217901
149.522424
104.661584
88.897943
93.365908
106.528997
118.046999
123.034716
118.907690
103.827715
85.923672
63.753724
46.725869
31.653643
20.676851
14.629960
8.549690
7.693768
6.350875
6.313920
5.884767
5.301833
5.312562
5.568862
4.891753
4.477501
4.670620
4.437566
4.116893
3.891587
3.490448
3.918409
3.792644
4.146695
3.664494
4.283786
4.054904
3.735423
3.810525
3.594756
4.095435
3.936887
4.274845
4.090667
4.397631
4.281998
4.075766
3.782511
4.505515
4.578829
4.814863
4.882812
5.374551
6.395578
6.217957
6.925464
6.883740
7.831454
7.099509
6.898642
7.204413
6.093979
6.973743
5.731583
5.685687
5.793571
4.586577
4.752874
4.612803
4.222989
4.527569
4.761815
4.658699
4.148483
4.144907
4.039407
4.032850
3.587604
3.977418
##ZVALUE=250
0.888705
0.810623
1.016855
0.778437
1.178980
0.919700
1.513958
6.102920
27.612448
57.707429
134.710670
213.117599
303.900838
430.288911
506.013632
549.516678
547.710657
489.437580
405.711532
281.851888
194.417834
133.199692
92.115998
85.592866
99.110603
111.018419
127.896667
129.653811
123.603940
112.456679
95.592737
71.008801
53.160787
31.235814
20.872951
11.652708
8.721948
6.741881
6.046891
4.772544
4.885793
5.004406
4.816651
4.691482
4.422665
4.471540
4.138947
3.803968
3.583431
4.329681
3.613830
3.566742
3.239512
3.662705
3.494620
3.504753
3.115535
3.101826
3.905892
3.433824
3.330708
3.699660
3.796816
3.773570
3.823638
3.747940
3.473759
4.398823
4.395843
4.410744
4.837513
5.103946
5.346537
5.630851
6.334782
6.449819
5.614758
5.244613
5.337000
5.452633
4.834533
3.984571
4.126430
4.189610
4.059672
3.553629
3.504753
3.532767
3.683567
3.597736
3.363490
3.547668
3.434420
3.460646
3.466606
3.168583
##ZVALUE=255
0.794530
0.961423
0.876784
0.981688
0.841618
1.092553
1.020432
1.329780
1.431704
3.488660
17.267466
43.247938
85.071921
179.150701
274.726748
414.340496
513.030887
591.951013
617.402792
571.769476
497.921705
391.325951
246.665478
158.047676
97.417831
79.712868
80.423951
94.880462
115.596652
131.250620
132.052898
128.795505
118.902922
91.439486
74.723959
46.739578
33.999681
18.777847
11.740923
7.054806
5.339980
4.665852
4.391670
4.139543
4.265904
3.787875
4.501939
3.857613
3.597736
3.862977
3.645420
3.450513
3.293753
3.415942
2.708435
2.946854
2.821684
3.134608
3.141761
3.363490
3.268719
3.481507
2.999902
3.299713
3.187656
3.445745
3.113747
3.655553
3.952980
3.780723
4.289746
4.866719
4.612803
4.740953
4.939437
4.993677
4.639626
4.604459
4.277825
3.896952
3.788471
3.759861
3.594756
3.652573
3.518462
2.805591
2.919436
2.973676
3.052950
2.452731
2.735853
2.445579
2.413988
2.607703
2.297759
2.521873
##ZVALUE=260
0.717640
0.697970
0.631809
0.890493
0.691414
0.738502
0.920892
0.901818
0.859499
1.400709
1.117587
1.952648
7.115602
29.530525
61.849952
145.097971
233.763456
372.229815
481.708646
617.121458
671.119690
660.492778
582.541823
476.735830
320.196748
221.682787
128.438473
85.621476
67.690611
75.088739
98.309517
114.670992
131.715536
136.001706
131.376982
121.290684
92.983842
73.267817
48.726797
32.204986
18.761754
11.597872
6.525517
4.804730
3.823638
3.637671
3.391504
3.062487
3.449917
3.338456
3.603697
3.139973
3.396869
3.087521
2.795458
2.938509
3.128648
2.771616
3.094673
2.931952
3.168583
2.952814
2.925992
2.870560
2.921820
2.930760
3.208518
3.408790
3.342628
3.107786
3.561974
3.906488
4.009604
4.307628
4.032850
4.142523
3.884435
3.648996
3.525615
3.679991
3.809929
3.305674
2.710819
2.517700
2.774596
2.385974
2.406836
2.134442
2.293587
2.225637
2.428889
2.447963
2.378821
2.709627
2.680421
2.364516
##ZVALUE=265
0.755787
0.540614
0.501871
0.718832
0.805855
0.762939
0.671744
0.738502
0.849962
0.958443
1.286864
1.067519
1.013875
2.873540
4.210472
40.618777
44.566989
157.162547
195.672512
329.308510
463.824868
583.240986
708.182454
717.985630
649.865866
555.854440
410.262942
220.173597
170.481801
75.770617
64.272881
65.769553
76.217651
108.260512
132.928491
136.090517
139.151812
133.106709
115.286708
98.005533
69.410801
50.107837
29.607415
18.321872
9.868741
6.311536
3.638864
3.545880
3.201962
3.207922
3.326535
2.856851
3.001690
2.961755
3.350973
3.089905
2.746582
2.813935
2.800822
2.253652
2.888441
2.508759
2.549887
2.197623
2.337694
2.832413
2.912879
2.540946
3.010631
2.997518
3.344417
3.059506
3.498793
3.489852
3.655553
3.790855
3.454685
3.195405
3.197789
2.787709
2.871752
2.731681
2.548695
2.479553
2.066493
2.100468
2.419949
2.167821
2.193451
2.038479
2.129674
2.070665
2.220869
2.209544
2.165437
2.198815
##ZVALUE=270
0.569820
0.495911
0.638962
0.465512
0.701547
0.681877
0.569820
0.773668
0.534654
0.674725
0.879765
0.906587
0.998974
0.833869
0.909567
1.352429
1.763701
7.910728
23.507476
73.362589
145.948529
249.404907
430.442691
565.182567
707.034469
754.112601
733.060837
664.786696
514.993668
384.816527
266.435742
139.725804
82.443953
51.157475
52.610636
75.075626
94.887614
118.854642
131.844878
138.334632
132.504702
114.983916
97.048879
70.867538
51.313639
29.598475
18.988848
10.121465
6.258488
3.975630
3.302693
3.272891
3.198981
2.726912
2.983809
2.889633
2.916455
2.862811
3.307462
2.759695
2.538562
2.309680
2.580881
2.149940
2.409816
2.343655
2.282858
2.527833
2.392530
3.035665
3.019571
3.124475
3.155470
3.155470
3.313422
3.178716
3.074408
3.047585
2.899766
2.608895
2.567768
2.361536
2.423525
2.276897
2.303720
2.209544
2.083778
2.052784
1.871586
1.759529
1.873970
1.840591
1.742840
1.652837
1.918674
1.937747
##ZVALUE=275
0.357628
0.384450
0.446439
0.513792
0.584722
0.435710
0.665784
0.588894
0.513792
0.724792
0.565648
0.689626
0.751615
0.795722
0.785589
0.928640
1.083612
1.176596
1.266599
3.335476
13.948679
40.217638
113.129616
208.882689
380.638838
509.805679
660.301447
752.813816
780.846477
738.055706
646.805763
472.115874
334.515572
178.785920
103.223920
50.827861
40.635467
52.178502
70.737004
96.055865
113.482475
130.708814
136.037469
130.708814
117.251873
91.155767
71.976781
47.784448
33.068657
18.268824
11.539459
6.093979
4.176497
3.190637
3.018975
2.696514
2.617836
2.863407
2.798438
2.615452
2.636909
2.417564
2.491474
2.726912
2.498627
2.434850
2.298951
2.085567
2.418756
2.680421
2.765656
2.791882
2.853870
2.745986
2.949834
2.624989
2.817512
2.709627
2.556443
2.391934
2.032518
2.090931
2.225637
2.161860
1.788735
1.890659
1.997948
1.879930
1.696944
1.747608
1.819730
1.594424
1.572967
1.511574
1.526475
1.475811
##ZVALUE=280
0.744462
0.617504
0.457764
0.425577
0.537634
0.481606
0.719428
0.427961
0.593662
0.553727
0.458956
0.487566
0.891685
0.838637
0.781417
0.651479
0.825524
0.879765
1.197457
0.935793
1.143813
1.854897
6.990433
34.521818
78.792572
178.695917
287.955999
456.448793
586.534739
728.387833
787.402987
767.874718
694.844723
524.788499
392.891765
226.229429
132.254958
59.114695
37.439466
34.901500
47.071576
71.271658
91.820955
113.666654
128.929615
131.959915
128.105879
110.660791
93.380809
69.035888
50.296783
30.750632
19.264817
10.710955
6.144643
3.609657
3.150702
2.816916
2.524853
2.640486
2.461672
2.546906
2.309680
2.472997
2.443790
2.642870
2.308488
2.389550
2.625585
2.715588
2.658963
2.702475
2.867579
2.909899
2.785921
2.796650
2.339482
2.658963
2.607703
2.127886
1.973510
2.100468
1.757741
1.833439
1.706481
1.751781
1.839995
1.601577
1.634955
1.725554
1.704693
1.679659
1.571774
1.488924
1.600981
1.809597
##ZVALUE=285
0.439882
0.523925
0.528693
0.453591
0.553727
0.499487
0.458956
0.517964
0.703931
0.719428
0.575781
0.622869
0.595450
0.444651
0.667572
0.497699
0.714660
0.628829
0.665784
0.795722
0.913739
0.903606
1.088977
1.181960
4.081726
14.503598
48.950911
99.455714
211.748481
332.489610
471.329689
649.954677
748.910904
802.142620
756.541491
616.933703
487.079620
301.438570
188.072920
89.504719
47.740936
26.582479
29.504895
46.440959
63.571930
89.543462
107.710958
122.207999
129.252672
123.994946
113.389492
91.650486
74.530840
48.310757
33.677816
18.630624
11.142492
6.196499
4.085898
2.886653
2.556443
2.734661
2.575517
2.438426
2.508759
2.376437
2.398491
2.503991
2.585649
2.426505
2.454519
2.722740
2.735853
2.360940
2.598763
2.398491
2.579689
2.376437
2.279878
2.087951
2.122521
1.995564
2.179742
1.899600
1.896620
1.763701
1.630783
1.445413
1.611710
1.650453
1.504421
1.628995
1.707673
1.505613
1.664758
1.854897
##ZVALUE=290
0.390410
0.564456
0.421405
0.310540
0.485778
0.273585
0.480413
0.479817
0.544786
0.646710
0.631809
0.478625
0.488758
0.544786
0.580549
0.621676
0.611544
0.588894
0.664592
0.737906
0.853539
0.834465
0.868440
0.998974
1.085997
1.270771
1.996756
5.826950
26.801825
63.507557
124.368668
257.489681
393.753052
589.223504
709.149837
800.061822
789.760947
684.337616
561.575890
379.511714
248.838663
124.323964
65.745711
27.930737
20.512938
28.843880
41.679740
61.710477
80.123544
103.269815
117.330551
126.113892
122.049451
108.551979
91.831684
67.578554
49.211979
31.153560
19.588470
10.075569
6.330609
3.369451
2.735853
2.441406
2.583861
2.242923
2.063513
2.301931
2.255440
2.347827
2.362728
2.687573
2.389550
2.529621
2.695918
2.316833
2.410412
2.149940
1.967549
2.103448
1.855493
1.659989
1.782775
1.968741
1.843572
1.880527
1.678467
1.727939
1.488924
1.444817
1.357794
1.468658
1.598597
1.315475
1.506805
1.479983
##ZVALUE=295
0.244975
0.425577
0.518560
0.444651
0.523925
0.548959
0.370741
0.580549
0.441670
0.560880
0.562668
0.311732
0.391603
0.498891
0.492930
0.670552
0.674725
0.495911
0.492930
0.804663
0.734925
0.865459
0.698566
0.734925
0.766516
0.879765
1.027584
1.011491
1.315475
2.392530
13.591647
38.488507
86.604953
202.660561
323.714614
509.600639
644.614697
766.659975
796.125531
730.271935
630.540848
452.277660
310.767889
162.000656
89.549422
33.929944
19.303560
17.370582
23.908615
39.794445
54.300427
77.387691
94.102621
112.259984
118.048787
115.284920
104.196668
84.803700
67.797899
46.574473
32.248497
17.645955
11.288524
6.236434
3.761649
2.549887
2.302527
2.358556
2.426505
2.309680
2.601743
2.516508
2.494454
2.420545
2.127886
2.340674
2.371669
2.107620
2.107620
1.886487
1.965761
1.797676
1.686811
1.815557
1.689792
1.738667
1.605749
1.543760
1.652837
1.664758
1.350641
1.285672
1.521707
1.334548
1.308918
1.259446
##ZVALUE=300
0.329614
0.423789
0.372529
0.479817
0.432730
0.382662
0.607967
0.394583
0.250936
0.469685
0.401735
0.570416
0.426769
0.547767
0.446439
0.621676
0.507832
0.456572
0.449419
0.590682
0.581741
0.599623
0.857711
0.663996
0.560880
0.728965
0.707507
0.824928
0.812411
1.131892
1.253486
1.480579
5.740523
20.387769
68.963766
132.495761
270.255804
406.798720
593.463778
710.293651
789.510608
779.497623
674.151778
553.704500
370.891690
241.170526
118.550658
64.145923
24.281740
13.775826
15.357733
21.533966
36.529899
50.617456
72.574615
90.159774
106.029510
111.167431
109.569430
101.937652
84.814429
68.399906
46.610832
32.819510
18.911958
11.566877
6.037951
3.788471
2.660751
2.328753
2.055764
2.203584
2.404451
2.254844
2.071857
2.057552
2.032518
2.010465
1.928806
1.878738
1.905560
1.912713
1.738667
1.626611
1.472831
1.555681
1.561642
1.392961
1.618862
1.502633
1.505613
1.611710
1.647472
1.446605
1.361966
1.340508
##ZVALUE=305
0.476837
0.500679
0.420809
0.460744
0.517964
0.471473
0.378489
0.402927
0.464916
0.607967
0.513792
0.596642
0.588894
0.503659
0.446439
0.292659
0.447631
0.611544
0.630617
0.606775
0.597835
0.765920
0.643730
0.681877
0.726581
0.717640
0.668764
0.779629
0.816584
1.012683
1.179576
1.131892
1.141429
1.275539
2.378821
13.426542
36.717653
105.674863
188.554525
351.099968
491.678715
659.050941
743.512511
775.734782
721.514821
574.863553
447.869897
286.669731
177.348852
81.959963
40.037632
15.460849
10.408759
13.900995
19.790530
34.211874
48.584938
68.572760
83.720684
99.510550
106.689930
105.424523
96.518993
80.084801
64.284801
43.774843
30.820966
17.855763
10.879636
5.453825
3.650784
2.707839
2.534986
2.295971
2.219677
1.929998
2.007484
1.831651
1.967549
1.588464
1.805425
1.567602
1.886487
1.614690
1.861453
1.765490
1.616478
1.772642
1.581907
1.579523
1.434684
1.688600
1.547933
1.513958
1.503825
1.491904
##ZVALUE=310
0.449419
0.407696
0.360608
0.467896
0.316501
0.438690
0.405908
0.112653
0.379682
0.405908
0.421405
0.408888
0.484586
0.516772
0.415444
0.386834
0.367761
0.210404
0.426769
0.395775
0.628829
0.447631
0.511408
0.591874
0.601411
0.561476
0.729561
0.637770
0.725985
0.726581
0.659823
0.535846
0.884533
1.013875
1.012683
1.173615
1.511574
5.684495
18.545985
62.907934
125.267506
259.074569
393.456817
577.524900
692.142844
772.821903
763.202906
664.255023
545.424819
367.914438
243.707895
122.508407
65.492988
23.920536
11.409521
8.652806
10.986924
18.695593
27.099848
43.425560
57.907701
77.781677
88.562965
97.535849
100.432634
90.780854
79.594851
61.775446
45.741796
28.767586
19.079447
11.078715
6.430745
3.713965
2.740622
2.142787
1.918674
1.826882
1.693964
1.816750
1.767874
1.697540
1.596808
1.365542
1.518726
1.628995
1.670718
1.486540
1.536608
1.585484
1.551509
1.444817
1.271963
1.296997
1.217723
1.312494
##ZVALUE=315
0.468493
0.387430
0.385642
0.437498
0.366569
0.420809
0.407696
0.401735
0.271797
0.333786
0.225902
0.228882
0.426769
0.569820
0.456572
0.364780
0.296831
0.508428
0.441670
0.364780
0.399947
0.592470
0.533462
0.424981
0.633597
0.468493
0.566840
0.700951
0.703931
0.568628
0.591874
0.610948
0.697970
0.663996
0.815988
0.755787
0.935793
1.060963
1.283884
2.542734
9.534955
40.009618
87.363720
197.815895
318.933725
507.985950
627.872944
738.160610
768.231750
706.515908
605.317950
436.967611
306.009650
165.146589
88.925958
32.862425
14.301538
7.498860
7.368922
10.688901
16.026497
26.998520
38.420558
54.557920
70.016980
85.192919
93.131661
94.354749
87.529421
73.457956
59.503913
42.583942
29.497743
16.958714
10.521412
5.473495
3.577471
2.436638
2.077818
1.727939
1.636744
1.529455
1.444817
1.387596
1.278520
1.314878
1.477599
1.495481
1.480579
1.672506
1.418591
1.376867
1.272559
1.466870
1.290441
1.414418
##ZVALUE=320
0.352859
0.249743
0.371933
0.203848
0.428557
0.189543
0.272989
0.333786
0.384450
0.323653
0.448823
0.418425
0.478625
0.354648
0.286698
0.444651
0.443459
0.486970
0.286698
0.319481
0.381470
0.391603
0.447631
0.447631
0.354648
0.459552
0.365973
0.560880
0.517964
0.433922
0.731945
0.738502
0.521541
0.676513
0.775456
0.771880
0.576973
0.905991
0.890493
0.754595
1.102686
1.338720
4.283786
21.613836
56.250691
145.326853
239.238739
400.467515
533.211827
681.577921
739.611983
737.992525
669.948459
511.305928
373.805761
208.220482
119.555593
52.204728
23.259521
8.780956
6.368756
6.884933
8.549690
14.177561
21.932721
36.505461
49.120784
65.140724
78.077912
88.126659
88.593960
81.818700
72.649717
55.172443
42.376518
26.117563
17.302632
9.871721
6.276965
3.294945
2.479553
1.720786
1.944900
1.519918
1.688600
1.377463
1.380444
1.286864
1.305938
1.347661
1.385808
1.290441
1.305938
1.431704
1.209974
1.207590
##ZVALUE=325
0.153780
0.054836
0.095963
0.081658
0.238419
0.160933
0.201464
0.168681
0.082850
0.116825
0.257492
0.016689
0.237823
0.223517
0.228882
0.228882
0.255704
0.221729
0.206828
0.137687
0.242591
0.229478
0.157952
0.150800
0.358820
0.471473
0.283718
0.293851
0.341535
0.248551
0.158548
0.208616
0.403523
0.112653
0.370741
0.389814
0.554919
0.745654
0.472665
0.763535
0.735521
0.919700
0.921488
1.126528
2.188683
13.757944
36.476851
99.548697
177.939534
327.757001
458.998680
621.244907
704.225898
737.880468
687.374473
550.518632
418.429971
256.960988
155.020952
68.620443
33.172965
11.187792
6.027818
5.266666
5.799532
8.658767
12.949705
21.226406
31.977892
48.939586
60.972571
74.496865
81.886649
82.420707
76.882839
63.888431
52.333474
36.242604
25.986433
14.803410
9.407997
4.745722
3.007650
2.053976
1.748800
1.536608
1.596808
1.152754
1.239777
1.183748
0.998974
1.054406
1.126528
1.058578
0.977516
1.078844
##ZVALUE=330
0.365973
0.336766
0.304580
0.194907
0.295639
0.263453
0.450611
0.331998
0.236630
0.458956
0.311732
0.330806
0.225902
0.283718
0.351667
0.322461
0.372529
0.434518
0.303984
0.426769
0.440478
0.431538
0.487566
0.426769
0.293851
0.401735
0.454783
0.383854
0.364780
0.421405
0.559688
0.502467
0.429749
0.544786
0.501871
0.678897
0.558496
0.759959
0.711679
0.753999
0.715852
0.589490
0.757575
0.920892
0.890493
1.136661
1.474619
5.764961
19.559860
65.488815
126.056671
255.563855
376.503468
548.672676
655.953884
724.187493
705.460906
596.035719
480.316877
310.756564
200.136900
93.928576
47.956705
17.451644
7.878542
5.094409
5.037785
5.553961
7.507801
13.339520
19.495487
31.032562
42.545795
59.382915
69.570541
75.787902
76.894760
71.399808
62.228441
46.920776
35.564899
22.424459
15.650988
9.072423
5.750656
3.108978
2.310872
1.787543
1.397729
1.270771
1.302958
1.352429
1.167655
1.257658
1.058578
1.184940
##ZVALUE=335
0.317693
0.294447
0.304580
0.202656
0.273585
0.231862
0.183582
0.336766
0.141859
0.383854
0.397563
0.253916
0.203848
0.330806
0.351667
0.430942
0.198483
0.499487
0.450611
0.372529
0.183582
0.304580
0.383854
0.286698
0.444651
0.360608
0.333786
0.488758
0.476837
0.461936
0.424981
0.292659
0.473857
0.423789
0.324845
0.409484
0.402927
0.464916
0.543594
0.658631
0.545979
0.659823
0.557899
0.792742
0.840425
0.808835
0.901818
1.163483
1.041889
2.926588
10.004640
39.369464
84.650517
189.363956
305.441618
479.454994
594.377518
693.529844
707.213879
633.330941
528.053641
363.730788
245.965719
127.857924
67.830682
23.124814
10.175705
5.245805
4.461408
4.594922
5.280972
7.348657
11.247993
19.583702
28.821826
42.089820
53.003430
64.641833
70.454478
71.458817
66.377521
55.108666
46.316981
34.138560
25.181770
15.330911
9.847879
5.485415
3.290772
2.284646
1.685619
1.612902
1.344681
1.263618
1.058578
1.194477
##ZVALUE=340
0.234842
0.271797
0.148416
0.284910
0.436902
0.288486
0.317693
0.106692
0.290871
0.282526
0.374913
0.405908
0.499487
0.225902
0.402927
0.174642
0.360608
0.287890
0.269413
0.275970
0.330806
0.352859
0.283718
0.324845
0.390410
0.475645
0.347495
0.389814
0.390410
0.576973
0.484586
0.413656
0.380874
0.331998
0.367761
0.213981
0.401735
0.419617
0.635982
0.444651
0.497699
0.435710
0.686646
0.724792
0.732541
0.779629
0.695586
0.777841
0.841618
0.808835
1.053810
1.600981
4.857779
23.976564
58.676600
146.814585
246.051550
406.100750
526.126623
645.985603
687.508583
651.414990
567.235947
420.187712
297.834873
156.000853
86.496472
34.317970
14.467835
5.677938
4.698634
4.403591
4.335642
4.999638
6.791949
11.770725
17.803907
28.218627
37.894845
51.919818
60.273409
66.507459
66.977739
62.334538
55.527687
43.316483
34.298897
22.929907
16.007423
9.386539
5.901456
3.129840
2.269745
1.743436
1.268983
1.347661
##ZVALUE=345
0.309944
0.414848
0.353456
0.357628
0.242591
0.413656
0.331998
0.214577
0.316501
0.294447
0.363588
0.337958
0.207424
0.382662
0.334978
0.426769
0.151992
0.424981
0.277758
0.333786
0.431538
0.349879
0.447631
0.384450
0.335574
0.261664
0.310540
0.396967
0.463724
0.282526
0.333786
0.484586
0.418425
0.392795
0.295639
0.541806
0.422597
0.454783
0.426769
0.436902
0.445843
0.436902
0.619888
0.472665
0.436902
0.659823
0.685453
0.662804
0.792742
0.734925
0.720620
0.718832
0.906587
1.078844
2.083778
13.362765
36.629438
98.959804
177.173018
321.511626
442.815423
587.384701
653.174520
664.168596
604.974627
468.457937
345.833898
203.369856
114.765763
45.117736
20.265579
7.625818
5.063415
4.199743
3.851652
4.081726
4.292727
6.279945
9.392500
16.761422
24.313927
36.766529
44.928789
54.322481
59.563518
61.873794
59.063435
51.605701
43.265820
32.942891
24.627447
15.011430
9.902716
5.661845
3.602505
2.222657
##ZVALUE=350
0.301600
0.340939
0.279546
0.307560
0.266433
0.219941
0.254512
0.224710
0.241995
0.355840
0.230670
0.225902
0.248551
0.261664
0.436902
0.326633
0.290871
0.255704
0.311732
0.208616
0.390410
0.425577
0.382662
0.419617
0.389814
0.370741
0.218749
0.318885
0.275970
0.318885
0.309944
0.217557
0.370741
0.424981
0.401735
0.554919
0.441670
0.502467
0.393987
0.442863
0.326633
0.393987
0.464916
0.560880
0.449419
0.479817
0.494719
0.671744
0.606775
0.603795
0.728965
0.548959
0.741482
0.924468
0.673532
0.905991
1.360774
6.843805
21.054745
64.816475
125.070810
251.403451
366.222858
512.656569
606.939793
654.538870
626.595616
516.447425
395.144820
235.309601
145.693421
67.340732
30.312538
9.657741
5.218983
4.178882
3.879666
3.345609
3.393888
4.086494
5.488992
9.490848
13.962984
21.876693
29.417872
40.111542
47.852993
54.366589
56.853890
54.307580
49.523711
39.218664
31.840801
21.869540
15.869737
9.335876
##ZVALUE=355
0.194907
0.318885
0.305772
0.190735
0.215769
0.320673
0.357628
0.304580
0.362992
0.224710
0.245571
0.296831
0.194907
0.225902
0.188947
0.341535
0.398755
0.209808
0.449419
0.345707
0.437498
0.324845
0.479817
0.427961
0.382662
0.236630
0.291467
0.288486
0.342727
0.338554
0.286698
0.275970
0.440478
0.345707
0.464916
0.282526
0.351667
0.426769
0.373721
0.474453
0.463724
0.416636
0.434518
0.337958
0.474453
0.302792
0.309944
0.540614
0.569820
0.579953
0.599623
0.605583
0.544786
0.706911
0.671744
0.675917
0.809431
0.894666
0.989437
3.077984
11.153817
43.441653
89.509487
187.218785
289.227962
449.515581
555.259585
634.437799
626.275539
538.259745
435.776711
284.098983
178.600550
79.160929
38.476586
12.254715
5.760789
4.020929
3.480911
3.358722
3.159642
3.185868
3.615618
5.042553
7.471442
12.672544
18.029809
26.066899
33.553839
42.766929
48.918724
51.822662
49.903989
45.316815
39.189458
30.309558
##ZVALUE=360
0.345707
0.327826
0.284910
0.276566
0.394583
0.316501
0.305772
0.234842
0.146627
0.198483
0.293851
0.182986
0.183582
0.328422
0.313520
0.245571
0.418425
0.250936
0.308752
0.330806
0.304580
0.269413
0.369549
0.307560
0.295639
0.373721
0.231862
0.419617
0.446439
0.378489
0.363588
0.403523
0.347495
0.379682
0.333786
0.424981
0.433922
0.340939
0.431538
0.327826
0.654459
0.405908
0.388622
0.410676
0.526905
0.541806
0.438690
0.531673
0.632405
0.497699
0.578761
0.486970
0.657439
0.569820
0.504851
0.765920
0.741482
0.858903
0.878572
0.849962
0.978708
1.629591
4.848838
21.768808
54.544806
135.161877
225.088000
367.343426
479.187965
589.073896
616.177917
565.922856
475.617647
325.844884
222.195983
114.571452
59.530735
20.366907
8.616447
4.106760
3.533959
3.215671
3.034472
2.881885
2.746582
3.014803
3.975630
6.089807
9.067655
14.485717
20.758510
29.337406
36.416650
43.444633
46.014786
46.273470
##ZVALUE=365
0.277758
0.325441
0.183582
0.366569
0.281930
0.332594
0.151992
0.254512
0.381470
0.355840
0.430942
0.310540
0.361800
0.127554
0.223517
0.336766
0.330806
0.368953
0.245571
0.225902
0.398755
0.349879
0.224710
0.345707
0.406504
0.356436
0.363588
0.383854
0.307560
0.400543
0.484586
0.400543
0.360608
0.297427
0.511408
0.343919
0.254512
0.311732
0.305772
0.529885
0.398755
0.411868
0.399947
0.656843
0.554919
0.454783
0.329614
0.577569
0.398755
0.461936
0.546575
0.572801
0.647902
0.467896
0.517964
0.659823
0.531673
0.756979
0.699759
0.896454
0.849962
0.988841
0.946522
1.056790
2.075434
12.524724
33.715963
89.963675
164.445639
305.310488
411.838889
532.287955
593.055487
586.512685
517.445803
379.831791
270.493627
148.235559
79.848766
28.971434
11.947751
4.504919
3.526807
3.076792
2.942681
2.740622
2.738833
2.417564
2.767444
3.076792
4.542470
7.979870
11.753440
18.657446
24.887919
32.035708
##ZVALUE=370
0.250936
0.359416
0.310540
0.243783
0.355840
0.293851
0.320673
0.247955
0.287890
0.219941
0.299811
0.327826
0.214577
0.237823
0.281930
0.238419
0.213981
0.256896
0.187755
0.337958
0.349879
0.334978
0.329614
0.356436
0.272989
0.399947
0.217557
0.256896
0.220537
0.350475
0.218749
0.209808
0.322461
0.240803
0.308752
0.406504
0.517964
0.346899
0.371933
0.341535
0.473857
0.390410
0.400543
0.633597
0.259876
0.409484
0.369549
0.461936
0.482798
0.391603
0.486970
0.359416
0.477433
0.434518
0.596642
0.529885
0.560880
0.709891
0.638962
0.714660
0.715852
0.712872
0.820756
0.844598
0.833869
0.900626
1.334548
6.499887
20.943880
65.492988
125.473738
240.859985
349.450707
492.368937
561.195016
581.262708
535.652637
421.658754
314.987898
179.877877
103.060603
40.901899
18.329620
6.228685
3.608465
3.140569
2.967715
2.812743
2.431870
2.239943
2.411604
2.352595
2.822876
3.903508
6.186962
10.018945
##ZVALUE=375
0.250936
0.208616
0.291467
0.335574
0.082850
0.291467
0.320673
0.254512
0.247955
0.294447
0.288486
0.262856
0.107884
0.241995
0.144839
0.304580
0.359416
0.268817
0.232458
0.332594
0.243783
0.215769
0.303984
0.355840
0.232458
0.333786
0.304580
0.214577
0.347495
0.361800
0.325441
0.216961
0.434518
0.337958
0.366569
0.486970
0.411868
0.226498
0.325441
0.262856
0.448823
0.373721
0.338554
0.477433
0.245571
0.346899
0.343919
0.317693
0.373721
0.459552
0.414848
0.394583
0.493526
0.498891
0.274777
0.377893
0.563860
0.442863
0.502467
0.336766
0.538826
0.600815
0.561476
0.673532
0.654459
0.800490
0.759959
0.770688
1.041889
3.224611
11.439919
39.976835
86.009502
189.877748
293.740630
437.783599
521.484017
578.801632
564.036965
466.826558
362.926722
222.892761
140.085816
69.027543
34.432411
11.015534
4.727840
3.032684
2.927780
2.564788
2.619624
2.099872
2.064705
2.130866
2.001524
2.356768
##ZVALUE=380
0.248551
0.205636
0.345707
0.268817
0.140667
0.280738
0.176430
0.300407
0.264645
0.405908
0.313520
0.180602
0.285506
0.448823
0.314713
0.180602
0.331998
0.157952
0.313520
0.167489
0.142455
0.248551
0.306964
0.386834
0.276566
0.256896
0.361800
0.351667
0.331998
0.347495
0.372529
0.284910
0.201464
0.237823
0.300407
0.223517
0.245571
0.315905
0.253916
0.232458
0.294447
0.458956
0.192523
0.248551
0.473857
0.402927
0.407696
0.324845
0.314713
0.401735
0.254512
0.344515
0.398755
0.435710
0.416636
0.445843
0.380874
0.502467
0.437498
0.456572
0.556707
0.455976
0.527501
0.516772
0.537634
0.594854
0.607967
0.752807
0.721812
1.074672
0.945926
1.620650
5.791783
27.842522
64.284801
150.085688
241.369009
377.068520
473.806858
557.909608
565.761924
495.924950
406.733751
274.258852
183.555484
91.357827
47.461987
16.624928
7.273555
3.391504
2.824664
2.629757
2.316833
2.347827
2.295971
1.909733
##ZVALUE=385
0.219941
0.457764
0.310540
0.107884
0.241995
0.240803
0.312924
0.366569
0.264645
0.215769
0.421405
0.126958
0.269413
0.187755
0.304580
0.193715
0.345707
0.455976
0.311732
0.403523
0.361800
0.298619
0.394583
0.295639
0.274777
0.390410
0.346899
0.226498
0.318885
0.320673
0.477433
0.249743
0.332594
0.375509
0.280738
0.444651
0.203848
0.215769
0.339746
0.315905
0.415444
0.273585
0.489950
0.423789
0.299811
0.406504
0.395775
0.598431
0.340939
0.469685
0.314713
0.576973
0.450611
0.516772
0.341535
0.475645
0.464916
0.449419
0.488758
0.344515
0.335574
0.567436
0.435710
0.610948
0.440478
0.587702
0.384450
0.652671
0.762939
0.799894
0.847578
0.739694
0.989437
1.267791
2.893806
15.492439
40.888786
103.845596
182.851553
320.994854
427.003503
530.868769
559.348464
535.378456
470.112562
347.433686
246.953964
135.541558
78.055859
31.545758
12.904406
4.197955
2.843738
2.428889
2.545714
2.558827
##ZVALUE=390
0.270605
0.277758
0.288486
0.311732
0.252724
0.145435
0.283718
0.209808
0.138879
0.278950
0.119805
0.289679
0.314713
0.231862
0.255704
0.227690
0.295639
0.352859
0.155568
0.379682
0.394583
0.191927
0.320673
0.191927
0.393987
0.261664
0.346899
0.207424
0.213981
0.214577
0.272989
0.344515
0.281930
0.256896
0.382662
0.344515
0.335574
0.243783
0.253916
0.255704
0.259876
0.322461
0.260472
0.246763
0.367761
0.246763
0.314713
0.342727
0.293851
0.451803
0.197887
0.517964
0.146627
0.391603
0.278950
0.361800
0.350475
0.363588
0.447631
0.335574
0.272989
0.381470
0.392795
0.384450
0.529885
0.532866
0.656843
0.342727
0.518560
0.575781
0.816584
0.813603
0.731945
0.949502
0.972748
0.912547
1.625419
7.977486
25.520921
77.773929
145.560503
270.573497
370.167494
480.590463
541.566014
559.410453
517.958999
414.669514
314.996839
191.520452
111.811757
46.005845
20.821691
6.350875
3.323555
2.617836
##ZVALUE=395
0.312924
0.374913
0.339746
0.265837
0.217557
0.177622
0.288486
0.288486
0.243783
0.260472
0.058413
0.245571
0.316501
0.349879
0.145435
0.273585
0.128746
0.236630
0.149608
0.240803
0.425577
0.229478
0.238419
0.241995
0.267625
0.184774
0.271797
0.366569
0.377893
0.341535
0.275970
0.301600
0.330806
0.261664
0.339746
0.186563
0.247955
0.432730
0.367761
0.408888
0.360608
0.248551
0.312924
0.393987
0.389814
0.363588
0.379682
0.308752
0.360608
0.493526
0.252724
0.337958
0.359416
0.226498
0.373721
0.314713
0.281930
0.264645
0.386834
0.378489
0.279546
0.454783
0.483990
0.401735
0.427961
0.585914
0.517964
0.494719
0.476837
0.573993
0.596642
0.730753
0.701547
0.764728
0.684857
0.687838
0.716448
0.830889
0.980496
4.260540
15.371442
53.631663
105.899572
210.294724
308.736563
441.413522
522.466898
574.406981
562.020540
474.448800
372.604728
230.682492
147.365928
69.060922
33.394694
10.872483
##ZVALUE=400
0.453591
0.346899
0.328422
0.289679
0.356436
0.302792
0.160933
0.189543
0.177622
0.267625
0.155568
0.224710
0.300407
0.192523
0.292659
0.188947
0.323653
0.245571
0.241995
0.273585
0.111461
0.316501
0.331998
0.346899
0.224710
0.233650
0.202656
0.313520
0.362992
0.123978
0.256896
0.424981
0.086427
0.411868
0.340939
0.155568
0.200868
0.298619
0.394583
0.500679
0.263453
0.303984
0.395775
0.387430
0.237823
0.277758
0.292659
0.323653
0.278950
0.327826
0.233650
0.348687
0.386834
0.460744
0.392795
0.386834
0.346899
0.502467
0.400543
0.354648
0.245571
0.492930
0.436902
0.541806
0.403523
0.352859
0.321865
0.421405
0.460744
0.421405
0.601411
0.733733
0.624657
0.674725
0.704527
0.783801
0.638962
0.741482
0.797510
0.912547
1.034737
2.535582
8.384585
31.561852
67.748427
152.776837
241.445899
376.049876
466.051698
543.887615
553.425550
490.468740
402.584672
270.107985
179.028511
90.163946
##END
