##TITLE=FDDW1
##FORMAT=SPECTACLE-ASCII V-1.2
##DATA TYPE=ULTRAVIOLET SPECTRUM
##SECOND TYPE=ULTRAVIOLET SPECTRUM
##DATE=02/08/18
##TIME=15:19:56
##SPECTROMETER/DATA SYSTEM=SPECTACLE
##XUNITS=NM EM
##YUNITS=ENERGY
##YFACTOR=1
##FIRSTX=220
##LASTX=410
##NPOINTS=96
##3DDATA=Equidistant
##ZUNITS=NM EX
##FIRSTZ=210
##LASTZ=400
##ZPOINTS=39
##XYDATA=(Y..Y)
##ZVALUE=210
13.599992
15.227795
13.815761
9.923577
9.503961
9.562969
9.994507
8.245707
7.276535
5.276799
3.889799
2.403855
1.897812
2.718568
1.879930
1.911521
1.952648
2.475977
1.835823
2.361536
2.138615
2.290606
2.271533
2.424717
2.879500
3.123879
3.044605
2.923608
4.293919
4.187822
4.285574
4.685521
4.121661
4.809499
4.742742
4.345775
5.713701
5.447865
5.109906
5.996823
5.452633
5.042553
4.966855
5.954504
5.331635
5.129576
4.723668
5.486608
4.580617
4.601479
4.299879
3.677607
4.074574
4.404783
4.108548
4.491806
4.379749
3.853440
4.309416
3.922582
4.080534
4.628897
4.003644
4.209876
4.635453
4.166961
4.167557
4.263520
5.400777
4.973412
5.772710
7.333755
7.632971
7.563829
9.109974
9.703636
9.672642
9.447932
9.287596
9.873509
7.659793
6.576777
6.086826
5.206466
4.844666
4.056692
3.860593
4.143715
4.440546
5.488992
7.250905
11.685491
13.890862
16.745925
20.769835
27.285814
##ZVALUE=215
33.118725
34.023523
28.322935
22.154450
18.550754
18.155575
16.880631
15.761852
15.584826
13.121963
11.654496
9.308457
6.532669
4.854798
3.138781
2.325773
2.955794
2.458692
2.196431
2.246499
2.650619
2.702475
2.596974
2.486706
2.870560
2.836585
3.540516
3.469586
3.709793
4.549623
4.715919
4.884601
5.839467
5.943775
6.038547
5.677938
7.170439
5.804896
5.488992
6.005764
5.747676
5.317926
5.206466
5.416870
5.467534
6.178617
6.081462
5.372763
5.693436
4.820824
5.051494
5.266666
4.226565
5.323887
4.935861
4.772544
5.575418
4.904866
5.136728
4.543662
4.736781
4.475713
5.016923
4.355907
4.960895
4.216433
4.747510
3.816485
5.739927
5.003810
6.118417
6.220937
6.065965
7.859468
7.799864
8.742809
9.879470
9.102821
9.051561
7.318854
6.868839
6.253719
5.562901
5.022883
4.135966
3.538728
3.894567
3.727674
3.448725
3.119707
3.363490
3.839731
3.751516
4.793406
6.513596
8.903742
##ZVALUE=220
74.633956
75.089931
73.787570
64.381957
52.825809
40.793419
33.607483
27.899742
26.645660
26.056767
25.133491
23.929477
22.285581
19.796491
14.516711
10.245442
6.842613
4.890561
2.835989
2.969503
3.011823
2.433658
2.222657
2.927780
2.947450
3.311634
3.607869
4.110932
4.582405
5.372763
6.122589
6.282926
6.497502
6.471872
6.951690
6.763935
7.768869
7.493496
7.901788
7.493496
7.822514
7.657409
7.155538
6.116629
6.842613
5.660653
5.449653
5.600452
5.639791
5.518794
6.348491
5.931854
5.447865
5.875826
5.633831
4.898906
5.699992
5.824566
6.309748
4.979968
5.842447
5.545616
5.041957
5.652905
5.402565
5.143881
5.143881
5.685687
5.775690
5.460978
6.177425
7.583499
6.987453
7.903576
8.137822
8.144975
7.252693
8.550882
7.147789
7.304549
7.087588
6.084442
5.451441
5.592704
4.335642
4.401803
3.573895
3.886819
3.603697
3.768802
3.650784
4.228950
3.045797
3.483891
3.600717
3.543496
##ZVALUE=225
96.694827
100.867748
112.387538
131.627917
127.426982
118.263960
98.975897
72.184801
57.655573
43.785572
40.744543
37.547946
39.202571
40.687919
37.243962
33.144951
26.542544
20.855665
12.477636
8.905530
6.083846
4.373789
3.076792
3.708601
3.504753
3.688931
3.673434
4.461408
4.567504
5.828738
5.616546
6.713867
6.485581
7.438660
7.376671
7.371902
7.182956
8.311868
8.150935
7.766485
8.243918
7.684827
7.376671
7.656813
7.302761
6.904602
6.159544
7.030964
6.983876
7.416606
6.688833
5.465746
6.256700
6.497502
5.898476
5.695820
6.935596
5.914569
6.384850
5.454421
5.069971
5.933642
5.831718
5.783439
5.857944
5.326867
5.312562
6.567836
5.932450
6.516576
7.047653
7.526875
7.693768
8.364916
8.219481
7.970929
8.240938
8.368492
7.030964
7.717609
6.556511
6.003976
5.937815
5.383492
4.412532
4.184842
3.792644
4.413724
3.814697
4.525781
4.058480
3.505945
3.660917
4.011989
3.760457
4.181862
##ZVALUE=230
68.531632
75.744987
102.321506
154.655576
184.444785
205.853581
217.261910
197.693706
173.088908
128.611922
97.610950
71.280599
62.800646
59.905648
62.948465
63.889623
64.572692
59.576631
50.425529
39.763451
27.606487
21.307468
10.141730
7.354617
5.007982
4.432797
4.213452
5.321503
4.739761
5.397797
5.669594
6.719828
6.846786
7.156730
6.973743
6.978512
7.413626
7.914901
7.976890
7.654428
8.036494
7.325411
7.161498
6.981492
6.877780
6.658435
7.045865
7.105470
6.959438
6.681681
6.708503
7.478595
6.186962
7.077456
7.135868
5.989671
6.980896
7.326603
6.849766
6.769896
6.525517
7.112622
6.289482
6.591678
6.703734
6.153584
6.151795
7.279515
6.364584
6.998777
7.148981
8.358955
7.953644
8.413792
10.189414
7.984638
8.385777
8.457899
8.101463
7.643700
6.933808
6.558895
6.000996
5.589724
5.561709
4.500747
5.337000
4.579425
4.069805
4.795790
4.380941
5.142689
4.797578
4.453659
4.479885
4.731417
##ZVALUE=235
18.773675
23.404956
43.438673
91.038942
140.874982
205.985904
265.573859
323.323607
339.829922
328.087807
280.537605
224.407911
151.716471
120.386481
87.832808
82.706809
84.520578
90.402961
96.726418
92.217922
82.924962
68.834424
55.243969
36.841631
25.964975
13.692975
9.234548
6.839633
6.331801
6.638765
6.038547
6.654859
6.464720
7.013679
6.502867
6.691813
5.563498
7.124543
6.909966
6.431937
7.114410
5.786419
7.841587
6.521940
7.152557
7.493496
6.976724
7.343888
6.130934
6.882548
6.223917
7.056594
6.248951
6.934404
6.086826
6.890893
6.965995
6.858706
6.824732
6.031990
7.186532
5.712509
6.782413
7.249713
6.778836
7.017851
6.489754
7.226467
7.170439
8.358955
7.738471
9.297729
9.221435
8.802414
9.376407
8.203983
10.074973
9.369850
9.534955
9.046793
7.689595
6.219745
6.522536
7.024407
6.273985
6.076694
5.541444
5.853772
5.907416
5.579591
5.390644
5.494952
5.081892
6.065965
4.700422
4.843473
##ZVALUE=240
1.409650
1.973510
5.521774
16.761422
46.480894
82.136989
157.045722
226.071477
327.518582
380.121469
426.792502
411.372781
382.454991
298.432708
236.505866
152.427554
117.133856
92.600584
87.944865
100.549459
106.131434
111.959577
111.712813
95.049739
73.869824
59.613585
43.131709
30.569434
17.318726
11.859536
8.164644
6.686449
6.260872
6.581545
7.224679
6.843805
7.057786
6.236434
7.070899
6.369948
6.052852
6.803870
5.913973
6.051660
6.458759
5.905628
6.683469
5.107522
5.490780
5.955696
5.608797
5.568862
5.801916
4.867911
5.162954
5.773902
5.991459
5.300641
5.389452
6.073713
6.316900
6.129742
6.629825
6.049871
5.344748
5.511642
6.273985
6.455779
6.010532
6.569624
7.194877
8.015633
8.414984
8.054972
8.959770
8.925796
8.567572
8.023977
7.843971
7.295609
7.015467
7.085800
6.560683
5.751848
6.381869
5.905628
6.040931
5.437732
5.341768
5.826950
5.215406
5.313754
4.338622
4.394650
5.150437
4.462600
##ZVALUE=245
1.301765
1.248717
1.136661
1.244545
3.661513
9.528995
35.475492
69.072843
151.890516
220.856667
337.080956
416.649580
463.878512
486.990809
454.284549
380.070806
305.299759
209.572911
148.092508
101.490617
92.884898
93.218684
107.993484
120.254755
126.087666
119.570494
105.662942
88.874698
67.630410
48.917532
33.379793
19.915700
14.007688
9.575486
8.002520
6.905794
6.701946
6.752610
5.916953
7.289648
6.273985
7.162690
5.461574
5.992651
5.846620
5.993843
5.705953
5.899668
5.602837
5.965829
5.719662
5.891919
5.017519
5.483627
5.704761
4.889965
5.657673
5.203485
4.608631
5.099773
4.693866
4.988909
5.169511
5.215406
5.099773
4.765987
5.072951
5.857944
5.369782
5.649924
6.546974
6.518960
7.399917
7.752776
7.049441
7.898808
7.477999
7.334948
6.713867
6.041527
6.110668
5.758405
6.219745
5.371571
5.395412
4.570484
5.242825
4.747510
4.656911
4.629493
4.748702
4.550815
4.844666
4.032850
4.452467
4.572868
##ZVALUE=250
1.243949
1.042485
1.213551
1.214743
1.405478
1.157522
2.002716
6.388426
25.669932
54.145455
130.171776
207.063556
296.060443
417.625904
495.972633
541.617870
528.139472
468.671918
399.383903
279.312730
190.655589
128.849745
92.716813
86.520910
102.001429
117.923617
129.394531
135.131478
129.092932
115.015507
94.010830
73.499680
52.617788
32.927990
21.643639
12.916923
9.352565
7.379651
7.853508
7.179976
7.202625
6.588697
6.329417
6.063581
5.733967
5.718470
5.865693
5.634427
5.599856
5.363822
5.353689
6.209612
5.220771
4.999638
5.492568
4.581809
4.797578
4.607439
5.144477
5.053878
4.995465
4.222989
4.245639
4.942417
4.000664
4.313588
4.775524
4.288554
5.218983
5.235672
5.564690
5.809665
5.884767
6.010532
6.843805
6.423593
6.060600
5.460978
5.490780
5.928874
5.642772
5.169511
5.186796
4.456639
4.648566
4.593730
4.514456
4.335642
4.269481
4.162788
4.118681
3.881454
4.002452
3.677607
4.249811
3.500581
##ZVALUE=255
0.880957
1.026988
1.095533
1.227856
1.017451
1.027584
1.209974
1.176000
1.728535
2.977848
17.231703
41.285753
79.705715
175.597668
266.974568
399.015546
491.258502
573.256612
591.215491
562.734008
476.235747
379.256606
242.992640
162.111521
95.066428
79.454780
81.884861
96.682906
118.606687
131.383538
136.125684
133.503675
120.052695
96.202493
76.849461
50.180554
36.095977
20.031929
12.943745
9.227991
7.106662
6.265640
6.365776
6.483793
6.745458
6.374717
6.033778
5.564690
5.857944
6.212592
5.727410
5.492568
4.641414
4.750490
5.345941
4.698634
4.689693
4.324913
4.675984
4.531741
4.461408
4.081726
4.371405
4.105568
4.178882
3.988743
4.415512
4.109740
4.272461
4.445910
4.488826
4.786849
5.232692
5.213618
5.240440
5.543828
4.906654
5.326867
5.581975
4.927516
4.496574
3.911853
3.535748
4.013777
4.170537
3.566742
3.733635
3.817677
3.352761
3.545880
3.421903
2.832413
3.189445
3.488660
3.173947
3.405809
##ZVALUE=260
0.627637
0.800490
0.974536
0.606775
0.925660
1.044869
0.853539
1.132488
1.324415
1.262426
1.248717
1.803637
6.029606
25.961995
56.451559
134.640932
219.694972
354.304910
461.901426
591.790676
642.959476
649.307966
562.466979
460.577607
309.850574
213.355422
127.923489
86.952448
68.788528
76.270700
93.353987
119.065642
135.794878
144.300461
140.374899
123.336911
103.666782
74.329972
55.434704
34.116507
23.924708
13.183951
9.338856
7.028580
6.284714
6.361604
6.006956
5.640984
5.958676
5.724430
5.789995
5.799532
5.352497
5.237460
4.856586
5.127788
4.412532
4.667640
4.714727
4.074574
4.299879
4.383922
4.036427
4.123449
4.021525
3.755689
4.250407
3.531575
4.666448
4.461408
4.452467
5.080700
5.144477
5.191565
4.860759
4.989505
4.884601
4.587770
4.209876
3.704429
3.895760
3.401637
3.938675
3.698468
3.223419
3.678799
2.957582
2.628565
2.875924
2.790689
2.992749
3.237724
3.098845
2.735853
3.023744
2.805591
##ZVALUE=265
0.710487
0.614524
0.548959
0.556707
0.918508
0.810623
1.032948
0.926852
0.835657
1.236796
1.098514
1.058578
1.177788
1.317859
3.072619
15.643835
40.850639
103.261471
180.265903
320.919752
450.932980
569.098592
670.205951
692.245960
640.742779
548.737645
405.609608
288.964510
166.535974
102.661848
70.818663
62.363744
76.708794
103.149414
122.478604
140.308738
143.349767
137.851834
124.432445
99.498630
79.084635
50.391555
35.459995
20.381808
14.017820
9.358525
7.069707
6.574988
5.569458
5.878806
5.800724
5.517602
5.250573
5.346537
4.922748
5.180836
4.955530
4.821420
4.786849
4.232526
4.367828
4.142523
4.231930
4.206896
4.449487
4.011989
4.154444
3.928542
4.238486
4.324913
4.240870
4.117489
4.715919
4.579425
4.594922
4.679561
4.307628
3.830791
3.720522
3.590584
3.691912
3.220439
3.037453
3.058910
3.098845
3.149509
3.078580
2.918839
2.855659
2.891421
2.810955
2.647638
2.605915
2.965927
2.720952
2.832413
##ZVALUE=270
0.771880
0.776649
0.762939
0.604987
0.888705
0.829697
0.859499
0.770688
0.873804
0.865459
1.011491
0.891685
0.829697
1.039505
0.997782
1.349449
1.983643
7.693768
23.669600
72.098970
141.279697
229.166746
404.427648
541.235805
684.054494
729.115605
713.402629
644.670725
497.794747
374.846458
228.684545
145.238638
74.684620
54.682493
57.255626
74.900985
101.787448
123.750567
139.887929
145.505667
138.671994
124.302506
101.132989
79.024434
54.035783
36.274791
21.386743
14.152527
8.550882
7.337928
6.114841
5.916953
5.478859
5.297661
5.346537
4.932880
5.328655
5.193949
5.225539
4.536510
4.808903
4.602671
4.355907
4.102588
4.324913
3.988743
4.226565
3.964901
3.872514
4.213452
3.890991
4.256964
4.240870
4.548430
4.437566
4.427433
3.896952
3.984571
4.097819
3.652573
3.298521
3.149509
3.097653
2.875924
3.178716
2.972484
2.544522
3.003478
2.526641
2.634525
2.600551
2.813935
2.396703
2.699494
2.397895
2.460480
##ZVALUE=275
0.781417
0.938773
0.730753
0.743866
0.781417
0.831485
0.605583
0.519753
0.670552
0.659823
0.743866
0.815988
0.884533
0.849962
0.925660
0.938773
1.156926
1.428723
1.169443
3.304482
13.590455
38.771629
109.424591
201.788545
362.517834
488.380790
631.098747
715.206861
746.524930
707.036853
618.434548
456.174612
325.766802
175.642967
104.943514
53.647757
43.186545
54.321885
71.580410
98.452568
118.674636
135.487914
141.582489
135.977864
123.472810
95.820427
77.240467
53.483844
37.083626
21.627545
14.356971
8.536577
6.545782
5.585551
5.370975
5.010962
5.018711
4.682541
5.170703
5.125999
4.426837
4.491806
4.345775
4.368424
4.156828
4.080534
3.964901
4.440546
4.081726
4.026890
4.365444
4.243851
4.622936
4.402995
3.958941
4.319549
4.272461
3.650784
3.676414
3.665686
3.190637
2.980828
3.019571
2.988577
3.001690
2.839565
2.810955
2.804995
2.652407
2.793670
2.462864
2.508759
2.568960
2.483726
2.320409
2.275705
##ZVALUE=280
0.591874
0.553727
0.565648
0.660419
0.758767
0.634789
0.685453
0.634789
0.745654
0.612736
0.708699
0.635982
0.768900
0.950694
0.745654
0.856519
1.133680
0.997782
1.000762
1.164675
1.337528
1.847744
8.774996
26.992559
85.950494
155.417919
284.780860
407.793522
574.684739
679.501891
741.188526
739.807487
666.225553
511.322618
376.550555
215.531588
130.026937
61.957836
39.311647
37.716627
50.257444
73.622465
95.868707
119.194984
130.057931
138.563514
135.430694
116.235614
100.933909
73.414445
54.349899
34.751892
22.875667
12.760758
8.366704
5.764961
5.131960
4.803538
4.861951
4.354715
4.534721
4.504919
4.323721
4.623532
4.434586
4.162788
3.959537
3.651977
4.091859
3.793836
3.939867
4.032850
4.307628
4.265904
3.795624
3.986955
3.862977
3.318787
3.301501
3.065467
3.320575
3.019571
2.816916
2.779961
2.820492
2.737641
2.938509
2.801418
2.551675
2.399683
2.523661
2.242923
2.339482
2.369881
2.272725
2.505779
##ZVALUE=285
0.642538
0.505447
0.588894
0.841618
0.780821
0.657439
0.803471
0.591874
0.572801
0.538826
0.737906
0.616908
0.790954
0.651479
0.988841
0.901818
0.895858
0.664592
0.894666
1.049638
1.072884
1.180768
1.138449
1.514554
4.253983
13.552904
45.720935
97.556710
208.719969
320.559740
444.989800
616.976619
713.402033
763.733983
721.718669
591.918826
465.530753
289.478898
183.059573
87.624788
47.552586
27.811527
30.735731
47.754645
64.955950
92.781782
110.404491
126.495957
133.740902
129.151940
117.027760
95.840693
77.795982
52.960515
36.233664
21.343827
13.045669
7.673502
5.551577
4.397631
4.073977
3.966689
4.001856
3.988743
4.110932
3.950596
3.736615
3.810525
4.144907
3.908873
3.854632
3.770590
3.742576
3.996491
3.568530
3.846884
3.540516
3.303885
3.327727
3.085732
3.128648
2.973676
2.908707
2.596974
2.734661
2.574921
2.763867
2.417564
2.567768
2.514720
2.478957
2.522469
2.490878
2.254844
2.350807
2.405643
##ZVALUE=290
0.686646
0.623465
0.620484
0.649691
0.548959
0.563860
0.735521
0.560880
0.756979
0.712872
0.667572
0.573993
0.511408
0.541806
0.655651
0.568628
0.514984
0.627637
0.662804
1.017451
0.933409
0.966787
1.100898
1.092553
1.325607
1.339912
1.889467
5.371571
25.412440
59.903860
119.849443
247.470737
375.192761
561.805964
671.828985
759.785771
751.962662
652.101636
534.212589
362.904668
239.693522
119.271874
64.478517
28.843880
21.427870
30.361414
42.628646
63.830614
82.282424
107.222795
120.007992
129.763484
127.266645
115.035772
97.093582
69.382787
53.120852
32.624602
21.532774
12.025833
7.612705
4.924536
3.722906
3.518462
3.504753
3.274679
3.436804
3.211498
3.335476
3.303885
3.466606
3.462434
3.390908
3.471971
3.665686
3.231764
3.433824
3.270507
2.920628
2.817512
2.610683
2.699494
2.666712
2.737641
2.620816
2.724528
2.593994
2.564788
2.799630
2.300739
2.233982
2.462864
2.377629
2.063513
2.092719
2.134442
##ZVALUE=295
0.475645
0.374913
0.507832
0.595450
0.346899
0.621676
0.440478
0.590682
0.450611
0.442863
0.553727
0.499487
0.437498
0.619888
0.554919
0.594854
0.836849
0.716448
0.512600
0.627637
0.659823
0.679493
0.743866
0.820756
0.723600
0.942945
1.193881
1.070499
1.491904
2.469420
12.587905
36.421418
82.943439
194.133520
309.375525
489.811897
611.225963
729.337931
756.878853
696.997643
598.544478
429.759622
297.575593
155.598521
86.856484
35.334826
19.967556
18.232465
25.172830
41.270852
56.938529
80.416799
97.696781
115.891695
121.391416
120.438933
109.172463
88.540912
69.654584
48.716664
34.892559
19.737482
12.370944
6.679893
4.756451
3.286600
2.995729
2.826452
2.824664
2.942681
2.889633
2.993941
3.109574
3.062487
3.108978
3.041625
2.764463
2.566576
2.607703
2.597570
2.267957
2.484918
2.271533
2.263784
2.318621
2.266765
2.406836
2.187490
2.682805
2.224445
2.298951
2.121925
2.289414
2.099872
2.032518
2.138615
##ZVALUE=300
0.416636
0.495911
0.539422
0.538826
0.602603
0.411868
0.568628
0.392795
0.492930
0.472665
0.521541
0.614524
0.543594
0.563860
0.714660
0.580549
0.567436
0.534654
0.565648
0.621676
0.716448
0.775456
0.796914
0.859499
0.833869
1.014471
1.048446
0.997782
1.059771
1.322627
1.129508
1.432896
5.589724
19.535422
63.103437
124.353766
254.972577
382.377505
557.426810
663.567781
742.624998
736.786723
640.184879
526.914597
347.371697
227.256417
116.585493
62.729716
23.721457
13.872981
15.127659
21.714568
36.293864
51.652789
72.795749
90.866685
108.983517
114.930868
113.234520
105.153918
86.690784
71.203709
48.984885
34.995675
19.581914
12.409687
6.655455
4.248619
3.066659
2.651811
2.488494
2.561808
2.728701
2.836585
2.662539
2.651811
2.622604
2.641678
2.360940
2.524853
2.401471
2.147555
2.455711
2.258420
2.119541
2.161860
2.244711
2.138615
2.224445
2.312660
2.114773
2.104640
2.102852
2.069473
1.879930
2.236962
##ZVALUE=305
0.506639
0.411868
0.329614
0.518560
0.526905
0.476837
0.344515
0.342727
0.515580
0.657439
0.475645
0.501871
0.596642
0.603795
0.530481
0.619888
0.502467
0.496507
0.774860
0.668764
0.743866
0.464916
0.733733
0.723600
0.536442
0.624657
0.704527
0.948906
0.962615
0.817776
0.859499
1.097918
1.284480
1.383424
2.867579
10.274649
42.097569
90.876818
202.452540
312.713981
481.298566
605.385900
715.631843
744.192004
681.029558
578.251481
415.695906
290.236473
158.038735
86.822510
33.792853
16.533732
10.567904
13.135672
22.218823
32.065511
51.718950
68.672895
87.890625
99.272728
107.942820
107.463002
98.037720
85.042715
64.292550
48.738718
30.974746
20.437837
10.748506
6.685853
3.774762
3.107786
2.709627
2.586842
2.493858
2.470613
2.150536
2.039671
2.041459
2.448559
2.253652
2.149940
2.145767
2.136827
2.107620
2.375841
2.193451
2.262592
2.141595
2.187490
1.907945
2.018809
1.818538
2.037883
2.101660
2.034903
##ZVALUE=310
0.414848
0.457764
0.365973
0.572801
0.410676
0.492930
0.380874
0.423789
0.566840
0.561476
0.566840
0.596642
0.467896
0.383854
0.540614
0.466704
0.619888
0.505447
0.517964
0.566840
0.544786
0.438690
0.614524
0.619888
0.697970
0.617504
0.652671
0.762939
0.819564
0.770688
0.932813
0.930429
0.952482
1.144409
1.129508
1.264811
1.275539
5.356669
17.701983
60.041547
117.037892
243.772864
367.283821
541.614890
651.358962
734.594464
724.600554
633.974671
525.434613
353.310704
236.881971
119.561553
63.139796
23.648739
10.900497
8.661747
11.596680
18.454790
28.082728
44.348836
59.551001
79.152584
91.424584
101.375580
102.512836
93.909502
83.078742
63.820481
48.276782
29.570460
20.131469
11.951923
7.107854
4.009604
2.967715
2.529621
2.420545
2.176762
2.136827
2.019405
2.003908
2.122521
2.196431
2.195835
2.113581
2.153516
2.294779
2.194643
2.084970
2.067685
2.035499
2.036691
1.798868
2.170801
1.999736
1.819730
##ZVALUE=315
0.332594
0.332594
0.405908
0.388622
0.539422
0.337958
0.444651
0.312924
0.394583
0.538826
0.526905
0.420809
0.470877
0.484586
0.552535
0.449419
0.485778
0.579953
0.642538
0.329614
0.549555
0.650883
0.503659
0.603795
0.534654
0.632405
0.637770
0.530481
0.718832
0.612736
0.645518
0.531673
0.695586
0.753999
0.878572
1.019835
0.991821
1.210570
1.233816
2.653599
8.710623
37.514567
82.379580
184.760690
299.526453
478.354692
591.101646
696.790814
722.214580
666.912794
574.901700
416.737795
293.950438
156.793594
86.783767
32.466650
14.804602
7.524490
7.623434
10.845661
16.300678
27.473569
39.472580
57.991743
71.724653
88.766813
95.764995
96.777678
88.948607
74.553490
62.189698
43.721795
30.854940
17.747879
11.128783
5.975962
4.140735
2.674460
2.440810
2.270937
1.828671
1.805425
1.921654
2.083778
1.896620
1.857877
1.808405
2.052784
2.031922
1.927614
1.997948
1.878738
1.821518
1.883507
1.838803
1.892447
##ZVALUE=320
0.373721
0.200868
0.237823
0.154972
0.345707
0.365973
0.369549
0.342727
0.405908
0.233650
0.263453
0.405908
0.339746
0.404716
0.513792
0.385642
0.373721
0.565648
0.385642
0.527501
0.402927
0.548959
0.485778
0.481606
0.616908
0.486970
0.550747
0.657439
0.608563
0.576973
0.515580
0.651479
0.578761
0.649691
0.799894
0.753999
0.725985
0.932813
1.033545
1.048446
1.086593
1.447797
4.007816
20.870566
51.003695
132.495761
224.371552
380.264521
502.350926
642.170906
698.983669
696.060658
631.809831
485.870838
358.013511
199.669003
116.865635
49.729943
23.217797
8.799434
6.304979
6.822944
8.944869
14.421940
21.958947
36.216974
50.372481
67.937970
79.530478
88.066459
90.921521
84.378719
74.904561
56.012869
43.642521
26.862621
18.256903
10.283589
6.587505
3.642440
2.762675
2.157688
1.898408
1.813769
1.503825
1.849532
1.713634
1.752973
1.617670
1.857877
1.659989
1.736879
1.792908
1.756549
1.704693
1.797676
##ZVALUE=325
0.132918
0.214577
0.250936
0.276566
0.192523
0.313520
0.255704
0.078678
0.257492
0.242591
0.286698
0.223517
0.388622
0.366569
0.401735
0.299811
0.426769
0.214577
0.318885
0.186563
0.375509
0.270605
0.241995
0.306964
0.240803
0.350475
0.463724
0.275970
0.417829
0.418425
0.420809
0.424981
0.540614
0.406504
0.511408
0.492930
0.514984
0.717640
0.592470
0.717640
0.676513
0.920892
0.883937
1.192689
2.188683
13.108850
34.633875
90.989470
165.357590
309.576988
432.918668
584.125519
660.400987
693.619847
648.732781
517.872572
395.880938
242.909789
147.309899
66.203475
32.398701
11.212826
6.134510
5.615950
6.026626
8.889437
13.112426
21.908879
32.890439
50.236583
63.148737
76.314807
82.815886
83.729625
78.745484
65.336823
53.307414
37.713647
26.774406
15.336871
9.688735
5.275607
3.441572
2.276897
2.064705
1.643896
1.588464
1.708865
1.623631
1.558661
1.702905
1.732707
1.446605
1.547933
1.678467
1.511574
##ZVALUE=330
0.298619
0.434518
0.235438
0.254512
0.389814
0.345707
0.375509
0.435710
0.476837
0.393987
0.314713
0.405908
0.278950
0.453591
0.435710
0.519753
0.368953
0.326633
0.481606
0.488758
0.329614
0.429749
0.505447
0.372529
0.426769
0.395775
0.381470
0.389814
0.349879
0.540614
0.558496
0.458956
0.487566
0.456572
0.605583
0.636578
0.648499
0.542998
0.583529
0.675917
0.810623
0.742674
0.818968
0.728965
0.726581
1.084805
1.402497
5.604625
18.567443
61.994791
119.139552
236.292481
349.638462
508.596897
608.885884
673.515797
657.665730
552.392006
447.305441
293.575525
190.501809
90.259910
46.292543
17.634630
7.674694
5.232692
5.223751
5.854964
7.719994
13.299584
20.349622
31.886697
43.254495
60.483813
71.508884
78.455806
78.679919
72.702765
63.023567
48.831701
36.276579
23.644567
16.430616
9.964705
6.508827
3.828406
2.866983
2.178550
1.977682
1.787543
1.775622
1.679659
1.655817
1.492500
1.552701
1.480579
##ZVALUE=335
0.255704
0.463724
0.434518
0.419617
0.405908
0.235438
0.364780
0.203848
0.257492
0.319481
0.269413
0.357628
0.224710
0.444651
0.402927
0.586510
0.456572
0.445843
0.423789
0.587702
0.422597
0.420809
0.522733
0.511408
0.493526
0.446439
0.571609
0.508428
0.560880
0.703931
0.652671
0.461936
0.518560
0.583529
0.506639
0.769496
0.630617
0.690818
0.651479
0.521541
0.678897
0.771880
0.693798
0.875592
0.787973
0.907779
0.731945
0.932813
1.150966
2.729893
9.419918
37.434697
78.300834
175.037980
280.080438
445.615649
555.148721
644.415617
659.246445
591.874719
498.098731
342.633724
234.059691
121.894479
64.038634
22.950768
10.493994
5.454421
4.683733
4.626513
5.493760
7.545948
11.524558
19.968748
28.973818
43.902993
54.646730
66.915751
72.869658
73.135495
68.879724
58.007836
47.447681
35.443902
25.828481
16.103983
10.666847
6.043911
4.069805
2.547503
2.104640
1.859665
1.777411
1.840591
1.650453
1.625419
##ZVALUE=340
0.303984
0.313520
0.443459
0.165701
0.309944
0.278950
0.439882
0.399947
0.417829
0.414848
0.412464
0.328422
0.456572
0.320673
0.316501
0.417829
0.436902
0.351667
0.416636
0.347495
0.423789
0.475645
0.436902
0.473857
0.506639
0.383854
0.507832
0.475645
0.519753
0.508428
0.503659
0.570416
0.590682
0.384450
0.576973
0.481606
0.537634
0.570416
0.604987
0.523925
0.816584
0.585914
0.506639
0.623465
0.779629
0.821948
0.808835
0.724792
1.020432
0.991821
1.126528
1.409650
4.484653
22.751689
55.699944
137.603879
230.280757
376.334786
485.005975
600.083470
638.389587
602.083802
527.590513
393.188596
279.626846
150.637627
83.013773
31.125546
13.603568
5.776882
4.842877
4.462600
4.596710
5.261898
6.918907
11.696815
17.668605
28.536916
39.050579
52.812696
61.012506
67.906976
69.014430
63.061714
56.777596
44.335723
36.019683
24.571419
17.217994
9.476542
6.341934
3.735423
2.561808
1.965761
1.673698
1.744628
##ZVALUE=345
0.387430
0.402927
0.503659
0.301600
0.471473
0.338554
0.356436
0.377893
0.462532
0.296831
0.392795
0.536442
0.408888
0.270605
0.487566
0.356436
0.387430
0.421405
0.446439
0.379682
0.318885
0.393987
0.462532
0.278950
0.383854
0.375509
0.399947
0.507832
0.363588
0.577569
0.489950
0.409484
0.472665
0.317693
0.535846
0.494719
0.522733
0.473857
0.573993
0.568628
0.419617
0.566840
0.460744
0.777841
0.581741
0.746846
0.719428
0.725985
0.694990
0.834465
0.816584
0.867844
0.915527
0.938773
1.998544
12.166500
34.019947
91.583729
163.164735
295.155644
406.174660
536.162853
599.705577
612.012744
559.107661
434.297919
324.680805
191.859603
110.067725
43.879747
20.477772
7.627606
5.243421
4.486442
4.211664
3.930926
4.555583
6.547570
9.687543
17.328858
25.224686
37.109852
46.388507
55.602789
60.954690
62.991977
61.423779
53.401589
45.317411
33.997893
24.807453
15.878677
10.608435
6.008744
3.940463
2.509952
##ZVALUE=350
0.251532
0.328422
0.301600
0.576973
0.404716
0.317693
0.298619
0.331998
0.349879
0.344515
0.264645
0.366569
0.204444
0.320673
0.478625
0.459552
0.500679
0.497699
0.397563
0.361800
0.478625
0.349879
0.384450
0.491738
0.443459
0.450611
0.469685
0.387430
0.353456
0.426769
0.532866
0.417829
0.466704
0.539422
0.515580
0.651479
0.571609
0.663996
0.442863
0.506639
0.452995
0.483990
0.507832
0.581741
0.648499
0.455976
0.553727
0.676513
0.581741
0.700951
0.665784
0.722408
0.891685
0.951886
1.013875
0.984669
1.358986
6.010532
19.113421
60.622692
116.442442
229.941607
335.452557
469.581485
550.783873
597.729683
572.241545
471.457839
363.016725
225.058794
138.494968
62.554479
29.609799
9.476542
5.312562
4.354715
3.984571
3.523827
3.596544
4.210472
5.536675
9.219646
14.404655
22.826791
30.535460
41.549802
49.237609
56.055784
57.261586
56.230426
51.457882
40.966868
33.586621
23.733974
17.081499
10.282993
##ZVALUE=355
0.348687
0.378489
0.322461
0.462532
0.463724
0.215769
0.316501
0.368953
0.315905
0.335574
0.306964
0.370741
0.408888
0.412464
0.569820
0.262856
0.386834
0.336766
0.472665
0.418425
0.376701
0.315905
0.305772
0.505447
0.205636
0.373721
0.364780
0.513792
0.398755
0.437498
0.368953
0.506639
0.365973
0.420809
0.355840
0.325441
0.477433
0.395775
0.538826
0.516772
0.568628
0.527501
0.463724
0.604987
0.550747
0.605583
0.598431
0.682473
0.582933
0.697970
0.663996
0.604987
0.731945
0.671744
0.726581
0.788569
0.904799
0.868440
1.181960
3.126860
10.425448
39.826632
81.532001
171.692967
270.336866
414.861441
506.506562
576.102734
573.831797
496.223569
399.375558
260.768533
164.024830
73.784590
36.740899
13.391972
6.254911
4.150867
3.925562
3.531575
3.360510
3.228784
3.616810
5.314946
7.344484
12.554526
18.406510
27.813911
34.995675
43.295622
49.999952
52.936673
51.340461
46.428442
40.064454
30.613542
##ZVALUE=360
0.359416
0.416636
0.375509
0.285506
0.329614
0.232458
0.375509
0.389814
0.206828
0.406504
0.321865
0.451803
0.410676
0.276566
0.349879
0.470877
0.425577
0.489950
0.280738
0.367761
0.410676
0.287890
0.386834
0.487566
0.427961
0.485778
0.429749
0.349879
0.570416
0.401735
0.447631
0.564456
0.489950
0.488758
0.532866
0.531673
0.379682
0.470877
0.471473
0.453591
0.606775
0.508428
0.372529
0.638962
0.524521
0.569820
0.524521
0.495911
0.470877
0.588894
0.545979
0.585914
0.652671
0.662804
0.813603
0.755787
0.587702
0.772476
0.810623
0.900626
1.046658
1.371503
5.419850
17.314553
56.552887
109.012723
216.449499
321.784616
460.347533
536.726713
566.702485
534.083843
432.806611
330.367684
199.131966
119.226575
52.529573
23.282766
7.540584
4.356503
3.689528
3.253818
3.204942
3.108978
3.258586
3.196597
4.243851
5.743504
9.862781
14.328957
22.441745
29.430985
38.003922
43.369532
47.528744
47.420859
##ZVALUE=365
0.335574
0.333786
0.323653
0.331998
0.375509
0.374913
0.412464
0.329614
0.275970
0.288486
0.423789
0.315905
0.332594
0.356436
0.289679
0.389814
0.499487
0.421405
0.355840
0.274777
0.295639
0.246763
0.286698
0.365973
0.370741
0.364780
0.505447
0.437498
0.399947
0.492930
0.414848
0.352859
0.350475
0.423789
0.485778
0.386834
0.349879
0.329614
0.442863
0.498891
0.511408
0.562668
0.533462
0.671744
0.427961
0.448823
0.483990
0.632405
0.495911
0.558496
0.589490
0.571609
0.688434
0.644922
0.582933
0.491738
0.655651
0.634789
0.731945
0.713468
0.856519
0.967979
0.964999
1.203418
1.974702
10.432601
30.362606
84.795952
153.458714
274.586678
375.984907
487.586856
539.008975
530.148745
470.077991
347.693563
249.818563
137.501955
76.404810
29.147863
12.523532
4.736781
3.840923
3.424883
3.101826
2.938509
2.539754
2.493858
2.644658
3.351569
4.833937
8.412600
11.829734
17.899871
24.446845
31.843781
##ZVALUE=370
0.377893
0.425577
0.371933
0.402927
0.346899
0.282526
0.315905
0.348687
0.352859
0.242591
0.420809
0.320673
0.321865
0.375509
0.360608
0.438690
0.277758
0.365973
0.475645
0.433922
0.483990
0.429749
0.462532
0.384450
0.245571
0.335574
0.407696
0.337958
0.396967
0.467896
0.466704
0.445843
0.410676
0.418425
0.464916
0.341535
0.342727
0.477433
0.362992
0.312924
0.343919
0.421405
0.257492
0.522733
0.480413
0.498891
0.531673
0.572801
0.585914
0.453591
0.536442
0.493526
0.593662
0.472665
0.533462
0.630617
0.592470
0.636578
0.647902
0.532866
0.699759
0.790954
0.832677
0.838637
0.891685
1.116991
1.525879
4.762411
23.430586
56.556463
132.503510
211.056471
336.015821
431.126952
518.850684
535.723567
489.267707
403.669477
271.554589
178.462863
84.969997
44.237971
16.851425
7.488728
3.748536
3.248453
3.067851
2.725720
2.578497
2.474785
2.416968
2.317429
2.877712
4.061460
6.948709
10.206699
##ZVALUE=375
0.362992
0.416636
0.245571
0.411868
0.350475
0.388622
0.491738
0.523925
0.419617
0.355840
0.308752
0.263453
0.389814
0.348687
0.338554
0.373721
0.460744
0.493526
0.447631
0.467896
0.257492
0.257492
0.286698
0.371933
0.439882
0.275970
0.505447
0.377893
0.413656
0.587702
0.365973
0.502467
0.481606
0.490546
0.335574
0.441670
0.396967
0.471473
0.326633
0.439882
0.410676
0.422597
0.339746
0.327826
0.493526
0.396967
0.460744
0.459552
0.307560
0.420809
0.500679
0.464916
0.559688
0.303984
0.457764
0.556707
0.598431
0.448823
0.517964
0.502467
0.584722
0.662804
0.585914
0.741482
0.805855
0.762939
0.803471
0.760555
1.072884
2.958775
10.214448
36.831498
78.438520
172.842741
266.841650
398.964882
480.026007
529.958010
519.254804
434.466600
342.413783
211.616755
132.833719
61.395764
31.282902
10.730624
4.961491
3.070831
2.941489
2.688766
2.736449
2.240539
2.230406
2.251863
2.174973
2.617836
##ZVALUE=380
0.321865
0.462532
0.350475
0.268817
0.458956
0.373721
0.358820
0.277758
0.326633
0.320673
0.438690
0.274777
0.264645
0.283718
0.473857
0.404716
0.278950
0.282526
0.211596
0.323653
0.327826
0.489950
0.291467
0.389814
0.458956
0.330806
0.434518
0.341535
0.366569
0.412464
0.279546
0.305772
0.437498
0.398755
0.354648
0.437498
0.503659
0.508428
0.407696
0.443459
0.395775
0.306964
0.321865
0.398755
0.454783
0.399947
0.558496
0.454783
0.460744
0.558496
0.587702
0.288486
0.376701
0.497699
0.470877
0.489950
0.455976
0.692606
0.537634
0.597835
0.411868
0.648499
0.564456
0.536442
0.576973
0.692606
0.579953
0.834465
0.809431
0.887513
0.942945
1.860857
6.234646
27.322769
60.402751
132.641792
217.659473
350.279808
441.537499
514.242649
522.094965
455.862880
376.545787
264.709592
178.635716
88.402629
45.801997
16.431808
7.467866
3.562570
2.806783
2.551675
2.724528
2.413988
2.316833
2.316833
##ZVALUE=385
0.265837
0.372529
0.303984
0.369549
0.321865
0.339746
0.425577
0.365973
0.401735
0.253916
0.208616
0.359416
0.415444
0.171661
0.338554
0.261664
0.105500
0.291467
0.259876
0.387430
0.284910
0.329614
0.357628
0.368953
0.282526
0.309944
0.333786
0.250936
0.357628
0.363588
0.325441
0.568628
0.523925
0.484586
0.471473
0.634789
0.499487
0.461936
0.437498
0.397563
0.391603
0.399947
0.440478
0.577569
0.475645
0.425577
0.476837
0.448823
0.515580
0.284910
0.513792
0.349879
0.392795
0.457764
0.496507
0.546575
0.516772
0.259876
0.420809
0.354648
0.334978
0.562668
0.475645
0.521541
0.509620
0.614524
0.663996
0.749826
0.821948
0.762939
0.813603
0.980496
0.916719
1.312494
2.769828
14.400482
37.409663
93.804002
166.243911
290.576816
387.311578
483.066440
512.278676
488.575697
431.980491
318.491459
227.936506
125.453472
71.742535
29.668808
12.472868
4.135966
3.040433
2.693534
2.336502
2.539754
##ZVALUE=390
0.384450
0.223517
0.280738
0.291467
0.224710
0.216961
0.218749
0.266433
0.295639
0.154972
0.251532
0.388622
0.145435
0.262856
0.171661
0.144839
0.212789
0.281930
0.330806
0.352859
0.310540
0.261664
0.268817
0.369549
0.471473
0.413656
0.194907
0.234842
0.426769
0.420809
0.321865
0.345707
0.419617
0.377893
0.416636
0.480413
0.568628
0.329614
0.487566
0.302792
0.473857
0.478625
0.472665
0.494719
0.432730
0.455976
0.345707
0.382662
0.408888
0.371933
0.370741
0.418425
0.407696
0.382662
0.399947
0.318885
0.472665
0.419617
0.445843
0.342727
0.314713
0.538826
0.389814
0.406504
0.500679
0.554919
0.532866
0.547767
0.583529
0.740886
0.697970
0.658631
0.733733
0.953674
0.888705
0.946522
1.620650
7.521510
22.928715
70.527792
131.949782
246.499777
335.755944
436.638594
492.467880
509.474874
473.995805
377.779007
288.356543
176.011920
103.382468
43.050647
19.624829
6.032586
3.362894
2.527833
##ZVALUE=395
0.392795
0.361800
0.456572
0.394583
0.332594
0.261664
0.243783
0.413656
0.319481
0.232458
0.332594
0.343919
0.270605
0.311732
0.310540
0.363588
0.401735
0.137687
0.307560
0.462532
0.288486
0.300407
0.302792
0.439882
0.463724
0.341535
0.442863
0.321865
0.476837
0.428557
0.471473
0.523925
0.492930
0.628829
0.567436
0.486970
0.532866
0.432730
0.656843
0.468493
0.424981
0.573993
0.424981
0.492930
0.370741
0.500679
0.452995
0.536442
0.481606
0.506639
0.512600
0.412464
0.412464
0.500679
0.443459
0.549555
0.504851
0.548959
0.503659
0.432730
0.459552
0.376701
0.304580
0.412464
0.481606
0.632405
0.609756
0.638962
0.670552
0.623465
0.799894
0.777841
0.720620
0.626445
0.702739
0.822544
0.822544
0.949502
1.161695
4.233718
14.958978
50.725937
96.424818
183.424950
271.437764
395.444632
471.330881
519.717932
508.667827
437.214971
345.130563
218.724608
136.646628
60.786605
29.902458
10.003448
##ZVALUE=400
0.475645
0.512600
0.325441
0.401735
0.319481
0.247955
0.525713
0.429749
0.311732
0.276566
0.369549
0.322461
0.273585
0.438690
0.375509
0.374913
0.445843
0.202656
0.148416
0.282526
0.304580
0.492930
0.154972
0.473857
0.287890
0.402927
0.327826
0.516772
0.417829
0.514984
0.682473
0.679493
0.496507
0.551939
0.679493
0.607967
0.561476
0.737906
0.559688
0.529885
0.393987
0.626445
0.576973
0.471473
0.544786
0.563860
0.467896
0.400543
0.600815
0.593662
0.459552
0.687838
0.543594
0.593662
0.505447
0.608563
0.706911
0.599623
0.558496
0.634789
0.542998
0.637770
0.501871
0.592470
0.540614
0.424981
0.486970
0.627637
0.701547
0.718832
0.674725
0.754595
0.738502
0.636578
0.707507
0.593662
0.735521
0.721812
0.755787
0.887513
0.914931
2.435446
7.924438
28.450489
62.141418
138.509870
221.167803
343.182683
426.147580
497.590899
507.710576
452.061892
375.502706
253.264904
167.822838
85.865855
##END
