##TITLE=FQP00651
##FORMAT=SPECTACLE-ASCII V-1.2
##DATA TYPE=ULTRAVIOLET SPECTRUM
##SECOND TYPE=ULTRAVIOLET SPECTRUM
##DATE=01/21/18
##TIME=16:54:24
##SPECTROMETER/DATA SYSTEM=SPECTACLE
##XUNITS=NM EM
##YUNITS=ENERGY
##YFACTOR=1
##FIRSTX=220
##LASTX=410
##NPOINTS=96
##3DDATA=Equidistant
##ZUNITS=NM EX
##FIRSTZ=210
##LASTZ=400
##ZPOINTS=39
##XYDATA=(Y..Y)
##ZVALUE=210
1.310706
1.445413
1.541972
1.504421
1.372695
1.518726
1.532435
1.571774
1.788735
1.394749
1.561642
1.724958
1.315475
1.812577
2.147555
1.677871
1.515746
1.683831
1.405478
2.186894
2.105832
1.982450
2.493858
2.586842
2.611876
2.720952
2.496839
3.136992
3.217459
2.560616
3.367662
3.193617
3.763437
4.165769
3.449917
3.640652
3.600717
3.343821
2.877712
3.472567
3.103614
3.489852
3.842711
3.587604
3.739595
3.253818
3.364682
3.222823
3.340840
3.562570
3.355742
2.557635
2.684593
2.742410
3.470778
3.283620
3.293753
3.239512
2.821684
3.227592
2.195835
3.149509
2.989769
3.274679
3.202558
3.554821
3.295541
3.772974
3.964901
4.725456
5.111694
5.108714
6.916523
6.855726
6.934404
6.520748
6.823540
7.544756
7.424951
5.574822
4.868507
5.101562
3.829598
3.952980
4.232526
3.154874
3.063679
2.438426
3.163815
3.361702
2.941489
2.755523
3.017783
3.620982
3.485680
4.601479
##ZVALUE=215
3.885627
3.234744
3.678799
3.308654
3.295541
3.941655
2.909899
3.533959
3.189445
3.202558
3.599524
2.783537
3.073812
1.759529
2.454519
2.516508
1.943707
1.672506
1.741648
2.347827
2.200603
1.926422
2.335906
2.332926
2.486706
2.772808
3.000498
3.189445
3.493428
3.872514
4.966855
4.332662
5.533695
5.337000
5.438924
4.998446
5.623698
5.276799
4.771948
5.596876
5.297661
4.629493
4.799962
4.329681
3.884435
4.335642
3.890991
3.740788
3.628731
4.054904
3.502965
3.869534
3.122687
3.691912
3.448725
3.320575
3.467798
3.913641
3.186464
3.639460
3.059506
3.143549
3.189445
3.088713
3.115535
3.527999
3.581643
3.930926
4.600883
4.759431
4.432797
5.660653
5.994439
6.115437
7.046461
6.848574
7.110834
5.803704
6.214976
5.368590
5.196929
5.277991
4.323721
4.012585
4.096627
3.812909
3.183484
3.042817
3.016591
2.875924
2.716780
2.717972
3.073812
3.547668
3.126860
3.262758
##ZVALUE=220
11.173487
11.335611
14.046431
14.745593
13.079643
13.267994
9.994507
8.015633
7.592440
8.012652
9.992719
10.218620
9.703636
8.264780
9.171963
6.555915
4.524589
3.294945
2.501607
2.607703
2.566576
2.323985
2.417564
2.323985
3.038645
3.736615
3.803968
4.544854
5.931854
6.094575
6.392598
7.810593
7.894635
8.182526
8.338690
8.776784
8.156896
8.161664
7.471442
7.817745
7.934570
7.717609
6.488562
6.268620
5.673766
6.272793
5.016923
5.366802
5.672574
5.457997
4.782677
5.088449
4.609823
4.880428
4.140735
4.674792
4.203916
4.221797
4.178882
4.641414
4.359484
2.981424
4.095435
4.265904
4.376769
4.308820
4.351735
4.861951
4.210472
4.857779
5.089641
5.760789
6.480813
7.874966
8.502603
7.717609
7.554889
7.393956
7.177591
6.565452
6.015897
6.023645
4.768968
4.874468
4.995465
4.458427
4.104972
3.998876
3.787875
3.591776
3.821850
3.197789
3.864765
4.324913
3.310442
4.229546
##ZVALUE=225
21.070838
20.996928
28.811693
37.886500
43.699741
46.471953
42.284727
39.099455
30.301809
24.477839
19.594431
20.657778
20.628572
22.054911
23.969412
20.691752
20.529628
16.127825
11.508465
7.641912
5.656481
3.745556
3.237724
2.793670
3.839731
3.702641
4.857779
6.087422
6.918907
8.013844
9.642839
9.233952
9.106994
9.830594
11.233687
10.583997
11.351705
10.309815
10.988712
9.738803
10.212660
9.978414
9.716749
8.149743
8.538961
7.497668
7.023811
7.134676
6.192923
6.592870
5.844831
6.070733
5.621910
6.134510
6.041527
5.773902
5.857944
5.777478
5.783439
4.979968
4.672408
5.104542
4.864931
5.559921
5.015731
6.369948
5.405545
5.892515
5.339980
6.435513
6.548762
7.381439
6.578565
8.306503
9.145737
7.571578
8.715987
7.927418
7.783771
7.884502
7.633567
7.654428
6.448627
6.702542
5.990863
6.487966
5.952716
5.161762
5.532503
6.304979
5.669594
5.422831
5.341768
6.158948
5.337000
5.118847
##ZVALUE=230
19.303560
22.113919
35.111904
57.451725
79.082847
105.036497
116.439462
123.367906
116.022825
97.007751
72.741508
54.411888
41.355491
41.037798
44.934750
43.571591
47.641993
45.566559
45.193434
33.461452
27.384758
18.776655
12.023449
6.397963
5.288720
4.698634
5.665421
5.831718
6.567836
8.115768
8.772612
9.663701
9.401441
10.881424
11.087656
11.184812
9.555817
11.095405
10.878444
10.038614
10.806918
9.950995
9.052753
9.476542
8.372664
8.480549
7.260442
8.678436
7.820725
7.194877
6.927848
6.658435
6.230474
6.599426
7.141829
6.698966
6.878972
6.570816
7.480979
6.667972
6.686449
7.353425
7.177591
7.349849
7.504821
7.452965
7.090569
7.676482
8.372664
8.803606
8.870959
9.401441
10.606647
12.459755
10.704994
11.265874
10.352731
11.887550
11.145473
11.151433
10.250807
9.494424
10.541677
9.618998
9.369850
9.645820
10.463595
9.842515
8.917451
9.044409
8.798838
8.941889
8.681417
9.363890
9.137988
8.332729
##ZVALUE=235
6.665587
7.921457
17.287731
42.358637
68.152547
118.656754
158.615708
216.159821
240.448713
249.538422
223.500729
188.903809
135.903955
101.271868
76.083541
66.680908
68.396926
72.233677
82.452893
82.745552
76.233745
68.150759
52.204728
34.843683
23.809671
13.909936
10.057688
6.861687
6.265640
7.039905
7.015467
7.459521
8.388758
9.102821
8.994937
9.698868
8.772612
9.067655
9.000897
9.046793
8.122921
8.618832
8.139610
8.701682
8.017421
8.411407
8.747578
8.599758
8.045435
7.452965
7.439852
7.662773
8.203983
7.649660
7.119775
7.477999
8.329749
8.464456
8.142591
8.525848
9.904504
9.136796
9.114742
9.229779
10.846853
10.124445
10.433793
10.022521
10.385513
11.874437
11.881590
13.253689
13.503432
14.744997
13.671517
14.329553
14.023781
16.187429
14.640689
15.090704
15.473962
14.817715
14.941692
14.153719
15.008450
13.409853
15.021563
13.592839
13.426542
12.987852
13.945699
13.115406
14.008880
13.085604
12.796521
13.037920
##ZVALUE=240
1.046658
1.435876
3.760457
9.584427
25.300980
55.121779
111.436844
169.451833
261.013508
335.962772
375.798941
384.939909
355.945826
301.030874
234.946609
155.651569
118.965507
94.342828
93.679428
103.222728
110.387802
119.354725
113.032460
101.471543
80.680847
65.486431
47.140718
32.745600
18.865466
12.312531
10.501742
7.867813
7.096529
7.855892
8.095503
8.298755
8.155704
8.175969
8.968711
8.678436
8.380413
8.768439
7.730722
8.820891
9.968877
8.770823
7.523894
8.761883
8.516908
8.284450
7.750988
8.790493
8.779764
9.152889
8.526444
8.704662
8.536577
9.157658
8.757710
8.505583
9.239912
10.512471
9.503961
10.015965
10.658503
11.997819
11.693835
11.848807
11.925697
14.583468
12.300611
15.355945
15.737414
16.479492
18.831491
16.491413
17.911792
16.865730
17.923713
18.106699
17.942786
17.706752
17.984509
18.038750
17.014742
17.617941
18.196702
17.675757
17.189980
16.886592
17.549992
17.452836
16.893744
17.179847
16.742945
16.305447
##ZVALUE=245
1.240969
1.056790
0.872612
1.644492
2.176762
8.498430
19.963980
58.248639
107.031465
190.906525
270.442963
385.366678
438.748598
469.483733
460.011959
383.269787
307.190418
231.416821
149.606466
117.132664
96.567869
97.934008
116.048455
127.551556
131.499767
129.857659
115.654469
94.859004
70.300698
54.441690
34.228563
23.565888
14.573932
10.440946
9.783506
8.964539
9.232759
9.715557
9.159446
9.473562
8.890629
9.988546
9.886622
9.464622
9.098649
8.830428
8.047819
8.236766
8.007884
8.573532
8.786917
8.515716
8.171797
8.030534
8.908510
8.890629
7.610917
9.099841
8.728504
9.220839
9.062886
9.107590
9.747744
10.100603
10.391474
10.533929
10.416508
12.100935
12.316704
11.525750
13.286471
14.014840
15.286803
16.185641
17.229915
17.707944
17.344952
17.945766
17.071962
16.945601
17.410517
16.526580
17.138720
17.544627
17.712712
17.676950
17.718673
18.964410
17.677546
17.241836
17.171502
17.877817
18.205643
18.737912
16.734600
17.537475
##ZVALUE=250
1.044869
0.908971
0.966787
1.108646
0.852942
1.079440
1.363754
5.706549
15.798807
35.609007
94.316602
169.011950
284.151435
376.935005
473.150611
525.574684
528.782606
487.111807
395.611525
298.090577
212.572813
130.855441
100.685954
91.756582
104.012489
127.653480
135.905743
143.915415
139.327645
124.559999
108.389854
79.654455
61.192513
37.351847
25.702715
17.546415
14.170408
11.183619
11.264682
10.697842
11.366606
11.475682
11.103749
10.628700
10.472536
10.684729
10.532737
9.458661
9.480715
9.313822
9.894967
9.084940
7.904768
9.336472
8.746982
7.974505
7.691979
8.017421
7.849932
8.325577
8.252859
8.563995
9.013414
9.114742
10.169744
9.554625
10.227561
10.668635
10.972619
11.054873
12.197495
13.877749
14.431477
14.719963
15.824437
16.474724
16.836524
15.945435
16.648769
15.993714
15.586615
17.111897
16.380548
17.008781
17.188787
16.974807
16.687512
18.594861
16.628504
17.790794
16.670823
17.514825
17.832518
16.628504
17.575622
18.675923
##ZVALUE=255
0.802875
0.709891
0.778437
0.769496
0.804663
0.954866
0.937581
0.855923
1.105666
2.998710
12.786984
30.647516
67.637563
149.490833
233.402848
365.820527
469.208956
558.979511
598.769784
567.727685
501.213670
400.929451
256.901979
175.249577
103.891492
86.870790
89.175701
105.682611
131.870508
145.522952
155.558586
150.278807
137.840509
112.433434
90.720654
61.360002
45.010448
28.768778
20.696521
14.959574
13.149977
11.846423
12.450814
12.666583
12.446642
11.278987
11.105537
9.872913
9.785891
9.590983
8.916855
8.575916
8.884668
8.489490
8.253455
8.447766
7.610917
8.016825
7.621646
8.510947
7.853508
8.348823
8.631945
7.802844
8.292794
8.707643
8.831620
9.901524
9.652972
10.572672
10.791421
11.321902
11.858940
13.515949
14.179945
13.852715
13.992786
13.871789
14.208555
14.728904
13.830662
14.723539
15.900731
15.122890
15.195608
15.575886
15.780926
15.582442
16.404986
16.096830
16.243458
17.057657
17.989874
16.867518
16.567707
17.224550
##ZVALUE=260
0.598431
0.676513
0.773668
0.763535
0.675917
0.803471
0.922680
0.879765
0.941753
1.031756
1.021624
1.473427
4.729629
19.699931
46.284795
117.427707
196.372867
327.108502
436.200500
575.041771
648.605824
661.095977
588.061810
485.889912
323.341489
226.616859
136.579871
95.688701
79.627633
86.708665
106.340647
140.404701
156.731606
165.592432
161.672831
142.962933
122.676492
92.784762
70.535541
46.637654
33.125877
21.045804
17.432570
13.771653
14.342666
12.947917
12.418628
11.752844
12.305975
12.048483
10.997653
9.572506
10.255575
9.177923
9.445548
8.835793
8.184910
8.265972
8.175969
7.447600
7.828474
8.088946
8.307695
7.569790
7.993579
9.249449
8.343458
9.020567
8.915663
9.883642
10.604858
10.266900
10.891557
12.154579
12.388825
12.707710
13.100505
12.708902
13.440847
14.291406
13.782978
14.061928
14.530420
13.900995
14.791489
14.510751
15.466809
15.087724
15.574694
15.256405
15.902519
15.384555
16.121864
17.079711
16.158819
17.409921
##ZVALUE=265
0.477433
0.728965
0.567436
0.658631
0.907779
0.616908
0.734925
0.802875
0.854731
0.947714
0.823736
1.088977
1.007915
1.416802
2.573729
14.563799
34.354925
89.807510
162.059665
305.144787
427.418947
542.807579
673.512816
708.914995
655.568838
569.593906
427.402854
302.695632
173.734426
114.617944
79.226494
74.621439
94.566941
119.124651
147.753954
162.033439
170.509815
162.683725
143.585801
122.920871
89.705586
67.898631
45.365691
32.663941
21.228790
16.267896
13.676882
13.231635
11.882782
11.542439
10.229945
10.407567
9.989738
9.829998
9.865761
9.547472
8.878708
8.997917
8.377433
8.512735
7.768869
8.581877
8.976460
8.923411
7.897615
8.507967
8.309484
9.350777
9.574890
9.456873
10.480881
10.609627
10.774732
11.349916
11.335611
12.082458
12.608767
12.082458
12.215972
12.804866
12.976527
13.452768
14.132857
12.936592
13.449788
13.305545
14.083982
13.971925
14.351606
14.205575
13.905764
14.673471
15.313625
15.170574
15.665889
15.349984
##ZVALUE=270
0.592470
0.338554
0.602603
0.563860
0.529885
0.529885
0.707507
0.616908
0.896454
0.658631
0.856519
0.837445
0.782609
1.021624
1.023412
1.214743
1.393557
5.985498
18.609762
60.070753
120.146871
217.137933
389.112830
528.934002
680.638552
743.711591
732.516646
669.019818
529.753566
404.155850
279.498696
153.964758
96.196532
67.502856
71.147680
96.643567
119.628906
147.938728
161.314607
165.264606
162.038803
144.293904
123.299956
90.271831
67.672729
43.669939
30.949712
20.017624
14.886856
12.406707
10.923743
10.542870
9.987950
9.822845
9.184480
9.054542
8.963943
9.256601
9.254813
8.489490
8.774996
8.373857
8.585453
8.868575
8.726716
9.098649
9.198785
9.380579
9.657741
9.876490
10.002851
10.886788
10.856986
11.340976
11.625886
11.793971
11.306405
11.699796
12.335777
12.285709
12.460947
12.511611
12.650490
13.504624
13.288856
13.522506
13.971925
13.473630
13.322830
12.963414
13.935566
13.221502
14.124513
14.198422
15.088916
15.139580
##ZVALUE=275
0.572801
0.764728
0.659823
0.681877
0.799894
0.718832
0.838637
0.930429
0.714660
0.823736
0.893474
0.831485
0.966787
0.777841
0.822544
1.210570
1.035929
1.294613
1.378655
3.031492
11.068583
31.506419
92.604756
176.038742
336.298943
469.022989
618.858933
716.910958
762.828588
723.859668
645.067692
484.626889
343.950987
188.127756
114.265680
62.610507
53.249598
67.502856
88.603497
117.293596
138.183832
157.833695
163.247585
158.080459
141.258836
114.529729
90.776682
63.314438
45.076609
27.893782
19.164681
13.355613
10.448694
9.729862
9.253621
9.334683
9.385943
9.263754
9.425879
9.276867
9.536743
10.004640
9.561777
9.930730
9.385943
9.714961
9.435415
10.249615
10.070801
10.832548
10.863543
11.598468
12.333989
12.510419
12.153983
12.251735
12.352467
12.049675
12.202859
12.663603
13.025999
12.838840
12.322664
13.427734
12.471676
13.129711
13.157725
12.641549
13.183951
12.763739
13.421774
13.313890
13.770461
13.599992
12.859702
13.999939
##ZVALUE=280
0.623465
0.483990
0.380874
0.428557
0.638962
0.457764
0.383854
0.600815
0.519753
0.628829
0.611544
0.519753
0.501871
0.644922
0.517964
0.655651
0.601411
0.799894
0.975728
0.997782
1.161695
1.332760
6.832480
21.512508
73.382854
134.158731
261.340737
385.880470
565.096736
671.186447
752.998590
746.482611
682.229996
524.333715
392.889977
229.522586
137.068629
67.899823
43.909550
43.560863
56.687593
84.190965
107.498765
133.809447
147.589445
154.396892
149.533749
130.555630
113.958716
83.242655
62.453747
39.725900
26.323795
16.778708
11.456609
9.734631
8.702874
8.483529
9.404421
9.745955
9.430647
9.698868
10.129809
10.685921
10.140538
10.346770
10.957718
11.058450
11.570454
11.119843
11.987686
12.473464
12.343526
12.841821
12.780428
12.794733
12.491941
12.705922
13.627410
12.751818
13.582706
12.633801
12.915730
12.871623
13.066530
13.304949
12.736917
13.479590
12.585521
12.877584
12.482405
12.941957
13.052821
12.835860
12.147427
12.581944
##ZVALUE=285
0.305772
0.452995
0.360608
0.370741
0.313520
0.272989
0.414848
0.384450
0.460744
0.563860
0.726581
0.464916
0.504851
0.591874
0.581741
0.525713
0.669956
0.558496
0.510812
0.829697
0.906587
1.109838
0.891685
1.092553
3.243685
11.196733
39.922595
83.543658
190.953016
300.666690
400.907993
594.019890
701.946616
753.760934
721.308589
592.060685
466.067791
290.737748
184.473991
88.609457
49.402714
30.270815
34.282804
55.521727
74.302554
103.731751
123.434663
144.519806
150.207877
144.410729
131.922960
109.761953
88.053942
61.864853
43.368936
26.003718
18.829703
12.823939
10.908842
9.783506
10.440946
10.565519
10.768771
11.480451
10.904670
11.375546
12.340546
12.138486
12.845993
13.363957
12.773871
13.415813
12.909770
13.613701
13.531446
13.594627
13.339520
13.720989
13.229847
13.656616
13.245940
13.810992
13.744831
13.722777
12.859702
12.943745
12.938976
13.123751
13.436675
12.626648
12.436509
12.195706
12.196898
12.380481
12.075901
12.405515
##ZVALUE=290
0.421405
0.451803
0.575781
0.451803
0.436902
0.499487
0.547767
0.516772
0.609756
0.576973
0.557899
0.690818
0.594854
0.782609
0.817776
0.642538
0.654459
0.765920
0.848770
0.824928
0.880957
0.831485
0.912547
1.021624
1.014471
1.202822
1.587868
4.734993
21.283627
52.690506
105.470419
226.717591
350.390673
533.818603
651.924610
741.816759
740.280747
646.072626
533.251762
362.910628
242.545009
124.195814
67.248940
30.437708
23.842454
35.406947
47.485828
72.698593
92.699528
120.839477
135.041475
145.133734
143.853426
127.672553
109.909773
81.678629
62.559843
42.277575
29.791594
19.784570
15.243888
12.969971
12.560487
12.505651
12.762547
12.925863
13.160706
12.789965
13.510585
13.941526
14.699697
13.757944
14.501810
15.012622
14.501810
14.961958
14.432669
14.508963
14.882684
14.138818
14.610887
14.169812
14.381409
14.326572
13.568997
13.981462
14.405847
13.716817
13.252497
13.468862
13.049841
12.723804
12.827516
12.147427
12.174845
12.179613
##ZVALUE=295
0.405908
0.294447
0.220537
0.291467
0.484586
0.346899
0.250936
0.485778
0.348687
0.472665
0.519753
0.272989
0.442863
0.463724
0.408888
0.455976
0.515580
0.647902
0.668764
0.470877
0.530481
0.721812
0.689626
0.662804
0.807643
0.637770
0.750422
0.983477
1.088977
1.862645
6.995797
31.435490
75.131655
177.055597
288.452506
465.031862
589.675903
709.421635
739.019513
687.462687
593.208671
427.763462
299.343467
162.476897
90.224743
35.509467
21.325946
20.629764
28.468966
48.247576
66.041946
92.010498
110.000968
131.117702
137.902498
134.619474
126.007795
105.133653
85.164905
61.629415
46.252608
29.827952
22.070408
16.404986
14.751554
13.852715
13.528466
14.253855
14.117956
14.414787
14.849901
14.610887
14.891624
14.974475
15.274882
15.311837
15.390515
15.435815
15.014410
14.644861
15.199780
14.660954
14.761686
14.349818
14.405847
14.181733
13.635755
14.048815
13.669729
13.159513
13.132691
12.804866
12.818575
12.821555
12.504458
11.999607
##ZVALUE=300
0.211596
0.322461
0.378489
0.355840
0.350475
0.313520
0.260472
0.352859
0.375509
0.344515
0.311732
0.437498
0.414848
0.331998
0.367761
0.543594
0.609756
0.589490
0.328422
0.352859
0.458956
0.504851
0.588894
0.505447
0.617504
0.716448
0.657439
0.594854
0.873804
0.729561
1.305938
1.164675
4.405975
15.581846
55.038929
110.085607
231.302977
359.482765
530.624986
634.806752
719.927549
719.112754
634.747744
525.039434
348.508954
230.153799
118.149519
65.029860
25.936961
15.870929
18.701553
26.549697
43.376684
58.600903
85.526705
104.059577
125.002861
133.443475
132.659674
125.426650
103.271604
84.931850
60.732961
47.563910
31.909943
23.812652
17.587543
15.109777
14.130473
14.390945
14.784932
14.675856
14.798641
15.051961
15.396476
15.386939
15.413761
15.263557
15.105605
15.145540
15.028715
14.798641
14.707446
14.750957
14.160872
14.267564
14.085770
13.955832
13.338923
13.831854
13.499856
12.627840
12.621880
12.607574
12.911558
12.369752
##ZVALUE=305
0.262856
0.152588
0.327826
0.303984
0.236630
0.147820
0.280738
0.227690
0.317693
0.234842
0.391603
0.149608
0.078678
0.206828
0.203848
0.369549
0.390410
0.346899
0.364780
0.462532
0.304580
0.483990
0.487566
0.533462
0.485778
0.629425
0.675917
0.611544
0.525713
0.627637
0.716448
0.751615
1.044869
1.021624
1.670718
10.613799
29.973984
88.563561
162.623525
307.136774
433.971882
595.566630
681.701899
720.293522
672.295690
538.073778
422.668457
271.953940
173.006654
79.225898
41.176677
17.533898
13.282895
17.634630
24.925470
41.339993
58.577657
82.117915
98.622441
118.797421
127.205849
126.600862
118.262768
100.356936
82.840919
59.088469
44.776797
30.904412
23.346543
17.124414
15.484691
14.390945
14.337897
14.207959
14.212728
14.216900
14.318824
14.308691
14.358759
14.144778
14.840961
14.432669
14.621615
14.795661
13.942719
14.065504
14.177561
13.946891
13.546944
13.513565
13.325810
12.746453
12.577772
12.778640
12.330413
11.956692
##ZVALUE=310
0.153780
0.208616
0.310540
0.305772
0.176430
0.177622
0.250936
0.404716
0.229478
0.286698
0.371933
0.257492
0.271797
0.292659
0.224710
0.224710
0.303984
0.369549
0.303984
0.452995
0.356436
0.476837
0.291467
0.589490
0.375509
0.474453
0.438690
0.519753
0.529885
0.553727
0.619888
0.751615
0.771880
0.827909
0.936985
0.962615
1.120567
4.594922
15.383959
53.419471
107.020736
226.358771
346.097946
516.322851
626.725554
709.285736
704.033971
613.952875
509.958863
341.210961
227.539539
116.227865
64.412951
25.580525
13.644695
12.256503
15.727878
24.104714
35.093427
54.098964
71.344972
93.226433
107.241869
118.184686
119.763613
111.806989
98.393559
78.605413
61.680675
41.790605
32.240748
22.401810
17.425418
15.135407
14.056563
13.385415
13.490915
13.792515
13.711452
14.158487
14.126897
13.834834
14.152527
14.208555
13.936758
13.926625
13.523698
13.820529
13.624430
13.156533
12.885928
13.209581
12.441874
12.123585
12.052655
12.381673
##ZVALUE=315
0.222921
0.212789
0.201464
0.263453
0.198483
0.174642
0.222921
0.318885
0.304580
0.273585
0.366569
0.151992
0.323653
0.248551
0.439882
0.101924
0.279546
0.493526
0.354648
0.240803
0.239611
0.337958
0.387430
0.351667
0.404716
0.406504
0.459552
0.428557
0.555515
0.374913
0.475645
0.405908
0.517964
0.713468
0.498891
0.741482
0.630617
0.844598
1.086593
2.025962
7.896423
33.477545
74.867606
170.776844
282.890797
459.193587
575.403571
679.855943
711.838007
661.814809
567.234755
406.237841
286.699533
154.425502
86.261630
34.275651
17.127991
10.949969
11.361837
15.640855
21.175742
34.775734
48.414469
68.504810
83.876848
103.064775
111.898780
113.444924
107.377768
91.967583
76.717734
56.337714
43.668747
29.506683
21.922588
16.461611
14.379621
13.179779
12.757778
13.045669
13.423562
12.986660
12.660623
13.257861
13.428926
13.097525
12.869835
13.047457
12.552738
13.142824
12.734532
12.543797
12.385845
12.339950
11.994839
11.872649
##ZVALUE=320
0.271797
0.210404
0.226498
0.284910
0.252724
0.163913
0.274777
0.191927
0.271797
0.135899
0.272989
0.149608
0.343919
0.245571
0.381470
0.310540
0.277758
0.197887
0.299811
0.268817
0.232458
0.336766
0.418425
0.402927
0.472665
0.377893
0.465512
0.327826
0.362992
0.415444
0.431538
0.380874
0.548959
0.464916
0.456572
0.645518
0.657439
0.892878
0.716448
0.727773
0.722408
1.185536
3.585815
19.412637
47.850609
123.308897
208.600760
360.067487
483.386517
629.662871
693.742633
692.023635
622.123480
473.538637
345.613956
193.591714
112.841725
51.149726
24.885535
11.273623
9.131432
10.512471
12.509823
19.646883
28.412938
45.897961
59.663653
79.523921
93.942881
105.283856
107.118487
99.565983
90.845823
70.199966
55.843592
38.879514
28.670430
20.464659
16.235709
13.501644
12.736917
12.982488
12.513995
12.722611
12.524724
12.432933
12.496710
12.135506
12.396574
12.486577
12.345910
11.947751
12.229681
11.928678
11.735559
11.561513
##ZVALUE=325
0.123978
0.154972
0.139475
0.265837
0.124574
0.161529
0.118613
0.230670
0.325441
0.251532
0.198483
0.254512
0.234842
0.262856
0.253916
0.120997
0.273585
0.148416
0.172853
0.230670
0.337958
0.359416
0.491738
0.325441
0.154972
0.484586
0.357628
0.399947
0.390410
0.233650
0.312924
0.354648
0.501871
0.291467
0.370741
0.517964
0.490546
0.576973
0.667572
0.575781
0.630617
0.764728
0.840425
1.024604
1.808405
11.490583
30.649900
83.459616
152.090788
296.027660
418.304801
579.845905
665.894747
701.262951
653.722882
512.414575
386.380553
238.398910
146.244764
66.773891
34.170747
13.537407
8.700490
8.396506
8.991957
12.823939
18.239617
28.978586
41.690469
60.453415
74.722767
90.963840
97.920895
99.979639
94.409585
79.627633
66.616535
49.684644
38.493872
26.697516
20.068884
15.239716
13.477802
12.283921
12.263656
12.058616
12.027621
11.902452
12.527704
11.959672
11.983514
11.856556
11.411905
11.438727
11.559725
11.561513
##ZVALUE=330
0.173450
0.167489
0.068545
0.152588
0.146627
0.070930
0.167489
0.121593
0.320673
0.132918
0.046492
0.209808
0.211596
0.228882
0.217557
0.300407
0.273585
0.278950
0.286698
0.381470
0.231862
0.448823
0.332594
0.370741
0.299811
0.395775
0.253916
0.385642
0.325441
0.364780
0.284910
0.303984
0.347495
0.343919
0.503659
0.440478
0.325441
0.303984
0.555515
0.633597
0.565648
0.591874
0.659823
0.655651
0.558496
0.791550
1.060963
4.716516
15.660524
53.912997
106.458664
219.569802
337.171555
506.456494
624.344945
707.734823
689.017773
576.719642
459.380746
297.458768
193.924904
94.047785
52.073002
21.952987
11.364818
7.602572
7.681847
9.266734
11.887550
18.682480
26.095510
40.605664
53.650737
72.845817
84.374547
92.835426
94.301701
87.514520
78.737736
61.512589
48.719645
34.544468
26.392937
19.526482
16.130805
13.327599
12.199879
12.005568
11.682510
11.675954
11.753440
11.157990
11.380911
11.280775
11.234879
11.140704
##ZVALUE=335
0.104904
0.165701
0.151992
0.127554
0.145435
0.242591
0.167489
0.335574
0.140667
0.100732
0.179410
0.242591
0.031590
0.092983
0.095963
0.181794
0.157952
0.207424
0.127554
0.303984
0.266433
0.419617
0.307560
0.326633
0.264645
0.294447
0.390410
0.242591
0.319481
0.290871
0.396967
0.300407
0.270605
0.512600
0.411868
0.413656
0.404716
0.379682
0.545979
0.472665
0.482798
0.493526
0.497699
0.543594
0.504851
0.561476
0.663996
0.655651
0.866652
1.706481
10.350943
27.929544
80.104470
147.132874
278.602839
399.318933
558.602810
633.383989
658.149719
613.650680
487.182736
370.957851
227.588415
144.060850
69.975853
38.568974
14.995933
8.518696
7.379651
7.915497
9.596944
11.941791
17.930865
25.037527
38.789511
51.626563
67.978501
79.655647
88.275671
88.793635
82.429647
73.484778
59.875846
49.319863
35.368800
27.418733
19.885898
16.342998
12.969971
11.785626
11.321902
10.961890
11.275411
11.084676
10.803938
10.682940
##ZVALUE=340
0.070930
0.093579
0.102520
0.168681
0.268817
0.084639
0.056624
0.307560
0.220537
0.247955
0.116825
0.189543
0.060797
0.171661
0.083447
0.235438
0.274777
0.194907
0.107884
0.296831
0.189543
0.279546
0.117421
0.203848
0.243783
0.184774
0.270605
0.310540
0.222921
0.123978
0.230670
0.196695
0.423789
0.126958
0.328422
0.299811
0.242591
0.231862
0.298619
0.202656
0.345707
0.473857
0.444651
0.530481
0.548959
0.694990
0.658631
0.635982
0.693798
0.736713
1.032948
1.296997
3.665686
19.114614
46.741962
120.561719
205.676556
347.434878
458.125472
582.525730
624.613762
597.198009
521.298647
381.923914
269.402862
140.996575
79.892874
35.031438
15.933514
8.195639
7.537603
7.618666
8.016825
9.374619
11.804700
17.834902
24.809837
37.727952
48.447847
64.917803
74.838996
82.178712
83.009005
78.799725
70.935488
57.290792
47.204494
34.255981
26.702881
19.601583
15.192628
12.360811
11.326671
10.869503
11.074543
10.512471
##ZVALUE=345
0.148416
0.110865
0.116825
0.190735
0.178814
0.201464
0.199676
0.188947
0.176430
0.162721
0.117421
0.047684
-0.005960
0.091791
0.112653
0.090599
0.100732
0.203848
0.132918
0.099540
0.171661
0.301600
0.274777
0.069737
0.085831
0.255704
0.177622
0.203848
0.382662
0.245571
0.241995
0.164509
0.218749
0.129938
0.401735
0.300407
0.196695
0.257492
0.373721
0.298619
0.396967
0.486970
0.340939
0.188947
0.344515
0.475645
0.336766
0.503659
0.511408
0.560880
0.529885
0.685453
0.695586
0.716448
1.736879
10.350943
28.412938
78.200698
142.265558
263.199806
366.743803
492.391586
555.629730
569.734573
527.506471
408.694744
306.294560
184.304714
106.418729
44.740438
21.989942
9.943843
7.806420
7.363558
7.189512
8.012652
8.827448
11.605620
15.533566
24.574995
33.661723
48.094988
57.510734
68.704486
74.277520
77.079535
74.891448
66.234469
57.837963
45.245886
35.680532
24.826527
19.381642
14.288425
12.095571
10.904670
##ZVALUE=350
0.130534
0.117421
0.149608
0.052452
0.062585
0.099540
0.092983
0.093579
0.205636
0.110865
0.082850
0.134706
0.209808
0.191927
0.163913
0.256896
0.324845
0.171661
-0.024438
0.207424
0.143647
0.170469
0.296831
0.012517
0.298619
0.199676
0.170469
0.220537
0.047684
0.246763
0.079870
0.191927
0.256896
-0.019670
0.201464
0.369549
0.256896
0.237823
0.288486
0.231862
0.365973
0.242591
0.330806
0.204444
0.200868
0.413656
0.535846
0.332594
0.404716
0.488758
0.306964
0.384450
0.590682
0.626445
0.693798
0.754595
1.015663
4.994869
15.926957
51.914454
100.971460
204.174519
300.398469
424.072742
498.593450
545.503497
525.139570
435.377955
340.335965
212.211609
130.869746
59.621930
29.739738
11.632442
7.638931
7.270575
7.072687
7.258654
7.536411
8.542538
10.818839
15.209913
21.106601
31.058788
39.732456
52.176714
60.499907
67.976713
70.827603
68.092942
62.855482
52.371621
42.930841
32.626987
25.762916
18.574595
##ZVALUE=355
0.115633
0.245571
0.190735
0.160933
-0.008941
0.086427
0.086427
-0.015497
0.138879
0.246763
0.177622
0.061989
0.112653
0.094771
0.266433
0.082850
0.228882
0.106692
0.239611
0.192523
0.273585
0.129938
0.235438
0.169873
0.186563
0.187755
0.104904
0.229478
0.236630
0.177622
0.218749
0.191927
0.221729
0.175834
0.403523
0.270605
0.259876
0.493526
0.302792
0.318885
0.216961
0.401735
0.325441
0.208616
0.318885
0.186563
0.322461
0.377893
0.339746
0.247955
0.371933
0.376701
0.443459
0.365973
0.425577
0.474453
0.591874
0.711679
0.800490
2.267957
8.481741
33.477545
69.394708
147.832632
235.974789
371.269584
457.015634
522.704720
527.719855
453.648567
372.485518
249.086618
160.720944
73.890686
37.111640
13.867617
8.140802
6.697774
6.539822
6.813407
6.666780
7.456541
7.950664
9.924769
12.771487
19.095540
25.580525
36.242604
44.082999
54.322481
60.709715
63.848495
63.192844
56.839585
49.890876
39.750934
##ZVALUE=360
0.129938
0.219941
0.215769
0.284910
0.095963
-0.020862
0.212789
0.090599
0.184774
0.173450
0.096560
0.222921
0.117421
0.151992
0.131726
0.272989
0.205636
0.282526
0.203848
0.066757
0.116825
0.210404
0.316501
0.248551
0.271797
0.108480
0.287890
0.178814
0.126958
0.174642
0.248551
0.277758
0.275970
0.256896
0.246763
0.199676
0.265837
0.329614
0.252724
0.226498
0.207424
0.286698
0.158548
0.329614
0.309944
0.426769
0.283718
0.381470
0.236630
0.256896
0.331998
0.497699
0.472665
0.475645
0.518560
0.677705
0.520945
0.611544
0.462532
0.601411
0.640750
1.233816
3.729463
17.126799
41.896701
107.322931
179.053545
294.539928
391.267538
486.297607
509.742498
478.942990
410.186648
283.819437
191.614628
95.830560
51.310658
20.907521
10.147691
6.543994
6.254911
6.478429
6.367564
6.300807
6.620884
6.961823
8.120537
11.315942
14.818907
21.897554
28.620958
39.291978
46.393871
54.830909
58.517456
57.852864
##ZVALUE=365
0.216961
0.107884
0.089407
0.024438
0.131726
0.170469
0.190735
0.132918
0.334978
0.162721
0.148416
0.037551
0.181794
0.268817
0.070930
0.000000
0.189543
0.253916
0.285506
0.133514
0.045896
0.209808
0.396967
0.220537
0.204444
0.299811
0.186563
0.149608
0.249743
0.315905
0.228882
0.167489
0.141859
0.263453
0.242591
0.198483
0.118613
0.177622
0.273585
0.260472
0.273585
0.273585
0.309944
0.199676
0.305772
0.274777
0.235438
0.171661
0.218749
0.374913
0.324845
0.304580
0.274777
0.282526
0.312924
0.482798
0.539422
0.499487
0.676513
0.671744
0.519753
0.676513
0.734925
0.818968
1.948476
7.169843
27.848482
61.956644
143.688917
229.320526
348.200798
422.540903
478.822589
479.039550
413.954854
335.510969
218.502879
137.977004
63.159466
31.829476
11.721849
7.069707
5.939603
5.851984
5.557537
5.667806
5.703568
5.841851
6.318688
7.121563
9.427667
12.017488
18.296838
24.314523
33.302903
39.728880
##ZVALUE=370
0.159740
0.114441
0.067949
0.124574
0.091791
0.122786
0.177622
0.067949
0.093579
0.170469
0.325441
0.049472
0.120997
0.172853
0.195503
0.352859
0.158548
0.123978
0.117421
0.064969
0.177622
0.123978
0.225902
0.055432
0.056624
0.080466
0.285506
0.174642
0.210404
0.215769
0.199676
0.136495
0.137687
0.134706
0.241995
0.221729
0.228882
0.185966
0.178814
0.312924
0.181794
0.212789
0.287890
0.222921
0.247955
0.189543
0.224710
0.325441
0.268817
0.199676
0.269413
0.295639
0.202656
0.351667
0.309944
0.515580
0.304580
0.330806
0.311732
0.435710
0.506639
0.395775
0.452995
0.691414
0.745654
0.772476
1.164675
3.902912
19.390583
46.459436
111.638904
180.671811
291.489959
375.517011
458.236933
476.433635
434.091687
361.296535
245.382786
162.500739
78.368783
41.733980
17.782450
8.861423
5.792975
5.416870
5.086660
5.346537
5.291700
5.214810
5.467534
5.567670
6.519556
7.835627
11.491776
15.127659
##ZVALUE=375
0.206828
0.207424
0.174642
0.256896
0.133514
0.249743
0.140667
0.102520
0.188947
0.304580
0.154972
0.158548
0.134706
0.189543
0.195503
0.167489
0.140667
0.074506
0.198483
0.138879
0.300407
0.141859
0.315905
0.171661
0.190735
0.220537
0.189543
0.235438
0.169873
0.263453
0.270605
0.305772
0.268817
0.227690
0.316501
0.359416
0.275970
0.196695
0.264645
0.300407
0.260472
0.294447
0.269413
0.258684
0.361800
0.338554
0.377893
0.292659
0.388622
0.240803
0.361800
0.273585
0.552535
0.328422
0.333786
0.509620
0.355840
0.389814
0.415444
0.363588
0.356436
0.430942
0.482798
0.568628
0.512600
0.424981
0.509620
0.730753
0.940561
2.591610
8.483529
30.447841
65.967441
147.558451
229.135752
346.632004
417.791009
465.726852
456.585884
381.480455
297.827721
182.864666
117.501616
59.553981
30.903816
12.002587
6.392598
5.126595
5.169511
4.764795
5.032420
4.945993
4.972816
4.942417
5.162954
6.019473
##ZVALUE=380
0.049472
0.028610
0.026822
0.098944
0.104904
0.046492
0.074506
0.235438
0.027418
0.052452
0.175834
0.212789
0.066757
0.013709
0.055432
0.049472
0.051856
0.090599
0.160933
0.238419
0.210404
0.048876
0.019670
0.165701
0.227690
0.328422
0.056624
0.070930
0.106692
0.050664
0.182986
0.124574
0.053644
0.181794
0.155568
0.023842
0.028610
0.123978
0.127554
0.125766
0.247955
0.260472
0.223517
0.279546
0.240803
0.291467
0.274777
0.273585
0.120997
0.217557
0.264645
0.337958
0.113845
0.296831
0.224710
0.370741
0.236630
0.284910
0.197887
0.348687
0.226498
0.325441
0.276566
0.477433
0.369549
0.471473
0.330806
0.367761
0.565648
0.633597
0.690818
1.114607
4.708767
20.884871
48.581958
115.482807
187.416673
296.186805
375.306010
445.448756
452.584624
398.870707
332.473516
233.137608
157.220960
80.227852
42.331815
16.280413
7.987618
4.747510
4.574656
4.487634
4.491806
4.652739
4.677773
4.573464
##ZVALUE=385
0.050664
0.034571
0.022650
0.061989
-0.000596
-0.003576
0.068545
0.092983
0.164509
0.075698
-0.010729
0.111461
0.095963
0.161529
0.191927
0.103712
0.197887
-0.018477
0.135899
0.080466
0.022650
-0.084639
0.011921
0.121593
0.147820
0.018477
0.164509
0.278950
0.164509
0.314713
0.223517
0.116825
0.161529
0.208616
0.120997
0.101924
-0.045896
0.123978
0.013709
0.194907
0.193715
0.186563
0.075698
0.170469
0.159740
0.133514
0.077486
0.209808
0.161529
0.181794
0.258684
0.213981
0.208616
0.186563
0.201464
0.129938
0.307560
0.284910
0.155568
0.220537
0.247955
0.196695
0.358820
0.338554
0.433922
0.353456
0.342727
0.360608
0.491738
0.522733
0.539422
0.492930
0.685453
0.872612
2.052784
11.966825
30.280948
77.784657
137.542486
242.576599
328.260660
415.431857
447.284579
427.032709
375.024676
277.647972
198.519826
110.289454
63.789487
27.802587
12.586713
5.186796
4.228950
4.046559
4.147887
3.981590
##ZVALUE=390
0.096560
0.083447
0.155568
0.094771
0.185966
-0.019670
0.093579
0.122786
0.130534
0.055432
0.150800
0.131726
0.073910
0.034571
0.012517
0.179410
0.041723
0.030994
0.166893
0.074506
0.113845
0.073910
0.164509
0.093579
0.055432
0.123978
0.165701
0.184774
0.091791
0.118613
0.160933
0.082850
0.086427
0.130534
0.082850
0.153780
0.284910
0.201464
0.120997
0.193715
0.175834
0.156760
0.167489
0.140667
0.368953
0.250936
0.191927
0.196695
0.127554
0.192523
0.202656
0.222921
0.261664
0.115633
0.279546
0.137687
0.316501
0.303984
0.408888
0.284910
0.222921
0.205636
0.276566
0.339746
0.353456
0.402927
0.145435
0.279546
0.472665
0.396967
0.460744
0.370741
0.537634
0.652671
0.501871
0.696778
1.368523
4.872680
22.250414
51.804781
122.118592
193.170905
293.445587
368.538499
436.157584
449.540615
408.953428
344.807506
238.508582
162.953734
84.781647
44.872761
16.398430
7.530451
4.198551
3.913641
##ZVALUE=395
0.145435
0.089407
0.106692
0.010729
-0.014901
0.045896
-0.089407
0.009537
0.130534
0.134706
0.017881
0.038743
0.084639
-0.076890
0.200868
0.126958
0.110865
0.066757
0.139475
0.148416
0.083447
0.195503
0.079870
0.109673
0.000596
0.159740
0.167489
0.244975
0.069737
0.130534
0.209808
0.111461
0.116825
0.292659
0.224710
0.189543
0.254512
0.153780
0.103712
0.100732
0.316501
0.091791
0.207424
0.259876
0.041723
0.243783
0.185966
0.175834
0.356436
0.093579
0.258684
0.298619
0.181794
0.158548
0.267625
0.291467
0.117421
0.154972
0.227690
0.263453
0.194907
0.172853
0.118613
0.111461
0.175834
0.182986
0.344515
0.280738
0.379682
0.487566
0.377893
0.396967
0.332594
0.506639
0.538826
0.448823
0.366569
0.654459
0.767708
3.175735
12.135506
41.930676
80.137849
152.121782
229.323506
340.500474
408.479571
454.916954
444.775820
383.899808
301.456451
190.002918
121.104717
58.049560
29.435754
10.564923
##ZVALUE=400
0.226498
0.104904
0.122786
0.144839
0.216961
0.170469
0.188947
0.089407
0.209808
0.188947
0.156760
0.245571
0.334978
0.096560
0.230670
0.159740
0.235438
0.241995
0.151992
0.165701
0.095963
0.218749
0.258684
0.180602
0.052452
0.175834
0.302792
0.242591
0.128746
0.260472
0.433922
0.188947
0.187755
-0.021458
0.156760
0.117421
0.261664
0.107884
0.394583
0.195503
0.441670
0.245571
0.339746
0.229478
0.216961
0.174642
0.113845
0.324845
0.197887
0.294447
0.238419
0.318885
0.286698
0.230670
0.294447
0.330806
0.220537
0.199676
0.210404
0.252724
0.267625
0.218749
0.349879
0.287890
0.309944
0.405908
0.416636
0.407696
0.464916
0.370741
0.497699
0.630617
0.527501
0.579953
0.482798
0.452995
0.508428
0.574589
0.558496
0.663996
0.675917
1.926422
6.360412
23.180842
50.741434
115.105510
184.308887
289.222002
360.240936
423.576832
432.325602
387.627482
320.812464
214.364529
143.247843
72.275996
##END
