##TITLE=FQP00351
##FORMAT=SPECTACLE-ASCII V-1.2
##DATA TYPE=ULTRAVIOLET SPECTRUM
##SECOND TYPE=ULTRAVIOLET SPECTRUM
##DATE=01/21/18
##TIME=17:50:55
##SPECTROMETER/DATA SYSTEM=SPECTACLE
##XUNITS=NM EM
##YUNITS=ENERGY
##YFACTOR=1
##FIRSTX=220
##LASTX=410
##NPOINTS=96
##3DDATA=Equidistant
##ZUNITS=NM EX
##FIRSTZ=210
##LASTZ=400
##ZPOINTS=39
##XYDATA=(Y..Y)
##ZVALUE=210
1.442432
1.872778
1.420975
1.708865
1.647472
1.818538
1.672506
1.742840
1.309514
1.843572
1.293421
1.445413
1.404881
1.385808
1.653433
1.267791
1.784563
1.988411
2.015829
1.897812
2.217889
2.002716
1.943707
2.540946
2.419949
2.732873
2.524853
2.413988
2.882481
3.366470
3.082752
3.105998
3.308654
3.695488
2.848506
2.990961
3.076792
3.641844
3.251433
3.736615
2.849698
4.495978
2.807975
3.462434
3.669858
3.513694
3.310442
3.310442
3.370643
2.371669
3.189445
3.389716
3.677607
3.154874
3.275871
3.200769
4.139543
3.011823
3.277659
3.299713
3.420711
3.195405
3.017783
3.282428
3.402829
2.899766
3.569722
3.630519
4.052520
4.612803
5.484819
5.196929
6.721616
6.947517
7.463694
8.500814
7.890463
7.519722
7.293820
6.824732
5.741715
5.819798
5.242825
4.147887
3.248453
4.094839
3.626943
3.013611
3.319979
2.979636
3.420711
3.074408
3.408790
3.555417
3.401637
3.957748
##ZVALUE=215
3.627539
3.954768
3.159642
3.356934
3.163815
3.047585
3.253818
3.369451
3.437996
3.499985
3.354549
3.638864
2.639890
1.879930
2.331734
2.331734
1.876950
2.169609
2.373457
1.558661
2.268553
2.000928
2.661943
2.445579
2.967715
2.794862
3.227592
3.190637
3.276467
3.845692
4.420877
4.649758
4.806519
4.658699
4.441738
4.083514
5.500913
5.722642
5.203485
4.525781
4.684925
5.386472
5.048513
4.188418
3.259778
4.274845
4.309416
4.771948
3.947616
4.188418
3.749728
3.395677
3.649592
3.856421
3.892779
3.846884
3.541708
3.150702
3.118515
3.773570
3.754497
3.947616
3.156662
3.262758
3.432631
4.184842
3.574491
4.270673
4.444718
5.135536
5.364418
5.933642
6.411672
6.742477
6.906986
6.135702
7.264614
7.656813
6.900430
6.481409
6.362796
5.078912
4.371405
4.482865
3.320575
3.039837
2.479553
3.560781
3.253818
3.319979
2.629757
3.496408
3.226995
2.822876
3.052950
3.358722
##ZVALUE=220
11.106730
12.888908
11.971593
13.845563
13.801455
11.387467
10.148883
7.758737
8.520484
9.747744
8.777976
10.174513
9.527802
10.606647
7.174611
5.669594
4.073977
3.730655
2.791882
2.280474
2.411604
2.585649
2.222657
3.300905
3.585815
3.277659
4.140735
4.391670
5.337000
6.909966
5.066991
6.922483
6.946921
7.241964
7.574558
7.820725
7.075667
8.140802
7.425547
6.914735
6.811619
6.616712
6.446838
5.774498
6.095767
5.677938
5.756617
4.821420
5.427599
4.983544
5.101562
5.408525
4.756451
4.472733
4.715919
3.589988
4.134774
4.388690
3.629923
3.831983
3.615618
4.074574
4.226565
4.023910
4.129410
4.324913
3.603697
4.184842
5.283952
5.073547
5.489588
5.797744
7.174611
7.181764
8.169413
7.519722
8.342862
7.670522
7.438660
8.409619
6.634593
5.583763
6.187558
4.468560
4.168749
4.119873
3.865957
4.431605
3.851652
3.494620
3.625751
3.423691
4.025698
3.928542
3.390908
3.338456
##ZVALUE=225
21.690726
22.977591
29.602647
38.262606
45.701861
48.643947
44.502616
37.855506
29.619932
23.597479
21.083951
19.021630
20.528436
22.166967
22.339821
20.517707
18.276572
15.044808
11.818409
7.432699
4.505515
4.084706
3.634691
3.157854
2.939701
4.253983
5.260706
5.860925
7.133484
7.666945
8.621812
10.168552
10.254979
10.721684
11.127591
9.932518
10.607839
10.667443
9.680986
10.225773
8.973479
8.943677
9.586811
7.692575
7.082820
7.618666
7.662773
6.951690
6.184578
6.021857
5.533695
5.428791
5.798936
5.384684
5.898476
5.989671
5.798936
6.100535
5.292892
5.895495
5.666614
5.132556
5.135536
5.144477
5.768538
5.048513
4.861951
6.224513
6.382465
6.323457
6.059408
7.430911
8.263588
8.673668
8.447766
9.968877
9.627938
8.088946
8.592606
8.447766
8.201599
6.981492
6.899834
6.749630
5.369782
6.242990
6.113648
6.267428
5.228519
5.392432
5.430579
5.372763
5.580783
5.465746
5.996823
5.765557
##ZVALUE=230
18.096566
20.253658
35.788417
60.100555
81.145763
107.430816
115.551949
127.029419
115.893483
100.799799
73.851943
55.602789
44.278502
41.098595
41.009784
44.838786
49.235821
46.210885
43.070912
32.011867
26.195645
17.978549
11.284947
6.654859
5.999804
5.077720
5.329847
5.834699
7.054806
8.412600
8.889437
10.184646
11.069775
10.537505
10.971427
11.620522
12.043715
10.919571
11.276603
10.812879
9.633899
10.124445
10.402799
8.888841
8.872747
8.687973
7.670522
7.080436
7.171631
6.925464
6.933808
6.457567
7.587671
8.082986
7.038713
6.620884
5.868673
6.804466
6.246567
6.758571
6.672740
6.924868
6.923676
7.087588
7.634759
7.180572
7.804632
7.478595
7.940531
9.109974
9.143949
9.241700
9.864569
10.271668
12.006760
11.422634
9.700656
10.980964
11.496544
9.138584
10.538697
10.920763
8.857846
9.640455
8.892417
8.061528
9.281635
8.363724
8.922815
9.024739
8.950830
8.357763
7.853508
7.891655
8.941889
7.591844
##ZVALUE=235
6.576777
8.402467
18.901825
37.502646
75.791478
114.050508
171.905756
205.279589
249.517560
247.145891
232.148767
194.731951
154.826641
104.568601
79.414845
66.130757
68.844557
72.343946
78.224540
81.414580
76.864958
66.571832
49.621463
35.391450
22.265911
15.243888
10.505915
8.013844
7.217526
8.475780
7.308722
8.112788
7.641912
9.095669
9.444952
9.273887
9.398460
10.562539
9.077787
9.489655
8.440614
9.107590
8.844733
7.912517
7.945895
7.743835
7.718801
8.587837
7.776618
7.383823
6.969571
7.953644
7.938743
6.712675
7.882714
9.356737
7.680655
7.673502
8.707643
8.485913
7.950664
8.112788
7.941723
8.580685
9.317994
10.077953
10.346770
9.961724
10.567904
10.379553
11.202693
12.636781
14.329553
13.497472
13.476610
15.130639
15.002489
15.194416
14.056563
14.488697
15.410781
13.967752
12.206435
14.391541
13.226867
13.483763
13.778806
12.864470
12.993813
13.282895
12.290478
11.060834
12.448430
12.022853
11.979938
13.032556
##ZVALUE=240
1.322627
1.450777
3.887415
10.225773
28.941631
53.169727
112.241507
178.074837
279.017687
335.208774
398.424864
397.685766
375.207663
304.633975
247.195959
163.697004
122.681856
96.090436
92.263818
99.769831
110.024810
115.529895
112.875700
107.006431
80.009699
65.410733
45.606494
32.000542
18.153787
13.524890
9.466410
8.474588
8.359551
9.134412
8.829832
8.430481
8.590817
9.729862
8.874536
8.457899
8.665919
8.819699
9.260774
9.944439
8.347631
8.039474
9.018779
8.883476
8.477569
8.257627
7.255673
8.098483
8.341670
8.296967
8.773804
8.508563
9.091496
8.308887
9.008646
8.716583
8.386970
9.015799
9.492636
11.444688
10.174513
10.717511
11.038780
11.355877
12.429953
12.917519
13.520718
14.300942
15.276670
16.593933
17.230511
15.831590
17.975569
16.647577
19.065738
17.623901
18.142462
17.802715
16.651750
17.372966
16.481876
15.403628
16.630888
16.188622
17.055869
17.138720
16.501546
15.938878
15.730858
14.841557
15.263557
15.229583
##ZVALUE=245
1.248717
1.264811
1.172423
1.511574
2.698898
7.190704
25.461912
51.898956
123.334527
193.450451
306.350589
397.627950
455.458760
496.018529
475.085974
405.687690
335.417986
232.867599
166.497827
113.182664
98.545551
97.789764
115.557909
127.040744
131.759644
128.969550
115.763545
95.180869
67.973733
50.309896
42.098761
22.368431
16.554594
9.843707
8.826852
9.026527
8.792877
8.462667
9.096861
9.873509
9.030700
8.411407
9.806752
9.967685
9.846687
9.456873
9.569526
8.748770
8.416772
10.449886
9.187460
8.176565
8.607507
8.847713
8.518696
7.573962
7.657409
8.135438
8.043647
8.812547
8.016825
8.946657
9.185672
9.389520
9.844899
9.880662
9.538531
11.191964
11.109710
12.872815
13.403893
14.341474
14.150739
14.458895
15.597939
15.627742
17.359853
16.488433
16.048551
18.090606
16.540885
16.581416
17.505884
17.214417
16.809702
17.068982
17.993450
16.593933
15.661716
17.781854
17.423630
16.529560
16.604662
15.265942
17.045736
16.138554
##ZVALUE=250
0.860691
0.731945
0.913739
0.903606
1.101494
1.084805
2.056956
5.434752
20.032525
46.244860
111.111999
186.481476
278.674960
402.954817
482.547879
549.845695
551.522970
502.882600
428.329706
305.148959
215.625763
145.313740
97.852945
93.633533
106.475949
121.148825
137.360692
143.811703
136.239529
123.408437
102.023482
80.602765
62.100887
38.155913
26.494861
16.180873
12.693405
10.303855
9.936690
11.025667
10.792613
10.792613
9.466410
10.612607
9.837747
9.537935
10.481477
8.903742
9.220839
9.228587
8.392930
8.640885
8.124709
8.001924
7.031560
7.016659
7.640719
8.134842
7.962584
7.386804
7.737875
8.017421
8.040667
8.236766
8.615851
9.157658
9.731650
10.255575
9.765625
11.518598
10.460615
12.807846
13.147593
12.561679
13.726950
14.682412
14.594793
15.618801
14.852881
15.353560
15.863776
15.240908
15.891790
16.299486
17.029643
16.413927
15.631914
16.066432
16.448498
17.059445
15.926957
17.085671
17.055869
16.287565
15.626550
16.661882
##ZVALUE=255
0.699759
0.998974
0.762939
1.218915
1.062751
0.869632
1.107454
1.299977
1.294613
2.462864
12.263656
33.658743
87.743998
151.768923
262.619853
376.300812
508.803725
587.145686
627.254844
602.582693
530.642867
395.980477
281.493664
170.609951
111.072659
89.266896
90.049505
108.257532
126.098990
149.647593
153.590441
147.120953
134.869814
112.054944
90.406537
61.663985
42.664409
27.283430
19.090772
14.028549
12.367964
11.698604
12.203455
10.434985
11.114478
11.279583
10.496974
10.420680
9.550452
9.177923
9.157658
9.208918
8.932948
8.376837
8.432865
8.081794
7.648468
7.497668
8.077621
7.613897
7.572770
7.413626
7.413626
7.779598
7.676482
7.827878
8.809566
8.319616
8.958578
10.154843
11.364818
11.445880
12.482405
12.468696
12.175441
13.862848
14.002919
14.042854
14.529824
14.118552
14.593601
14.820695
14.387965
14.432669
14.554858
14.632940
15.443563
14.456511
15.278459
14.984608
14.803410
15.461445
15.940666
15.102625
15.751719
16.178489
##ZVALUE=260
0.652671
0.830889
0.953674
0.983477
0.897646
0.856519
1.003742
0.934601
0.886917
1.273751
1.083612
2.052784
6.120801
25.215745
54.384470
125.830770
211.800933
352.183580
465.174913
613.632798
675.558448
687.559843
619.438887
512.997508
350.870490
243.601799
141.392946
99.066496
76.990724
87.932944
110.968947
133.820772
150.740743
163.440704
159.091949
139.348507
122.591853
90.844631
68.483949
43.991804
31.798482
20.328760
16.178489
13.298988
13.260841
11.982918
11.615753
11.127591
10.721684
9.869933
9.183884
9.443760
9.296536
8.957982
7.876754
7.996559
7.789731
7.237792
7.468462
7.587671
7.622838
7.428527
6.958842
7.627606
7.305741
7.628798
7.564425
7.873774
7.906556
8.912683
9.045601
10.556579
9.931922
10.955930
11.377931
12.309551
11.161566
12.263656
12.134910
13.247728
13.112426
12.405515
13.021827
12.417436
13.781786
13.451576
14.338493
13.819933
13.952851
14.347434
14.354587
15.136600
14.738441
15.023947
14.580488
14.874935
##ZVALUE=265
0.668764
0.585914
0.531673
0.699759
0.894666
0.587702
0.876784
0.873804
0.770688
0.951886
1.121759
0.962615
1.249909
1.010895
3.263950
15.701652
37.451982
96.766949
168.312788
321.214795
451.885462
577.396750
716.846585
748.339891
688.419938
601.322651
451.427698
322.598815
186.411738
119.494796
82.507730
73.853731
89.647770
117.875934
142.708421
161.543489
167.622566
159.239769
145.024657
117.582679
94.375610
64.177513
46.754479
29.722452
20.447969
15.059710
12.456775
11.087656
11.233687
10.958910
10.599494
9.146929
9.163618
8.643866
8.485913
8.082986
8.124709
7.375479
7.611513
7.414818
7.160902
6.790757
7.101893
7.196665
6.598830
7.862449
7.887483
8.214712
8.263588
8.801818
9.088516
8.757710
9.890795
9.881854
11.024475
10.681748
10.806918
11.668801
11.961460
11.916757
11.337996
12.439489
12.206435
12.195706
12.701750
12.462735
13.540983
12.687445
13.420582
13.459921
13.569593
14.072657
13.731718
13.733506
13.851523
13.735890
##ZVALUE=270
0.541806
0.659823
0.584722
0.635982
0.639558
0.783801
0.456572
0.638962
0.619888
0.698566
0.811815
0.785589
0.913739
0.997782
1.105666
1.087785
1.640916
7.254481
21.466613
72.369576
134.015679
231.986642
411.582589
560.900569
714.159012
774.436593
769.452453
701.959729
547.856688
414.826870
257.484913
161.900520
100.094676
68.472624
68.537593
93.268752
115.593672
146.221519
160.034895
168.604851
161.725879
142.847896
120.406747
90.481639
66.951513
42.988658
29.074550
18.750429
13.252497
10.674000
10.097623
9.188652
8.600950
8.814931
8.261800
8.015633
8.381605
8.153915
7.545948
7.207990
7.393956
6.853938
7.151961
7.781982
7.384419
7.247925
7.300973
7.752776
7.751584
8.592606
8.565784
8.878708
9.366870
9.766817
9.739995
10.661483
10.854602
10.496974
10.380745
11.482835
11.423826
11.615753
11.444688
11.575818
11.695623
12.685657
12.175441
11.672974
11.594892
12.051463
12.006760
12.255907
12.018681
12.309551
12.545586
13.141632
##ZVALUE=275
0.490546
0.494719
0.398755
0.511408
0.476837
0.513792
0.587702
0.768900
0.522733
0.432730
0.662804
0.776649
0.624657
0.815988
0.572801
0.930429
0.979900
1.125932
1.218915
3.098845
12.749434
35.694838
104.239583
197.820663
365.714431
500.783920
659.253001
755.523443
801.348686
761.044025
676.710010
508.631468
368.350744
198.060870
119.960904
63.557625
52.925944
65.294504
84.080696
114.774704
137.227774
156.685710
161.035657
153.165460
140.441656
112.158656
89.489818
61.670542
44.047832
26.060939
17.515421
11.535883
9.495616
8.216500
7.836819
7.529855
7.163882
7.423759
7.031560
7.546544
7.450581
7.692575
7.795691
7.305741
7.900596
7.832646
7.901788
7.428527
8.167624
8.338690
8.636713
9.589791
9.518862
10.041595
10.004640
9.955764
10.425448
10.250807
10.784864
10.308623
11.121631
11.117458
10.831952
11.181831
11.381507
11.339784
11.256933
11.419654
11.470914
11.601448
11.027455
11.432767
11.122823
11.520982
11.935830
12.207627
##ZVALUE=280
0.277758
0.448823
0.480413
0.367761
0.320673
0.453591
0.389814
0.467896
0.525713
0.569820
0.468493
0.559688
0.681877
0.639558
0.709891
0.695586
0.710487
0.830889
0.909567
0.989437
1.083612
1.346469
7.990599
27.614832
83.381534
153.857470
288.597941
425.179601
607.794523
724.214911
801.798701
790.689588
723.679662
556.063652
415.565968
241.521001
147.423744
69.799423
44.669509
42.885542
56.076646
82.801580
106.322765
134.846568
148.037672
153.672695
149.984956
131.485462
112.167001
81.724524
62.080622
39.391518
26.513934
15.254617
11.107922
7.964969
7.136464
7.094741
6.989837
7.404685
7.077456
7.522702
7.549524
7.534623
7.921457
8.353591
8.205771
8.212924
8.547902
8.719563
8.675456
9.715557
9.485483
9.786487
9.988546
10.443926
10.157824
10.863543
10.496974
10.647774
10.576844
10.973811
10.957718
11.014938
10.636449
11.047721
11.368990
11.417866
11.306405
11.189580
10.694861
11.342764
10.550618
11.344552
10.866523
11.028647
##ZVALUE=285
0.236630
0.402927
0.363588
0.431538
0.528693
0.464916
0.651479
0.534654
0.469685
0.593662
0.453591
0.545979
0.446439
0.450611
0.524521
0.590682
0.517964
0.600815
0.856519
0.754595
0.821948
0.781417
1.050830
1.235604
4.135966
14.610887
48.470497
98.647475
213.622451
333.223939
510.210991
648.833513
756.623745
813.242793
768.898726
635.236502
501.952767
314.619541
196.249485
96.031427
52.673817
31.068921
34.911633
55.236816
74.919462
105.148554
122.330785
141.476989
148.223639
144.321918
133.310556
109.671950
88.849664
60.579777
41.817427
24.508834
15.890598
10.284781
8.115768
7.421970
7.449985
7.446408
7.068515
7.597804
7.646680
8.155704
8.345842
8.597970
9.075999
8.437634
9.299517
9.888411
9.456873
10.104775
9.932518
11.013746
10.797977
10.866523
10.802746
11.188984
10.836720
10.960698
11.022687
10.943413
10.974407
10.738969
11.254549
11.368990
10.870695
11.037588
10.956526
10.812879
10.368824
10.907650
10.349751
10.679960
##ZVALUE=290
0.196695
0.350475
0.309944
0.475645
0.428557
0.404716
0.446439
0.462532
0.494719
0.389814
0.450611
0.445843
0.436902
0.442863
0.498891
0.658631
0.685453
0.584722
0.665784
0.612736
0.743866
0.774860
0.881553
0.939965
1.059771
1.231432
1.667738
5.167723
25.839806
62.489510
122.273564
253.486633
393.152833
597.101450
717.197657
828.626752
824.282765
723.536611
597.300529
405.768752
269.374847
132.833719
70.876479
31.140447
23.733974
33.401847
47.400594
72.250962
92.651844
120.267868
133.463740
144.935846
142.967701
126.848817
110.327601
78.951716
59.919953
38.614869
26.418567
16.127825
11.875629
9.402633
8.368492
8.375645
8.367896
8.382797
8.471608
9.325743
8.784533
9.169579
9.895563
9.904504
10.160804
11.137724
10.745525
11.359453
11.033416
10.436773
10.816455
10.591745
11.283755
10.570884
10.826588
11.098981
11.412501
11.059642
11.299849
11.381507
11.083484
11.022687
11.093616
10.970831
10.498762
10.785460
10.369420
10.144711
##ZVALUE=295
0.233650
0.388622
0.285506
0.350475
0.373721
0.344515
0.286698
0.414848
0.418425
0.496507
0.331998
0.472665
0.345707
0.522733
0.481606
0.629425
0.509620
0.422597
0.471473
0.640750
0.528693
0.452995
0.679493
0.695586
0.667572
0.900626
1.039505
1.093745
1.288652
2.246499
13.213754
38.183928
86.995959
204.234719
325.983763
516.098738
646.598935
768.076777
802.154541
742.587447
635.555983
459.863544
318.527818
169.155598
96.196532
39.067864
22.416711
20.712614
28.086901
46.623945
64.452887
90.698004
110.668540
129.280686
137.500763
133.267641
122.005939
99.575520
80.146790
58.296919
41.569471
25.657415
17.707944
12.197495
9.928942
8.577704
8.685589
8.822680
8.674860
9.118915
9.282827
9.784698
10.344982
10.452867
10.561943
11.121631
10.853410
11.167526
11.363626
11.078715
11.094809
11.132956
11.479855
10.779500
11.593699
11.390448
10.535717
10.950565
10.852814
10.852814
11.000633
10.828972
10.399818
10.997653
10.576844
10.357499
##ZVALUE=300
0.348687
0.272989
0.376701
0.396967
0.230670
0.303984
0.382662
0.348687
0.368953
0.304580
0.302792
0.326633
0.369549
0.467896
0.413656
0.367761
0.439882
0.479817
0.448823
0.443459
0.475645
0.635982
0.490546
0.635982
0.600815
0.712872
0.756979
0.989437
0.875592
0.945926
1.061559
1.337528
4.988909
19.580722
68.031549
132.064819
267.984867
402.836800
588.787794
700.854659
781.867504
781.297684
678.853989
562.806726
375.850797
250.276923
128.819942
70.358515
28.162003
16.640425
17.486811
25.251508
41.642785
59.420466
83.145499
101.727843
123.014450
129.110813
128.576756
119.833946
99.434853
79.649687
56.888461
41.969419
26.972890
18.841624
12.905598
10.532737
9.288788
9.449720
9.583831
9.989738
9.566545
9.742975
10.235906
10.808706
10.318756
10.675788
10.761619
10.931492
10.991693
11.313558
10.839701
11.046529
10.826588
11.090636
11.295676
10.996461
10.638833
10.836720
10.418892
10.770559
10.455847
10.351539
10.445714
10.479689
##ZVALUE=305
0.469685
0.359416
0.259876
0.352859
0.178814
0.271797
0.270605
0.114441
0.227690
0.240803
0.234842
0.369549
0.294447
0.386834
0.329614
0.302792
0.501871
0.273585
0.489950
0.441670
0.559688
0.374913
0.711679
0.516772
0.653863
0.756979
0.564456
0.771880
0.607967
0.827909
0.780821
0.863671
0.910759
1.078844
2.189875
13.369918
37.260652
105.911493
190.596581
350.659490
487.684608
654.675961
748.744011
780.235529
733.447671
589.160919
461.032987
292.552710
181.662440
85.096955
43.187737
17.683506
12.831688
16.475916
24.260879
39.751530
57.246685
81.213713
96.937418
115.897655
122.869611
122.903585
114.825964
96.015930
79.039931
54.258704
40.296912
26.484728
18.533468
12.946725
11.216998
9.737611
10.268688
10.249615
10.097623
10.233521
10.322928
10.586977
10.882616
10.605454
11.133552
11.246800
11.076927
11.168718
11.427999
11.239648
10.832548
10.574460
10.607839
10.935664
10.629892
10.888577
10.485649
10.359883
10.337830
10.276437
##ZVALUE=310
0.244975
0.200868
0.191927
0.242591
0.218749
0.272989
0.262856
0.283718
0.287890
0.351667
0.359416
0.171661
0.361800
0.347495
0.229478
0.349879
0.198483
0.327826
0.379682
0.486970
0.426769
0.365973
0.354648
0.510812
0.429749
0.615716
0.596642
0.638962
0.557899
0.654459
0.752807
0.884533
0.662804
0.869632
1.088977
1.032948
1.275539
5.450845
18.825531
65.582991
127.147436
259.058475
396.408439
578.966737
691.435933
773.455501
765.108466
669.537783
556.273460
378.756523
253.808498
129.627585
71.334839
27.333498
13.478994
10.785460
13.827682
23.064613
32.991767
51.501989
69.086552
90.920925
105.575919
115.772486
116.539001
107.326508
94.223619
74.481964
57.677627
38.615465
28.168559
19.255877
14.457703
11.329651
10.629892
10.010600
10.042787
10.024905
10.420680
10.297894
10.205507
10.814667
10.621548
11.128783
10.845661
11.139512
10.929704
11.310577
11.038780
11.016726
10.368824
10.674000
10.430813
10.240674
10.275841
10.426641
##ZVALUE=315
0.219941
0.186563
0.238419
0.227690
0.282526
0.231862
0.110865
0.170469
0.041723
0.143647
0.168681
0.325441
0.168681
0.260472
0.229478
0.343919
0.278950
0.096560
0.401735
0.155568
0.275970
0.327826
0.160933
0.429749
0.554919
0.423789
0.225902
0.440478
0.451803
0.586510
0.499487
0.583529
0.542998
0.613928
0.675917
0.834465
0.728965
0.770688
1.036525
2.190471
9.762645
40.804744
89.055896
196.636915
316.684842
507.404804
627.180934
739.203691
770.279765
723.244548
625.867844
461.708903
330.262780
180.550814
101.203918
38.869977
17.167926
9.435415
9.910464
13.162494
19.993782
33.102632
46.332479
66.363811
82.227588
101.007819
110.030770
110.125542
103.389621
87.532997
73.882937
54.344535
40.779710
26.193857
18.876791
13.573766
11.375546
10.595918
10.312796
10.255575
10.100603
10.255575
10.829568
10.470748
10.856986
10.983944
10.994673
10.973811
10.894537
10.446906
10.733604
10.381937
10.402799
10.408759
10.175705
10.384917
##ZVALUE=320
0.169873
0.175834
0.192523
0.137687
0.041723
0.216961
0.164509
0.239611
0.167489
0.184774
0.287890
0.278950
0.268817
0.229478
0.314713
0.233650
0.178814
0.176430
0.260472
0.178814
0.303984
0.344515
0.273585
0.274777
0.369549
0.269413
0.409484
0.375509
0.428557
0.520945
0.451803
0.674725
0.620484
0.444651
0.541806
0.732541
0.575781
0.734925
0.763535
0.869632
0.884533
1.374483
4.248619
22.972822
58.082938
149.086714
244.754553
401.079655
530.838966
683.400035
752.072930
757.457018
694.553852
551.526546
413.531661
237.656832
140.182972
61.308742
27.782917
11.084676
8.387566
9.505749
12.311935
18.964410
27.430654
44.558644
59.140921
78.235865
92.130899
103.436708
104.533434
98.481774
87.454915
68.485737
53.509474
36.217570
26.838779
18.443465
14.158487
11.460781
10.255575
10.474920
10.300875
10.667443
10.484457
10.664463
10.566711
10.270476
10.375977
10.634661
10.287762
10.208488
10.265708
10.438561
10.587573
10.455847
##ZVALUE=325
0.314713
0.155568
0.103712
0.149608
0.226498
0.130534
0.212789
0.230670
0.121593
0.125766
0.145435
0.077486
0.173450
0.274777
0.318885
0.339746
0.308752
0.278950
0.259876
0.287890
0.267625
0.446439
0.126958
0.583529
0.362992
0.301600
0.212789
0.388622
0.462532
0.333786
0.446439
0.474453
0.472665
0.553727
0.484586
0.519753
0.584722
0.580549
0.665784
0.661612
0.640750
0.703931
0.857711
0.996590
2.246499
14.404655
37.995577
101.514459
181.161761
330.616832
461.910963
618.265867
706.591606
748.225451
705.865622
578.065515
451.899767
284.680724
177.050829
78.526735
37.781596
13.889670
8.188486
7.826686
8.704662
12.312531
17.626882
27.827621
40.688515
59.396625
74.225664
89.306831
97.523928
97.737908
94.142556
77.748895
65.733790
48.546791
36.420822
23.868680
17.959476
13.268590
11.556745
10.528564
10.818839
10.664463
10.214448
10.420680
10.393858
10.504723
10.164976
10.355711
10.158420
10.037422
9.736419
10.196567
##ZVALUE=330
0.148416
0.114441
0.121593
0.074506
0.288486
0.203848
0.073910
0.370741
0.166893
0.232458
0.272989
0.277758
0.237823
0.279546
0.289679
0.157952
0.258684
0.196695
0.297427
0.356436
0.251532
0.323653
0.197887
0.327826
0.300407
0.170469
0.299811
0.229478
0.354648
0.244975
0.370741
0.215769
0.416636
0.505447
0.504851
0.419617
0.514984
0.459552
0.484586
0.580549
0.689626
0.653863
0.645518
0.717640
0.836849
1.005530
1.345873
4.799962
25.548935
60.315728
144.855976
238.659978
405.387878
534.096956
674.737692
737.527013
724.673867
654.063821
501.313806
370.993614
209.112763
120.788813
49.513578
22.491813
9.131432
7.620454
7.602572
8.439422
12.151599
16.926527
27.892590
38.670897
55.492520
69.563985
83.937645
91.341734
92.676878
87.761879
75.713992
62.002540
45.362711
34.527779
24.225712
18.711686
14.237761
12.037754
10.911822
10.402799
10.055900
10.128617
9.869933
9.885430
9.972453
9.843707
9.852648
9.833574
##ZVALUE=335
0.204444
0.079870
0.187755
0.364780
0.205636
0.133514
0.112653
0.368953
0.154972
0.172853
0.056624
0.128746
0.212789
0.192523
0.102520
0.212789
0.260472
0.202656
0.307560
0.349879
0.279546
0.269413
0.271797
0.215769
0.168681
0.251532
0.181794
0.268817
0.236630
0.242591
0.338554
0.302792
0.362992
0.377893
0.368953
0.341535
0.349879
0.533462
0.476837
0.336766
0.506639
0.560880
0.608563
0.667572
0.769496
0.807643
0.813603
0.843406
0.977516
2.641678
10.136962
40.978789
86.111426
189.662576
302.477479
473.742485
591.987967
688.796639
707.110763
640.588999
544.264913
379.343629
260.091424
137.987733
74.509978
26.720762
12.948513
8.077621
7.418990
7.656813
8.570552
11.926889
16.202927
26.513934
36.576986
53.323507
65.500736
79.048872
85.253716
85.676908
81.756711
69.717765
59.822798
46.034455
36.082864
24.694800
19.060969
14.340878
11.831522
10.641813
10.191798
9.756684
9.642839
9.593964
9.417534
9.320974
##ZVALUE=340
0.306964
0.220537
0.239611
0.161529
0.160933
0.100732
0.178814
0.280738
0.272989
0.106692
0.371933
0.201464
0.243783
0.230670
0.165701
0.167489
0.260472
0.403523
0.208616
0.268817
0.141859
0.342727
0.406504
0.321865
0.265837
0.265837
0.321865
0.320673
0.282526
0.313520
0.469685
0.266433
0.229478
0.350475
0.266433
0.400543
0.381470
0.304580
0.379682
0.351667
0.486970
0.504851
0.503659
0.449419
0.556707
0.546575
0.624657
0.707507
0.875592
0.796914
0.865459
1.200438
4.649758
24.572611
60.336590
148.821473
247.695446
404.860973
527.935624
653.169751
693.520904
660.613775
579.016805
433.349609
309.520960
163.930655
91.837645
38.761497
17.215610
8.410811
7.342696
7.456541
7.655621
8.875728
11.554956
17.188787
24.241805
36.498904
48.797727
64.089894
73.993802
81.209540
81.892610
76.823831
69.821477
56.328773
45.902729
33.343434
25.638938
18.335581
14.409423
11.205673
10.343790
9.561777
9.148717
9.149909
##ZVALUE=345
0.180602
0.242591
0.234842
0.200868
0.166893
0.281930
0.151992
0.333786
0.207424
0.240803
0.183582
0.213981
0.197887
0.204444
0.198483
0.188947
0.200868
0.271797
0.351667
0.271797
0.332594
0.267625
0.371933
0.152588
0.253916
0.338554
0.348687
0.428557
0.156760
0.251532
0.254512
0.290871
0.361800
0.298619
0.318885
0.308752
0.364780
0.483990
0.364780
0.439882
0.379682
0.363588
0.492930
0.414848
0.484586
0.475645
0.483990
0.630617
0.560880
0.745654
0.750422
0.633597
0.864863
1.030564
2.194643
13.029575
38.014650
103.494525
180.161595
321.528912
439.654589
588.686466
663.839579
691.651702
648.385882
515.531898
391.940475
231.789947
129.825473
51.802993
24.370551
10.267496
7.757545
7.264614
7.212758
7.697940
8.452535
10.820627
15.071630
23.617744
32.490492
46.759844
57.155490
67.293644
73.390603
76.059699
73.575974
65.228939
56.317449
43.507814
34.177899
23.304820
18.079877
13.307929
11.193752
9.593964
##ZVALUE=350
0.255704
0.079870
0.294447
0.279546
0.106692
0.332594
0.288486
0.270605
0.211596
0.173450
0.271797
0.330806
0.335574
0.298619
0.170469
0.184774
0.313520
0.198483
0.381470
0.294447
0.343919
0.254512
0.195503
0.274777
0.350475
0.381470
0.265837
0.278950
0.440478
0.461936
0.354648
0.418425
0.247955
0.338554
0.386834
0.303984
0.450611
0.496507
0.212789
0.295639
0.291467
0.382662
0.551939
0.468493
0.594854
0.385642
0.644922
0.552535
0.651479
0.510812
0.617504
0.632405
0.601411
0.800490
0.762939
0.926852
1.616478
5.259514
24.245977
56.542754
135.876536
225.579739
373.602509
482.869744
606.572628
652.827024
626.467466
553.126931
402.635932
280.516744
147.813559
84.419847
35.271645
16.463995
8.008480
7.437468
6.840825
6.932616
7.109642
8.364916
10.728836
14.546514
21.181703
28.518438
40.126443
49.648881
60.669780
66.158772
68.897605
67.379475
60.560703
52.923560
40.936470
32.514930
23.394823
18.185973
##ZVALUE=355
0.396967
0.479817
0.408888
0.332594
0.362992
0.356436
0.251532
0.377893
0.511408
0.286698
0.475645
0.489950
0.360608
0.436902
0.328422
0.498891
0.398755
0.556707
0.353456
0.403523
0.331998
0.334978
0.362992
0.397563
0.475645
0.430942
0.446439
0.401735
0.462532
0.443459
0.547767
0.370741
0.499487
0.400543
0.536442
0.441670
0.621676
0.363588
0.570416
0.478625
0.736713
0.522733
0.624657
0.569820
0.653863
0.652671
0.662804
0.572801
0.671744
0.657439
0.772476
0.449419
0.616908
0.884533
0.825524
0.743866
0.899434
1.051426
1.346469
3.294945
10.887980
43.373704
89.260936
183.267593
287.758708
447.041988
550.821424
640.449524
660.067797
598.904490
503.946543
348.920822
230.423808
109.940767
55.587888
20.648837
9.772778
6.702542
6.649494
6.620884
6.796718
7.148981
7.583499
9.868741
12.499690
18.016696
25.520921
35.170913
44.098496
54.301620
59.962869
63.605905
62.359571
55.839419
49.653649
39.248466
##ZVALUE=360
0.291467
0.219941
0.247955
0.233650
0.461936
0.258684
0.233650
0.227690
0.440478
0.367761
0.470877
0.267625
0.282526
0.420809
0.346899
0.306964
0.418425
0.266433
0.275970
0.233650
0.357628
0.215769
0.303984
0.344515
0.344515
0.206828
0.373721
0.369549
0.314713
0.413656
0.462532
0.293851
0.313520
0.349879
0.306964
0.457764
0.315905
0.470877
0.437498
0.460744
0.483990
0.386834
0.593662
0.406504
0.452995
0.474453
0.475645
0.591874
0.525713
0.468493
0.560880
0.422597
0.720620
0.814795
0.734925
0.649691
0.741482
0.862479
0.936985
0.772476
1.156926
1.431704
5.721450
18.728971
61.885715
118.561983
231.999755
345.420837
510.281920
612.269640
681.638718
669.486523
575.556755
456.069708
285.291672
176.008940
76.026917
33.563972
10.564923
6.977916
6.248951
6.416440
6.225705
6.232858
6.334782
7.032752
8.117557
10.271668
15.223622
20.511746
29.349923
37.162900
47.854781
53.671598
57.380795
57.989955
##ZVALUE=365
0.134706
0.245571
0.038743
0.216961
0.255704
0.118613
0.221729
0.084639
0.171661
0.202656
0.204444
0.151992
0.135899
0.268817
0.175834
0.204444
0.188947
0.246763
0.267625
0.094771
0.194907
0.328422
0.134706
0.287890
0.204444
0.167489
0.460744
0.295639
0.174642
0.202656
0.353456
0.334978
0.165701
0.284910
0.345707
0.186563
0.402927
0.257492
0.332594
0.332594
0.213981
0.202656
0.261664
0.329614
0.339746
0.348687
0.205636
0.393987
0.450611
0.491738
0.419617
0.489950
0.352859
0.387430
0.660419
0.492930
0.469685
0.669956
0.660419
0.781417
0.811815
0.779629
0.845790
1.134872
2.059937
11.331439
33.778548
92.398524
165.830851
302.087665
427.454710
587.029457
676.800609
710.835457
654.499531
500.015616
361.346602
201.294422
108.532906
39.708614
16.344786
7.022619
5.998611
6.045699
5.449653
5.727410
5.647540
5.919933
5.994439
6.968975
8.654594
12.620687
17.347932
24.724603
32.147765
40.828586
##ZVALUE=370
0.055432
0.010729
0.180602
0.165701
0.335574
0.223517
0.155568
0.105500
0.198483
0.196695
0.120997
0.216961
0.195503
0.188947
-0.019670
0.195503
0.080466
0.069737
-0.011921
0.125766
0.101924
0.222921
0.257492
0.203848
0.131726
0.221729
0.179410
0.247955
0.282526
0.297427
0.152588
0.221729
0.147820
0.189543
0.336766
0.340939
0.218749
0.084639
0.149608
0.277758
0.277758
0.136495
0.293851
0.287890
0.307560
0.298619
0.293851
0.281930
0.166893
0.220537
0.396967
0.284910
0.330806
0.411868
0.346899
0.468493
0.440478
0.392795
0.532866
0.503659
0.775456
0.706911
0.528693
0.658631
0.772476
0.909567
1.194477
5.999804
21.140575
68.790913
127.984881
250.375867
377.085805
564.789772
677.430034
737.311840
697.667599
563.892722
418.708920
233.461857
130.356550
49.304962
22.880435
9.131432
5.980730
5.449653
5.351901
5.031824
5.069971
5.165935
5.202889
5.590916
6.216764
8.694530
11.160970
16.379952
##ZVALUE=375
0.119805
0.174642
0.184774
0.213981
0.066757
0.213981
0.098944
0.164509
0.047684
0.279546
0.100732
0.138879
0.142455
0.194907
0.185966
-0.019670
0.172853
0.178814
0.239611
-0.021458
0.378489
0.143647
0.239611
0.180602
0.227690
0.206828
0.277758
0.131726
0.165701
0.072718
0.169873
0.215769
0.229478
0.211596
0.239611
0.157952
0.240803
0.053644
0.236630
0.219941
0.143647
0.226498
0.179410
0.243783
0.325441
0.215769
0.342727
0.401735
0.171661
0.268817
0.322461
0.369549
0.365973
0.270605
0.467896
0.490546
0.418425
0.279546
0.446439
0.498891
0.550747
0.507832
0.434518
0.587702
0.634789
0.771880
0.652671
0.834465
0.954866
3.228784
11.174679
40.156841
86.385608
199.804902
325.884819
517.385602
648.486614
750.351548
747.810602
629.451871
484.095812
289.757848
178.966522
84.988475
41.346550
14.059544
7.045865
5.133748
4.764795
4.909635
5.019903
5.182624
5.006790
4.979968
5.610585
6.321669
##ZVALUE=380
0.162721
0.079870
0.059605
0.005960
0.057817
0.008941
0.079870
0.136495
-0.042915
0.310540
0.023842
0.224710
0.163913
0.140667
0.123978
0.145435
0.171661
0.133514
0.087619
0.035763
0.092983
0.015497
0.155568
0.126958
0.138879
0.018477
0.268817
0.077486
0.242591
0.129938
0.180602
0.024438
0.273585
0.229478
0.108480
0.186563
0.156760
0.109673
0.187755
0.169873
0.169873
0.318885
0.256896
0.290871
0.241995
0.383854
0.272989
0.275970
0.136495
0.273585
0.247955
0.185966
0.318885
0.183582
0.306964
0.325441
0.322461
0.335574
0.402927
0.421405
0.352859
0.264645
0.407696
0.505447
0.469685
0.423789
0.581741
0.685453
0.820756
0.819564
0.992417
1.711845
5.684495
27.718544
65.852404
163.868666
278.752446
466.542840
619.213581
761.250854
779.247880
677.178502
550.946593
372.731686
243.103504
114.180446
57.041645
19.785762
9.104609
5.234480
4.794598
4.857779
4.854798
4.727840
5.172491
5.280972
##ZVALUE=385
0.164509
0.154972
0.200868
0.019670
0.149608
0.130534
0.280738
0.123978
0.168681
0.215769
-0.011921
0.124574
0.130534
-0.041723
0.022650
0.108480
0.140667
0.178814
0.123978
0.284910
0.161529
0.286698
0.132918
0.143647
0.050664
0.097752
0.139475
0.045896
0.191927
0.214577
0.075698
0.114441
0.045896
0.225902
0.261664
0.123978
0.196695
0.155568
0.257492
0.233650
0.266433
0.145435
0.218749
0.281930
0.209808
0.160933
0.374913
0.223517
0.249743
0.247955
0.184774
0.407696
0.314713
0.175834
0.286698
0.381470
0.277758
0.311732
0.332594
0.283718
0.406504
0.292659
0.311732
0.362992
0.339746
0.415444
0.486970
0.678897
0.572801
0.719428
0.723600
0.672936
0.971556
1.264811
2.858639
15.236735
40.213466
109.503865
207.040906
396.595001
556.846857
729.947686
779.202580
747.106671
648.877621
464.837551
319.469571
166.487694
89.406967
35.437942
15.107989
5.944967
4.885793
4.712939
4.664660
4.647970
##ZVALUE=390
0.210404
0.243783
0.029802
-0.034571
0.009537
0.021458
0.106692
0.002980
0.103712
0.142455
0.097752
0.131726
0.198483
0.143647
0.136495
0.154972
0.276566
0.189543
0.139475
0.141859
0.255704
0.120997
0.082850
0.068545
0.062585
0.289679
0.165701
0.171661
0.075698
0.205636
0.339746
0.136495
0.114441
0.233650
0.309944
0.025630
0.107884
0.204444
0.167489
0.114441
0.278950
0.228882
0.110865
0.001788
0.235438
0.285506
0.145435
0.140667
0.134706
0.161529
0.243783
0.193715
0.214577
0.379682
0.269413
0.146627
0.181794
0.263453
0.255704
0.282526
0.237823
0.319481
0.334978
0.290871
0.374913
0.403523
0.493526
0.494719
0.576973
0.564456
0.560880
0.712872
0.708699
0.847578
0.872612
0.943542
1.567602
8.019805
24.695992
78.096986
157.173872
322.585702
471.686721
653.575659
743.864775
766.407847
695.071816
533.207655
394.937992
230.381489
127.612948
48.860908
22.651553
8.321404
5.078912
4.749894
##ZVALUE=395
-0.006557
0.027418
0.235438
0.056624
0.098944
0.121593
0.052452
0.050664
0.095963
0.008941
-0.035763
0.227690
-0.006557
0.005960
0.159740
0.138879
0.292659
0.220537
0.154972
0.013709
0.117421
0.012517
0.148416
0.116825
0.184774
0.024438
0.103712
0.017881
0.096560
0.158548
0.119805
0.232458
0.143647
0.227690
0.170469
0.103712
0.274777
0.227690
0.392795
0.261664
0.246763
0.061989
0.024438
0.223517
0.222921
0.253916
0.262856
0.236630
0.116825
0.290871
0.242591
0.344515
0.221729
0.243783
0.227690
0.255704
0.087619
0.230670
0.246763
0.318885
0.279546
0.140667
0.269413
0.373721
0.221729
0.372529
0.473857
0.359416
0.447631
0.637770
0.575781
0.700951
0.694990
0.524521
0.689626
0.602603
0.577569
0.737906
0.993609
4.466772
16.198754
56.241751
109.270811
220.747590
339.902639
511.885881
618.087649
679.107904
652.371645
543.169975
417.565703
254.133940
154.450536
65.589547
31.213760
11.219978
##ZVALUE=400
0.044703
0.040531
-0.087619
0.124574
0.012517
0.020862
0.004768
0.209808
0.231862
0.071526
0.114441
0.185966
0.413656
0.175834
0.093579
0.034571
0.209808
0.011921
0.204444
0.032783
0.046492
-0.042915
0.099540
0.088811
0.181794
0.154972
0.121593
0.120997
0.286698
0.197887
0.171661
0.090599
0.050664
0.195503
0.258684
0.208616
0.248551
0.042915
0.136495
0.156760
-0.042915
0.116825
0.172853
0.233650
0.121593
0.109673
0.290871
0.244975
0.189543
0.238419
0.170469
0.162721
0.255704
0.157952
0.241995
0.258684
0.246763
0.069737
0.186563
0.283718
0.294447
0.186563
0.109673
0.266433
0.380874
0.236630
0.277758
0.524521
0.181794
0.476837
0.552535
0.519753
0.553727
0.422597
0.551939
0.473857
0.409484
0.652671
0.568628
0.661612
0.862479
2.329946
8.423924
31.373501
68.179965
153.891444
246.390700
381.010771
471.099615
544.255972
549.805760
482.515693
394.772887
260.017514
172.015429
87.118745
##END
