##TITLE=FQP00352
##FORMAT=SPECTACLE-ASCII V-1.2
##DATA TYPE=ULTRAVIOLET SPECTRUM
##SECOND TYPE=ULTRAVIOLET SPECTRUM
##DATE=01/21/18
##TIME=17:57:28
##SPECTROMETER/DATA SYSTEM=SPECTACLE
##XUNITS=NM EM
##YUNITS=ENERGY
##YFACTOR=1
##FIRSTX=220
##LASTX=410
##NPOINTS=96
##3DDATA=Equidistant
##ZUNITS=NM EX
##FIRSTZ=210
##LASTZ=400
##ZPOINTS=39
##XYDATA=(Y..Y)
##ZVALUE=210
1.297593
1.573563
1.739860
1.890659
2.006888
1.675487
2.508759
2.162457
2.573729
2.445579
2.161860
2.260804
2.037883
2.362728
2.566576
2.177954
2.478957
2.694726
3.027916
3.337860
3.732443
3.756881
3.664494
4.061460
4.427433
4.939437
5.728602
5.870461
6.303787
6.113648
5.532503
6.717443
7.749796
6.228685
7.513762
6.983876
7.379651
7.401705
7.679462
7.718801
7.196665
7.581711
7.478595
7.953644
7.120967
7.476807
7.537603
7.611513
7.638931
8.227825
8.294582
7.806420
7.744431
7.452965
7.688999
8.289814
7.821918
7.704496
7.181764
7.457733
7.658601
8.261800
7.647872
8.614659
8.038878
8.079410
9.094477
9.511709
9.853840
12.825727
13.959408
18.013716
17.396808
22.912621
23.401976
25.837421
26.908517
27.034879
26.011467
25.111437
23.719668
20.551682
18.365979
16.446710
14.494658
11.078715
8.824468
7.523894
8.005500
7.180572
6.232858
6.539822
7.199645
7.265806
7.035732
7.288456
##ZVALUE=215
5.496740
5.867481
5.000830
4.122853
3.734827
2.808571
3.161430
4.384518
4.428625
4.083514
4.330873
3.825426
3.243685
3.371835
2.964735
2.943873
3.408790
3.136992
3.268719
4.057884
3.375411
3.654957
3.454685
3.931522
5.129576
4.979968
6.037951
6.675720
7.443428
8.543730
9.403825
9.827614
9.529591
10.055900
10.888577
12.030602
12.092590
11.608601
12.080669
10.088682
10.405779
9.413958
9.046793
10.623932
8.991957
9.106994
8.681417
8.572936
8.051991
7.644892
7.920861
8.260608
8.488894
8.577704
7.054806
7.653832
6.796718
6.981492
8.154511
7.951856
7.222891
6.662607
7.531643
7.008910
6.801486
7.335544
7.017851
7.871985
8.283854
9.830594
10.109544
12.868643
13.022423
14.999509
15.932918
17.970800
17.388463
18.200874
18.396974
16.294718
17.120838
14.749765
12.724996
10.073781
10.481477
8.851886
7.380843
7.030964
7.398725
6.829500
6.166697
6.341934
5.808473
5.111694
4.871488
5.547404
##ZVALUE=220
20.027757
16.402602
20.244718
21.684766
19.597411
17.427802
13.508797
10.249615
8.426905
8.984804
8.853674
8.207560
9.600520
9.682775
9.089708
6.071925
4.968643
4.222989
3.485680
3.399849
3.203750
3.519654
3.165603
4.214644
4.703999
5.940795
6.856918
9.711981
10.035634
12.185574
13.399720
16.509891
18.612742
19.537807
19.898415
20.463467
18.626451
20.192862
19.356608
16.166568
15.816689
14.917850
14.471412
13.950467
12.336969
11.619925
12.272596
11.481643
10.752678
11.101961
8.827448
8.240938
8.586645
9.522438
9.433627
8.033514
7.221699
8.891821
7.309914
8.001924
8.642673
7.189512
7.711649
6.990433
6.784797
7.142425
6.959438
7.660985
7.310510
9.047985
8.747578
10.424852
11.224747
11.957884
12.395978
13.315678
12.664795
11.446476
12.675524
10.560751
10.221601
9.446740
9.477735
8.700490
7.735491
6.823540
5.532503
6.050467
5.508661
5.310774
5.585551
5.674958
4.930496
5.444884
5.731583
5.834699
##ZVALUE=225
29.979944
30.450821
40.676594
53.746700
61.379671
64.351559
58.319569
46.501756
37.787557
25.196671
19.999743
19.401908
20.784736
22.364855
22.225976
22.833943
19.895434
15.077591
11.590719
9.560585
5.115867
4.805923
4.316568
4.107952
5.248785
7.450581
8.435845
12.120605
13.965964
18.451810
19.870996
23.936629
23.919940
25.110841
27.813911
26.334524
27.157664
26.687980
26.270747
24.419427
24.690628
22.458434
20.637512
19.031763
17.159581
16.834736
15.821457
14.672875
15.162826
14.274716
11.536479
11.565685
11.157990
11.581779
11.282563
11.335611
10.043979
9.895563
10.400414
9.190440
10.359883
8.758903
8.952618
9.582639
8.963943
9.284616
8.243918
9.177923
10.511875
10.033846
11.579990
11.107922
11.679530
12.589693
12.640953
13.117790
11.199713
11.698604
11.705756
10.992885
10.465980
10.434985
10.425448
8.816719
8.242726
7.916689
7.280707
6.659627
7.416606
7.556677
7.952452
7.495880
7.793903
7.429719
7.465482
7.637739
##ZVALUE=230
23.892522
26.822686
46.115518
76.739788
107.654929
138.063431
152.137876
156.520009
137.251616
124.469399
84.003806
61.492920
45.716763
40.121675
41.829944
46.211481
48.938990
47.352910
43.169856
35.496950
25.659800
18.729568
12.859702
9.058714
7.482767
8.971691
9.842515
12.104511
14.757514
20.054579
21.396875
23.583770
25.391579
27.684569
28.576851
31.069517
29.404759
29.078722
27.770996
27.235746
27.119517
23.833513
24.708509
23.051500
20.895600
19.463897
19.686818
18.445849
16.573668
15.631914
15.041828
15.281439
13.900995
13.961792
13.541579
14.491677
13.985634
14.100671
13.354421
13.401508
13.164878
12.532473
11.630654
12.657642
12.152791
12.104511
11.902452
13.963580
13.819933
13.551712
14.083982
15.629530
15.836954
17.994642
17.532706
17.626882
16.122460
16.494989
16.299486
15.968680
16.063452
14.366508
14.475584
13.111830
13.246536
12.225509
13.031960
12.311935
11.907816
12.236834
11.618733
11.905432
11.167526
11.854768
10.256767
11.124611
##ZVALUE=235
9.055734
10.043979
24.894476
61.800480
101.579428
171.792507
226.596594
300.242901
329.918861
328.871608
291.969776
236.781836
157.051682
118.145943
82.368851
72.650909
71.300864
77.379942
83.829761
78.597665
77.211857
64.607859
49.321651
35.632849
26.823878
16.596913
14.332533
10.870695
12.870431
15.149713
18.216968
18.233657
19.789934
21.368861
22.903681
22.458434
23.233891
24.184585
22.458434
23.590922
22.126436
23.866892
22.267699
22.714734
20.734668
19.264817
19.222498
18.618703
17.895699
16.651750
17.309785
17.304420
16.661882
16.382933
18.023849
16.533732
15.998483
14.889836
16.564727
16.930699
15.887618
15.967488
16.698837
15.153885
14.932752
15.265942
15.915632
16.112924
18.049479
18.320680
17.948747
20.338893
21.437407
23.255944
23.845434
21.908879
22.819638
21.289587
21.369457
20.064712
20.289421
18.477440
20.813942
19.645691
17.093420
18.626451
17.729998
16.254783
16.750693
17.351508
16.976595
16.501546
16.163588
15.676618
16.100407
17.309785
##ZVALUE=240
1.496673
1.773834
3.824830
13.579726
43.414831
82.592964
167.348981
265.118480
392.848849
475.390553
523.521900
520.108938
468.304753
369.812846
280.140638
181.998610
130.966902
101.662874
92.562437
101.979971
109.898448
115.375519
111.616850
103.923678
83.788633
67.809820
47.282577
33.797622
23.940802
18.071532
13.475418
13.482571
15.003681
17.395616
17.403960
18.293858
19.420981
19.262433
19.845963
20.576715
21.559000
20.579696
21.312833
20.606518
22.860765
21.319985
21.404624
20.873547
19.847751
19.260645
19.479990
19.606948
18.950701
20.044446
18.084645
18.397570
18.754601
17.839670
17.106533
15.505552
16.825795
18.482804
17.417669
16.240478
16.798973
18.314719
17.790794
19.433498
18.543601
20.520687
22.202730
21.351576
24.461746
24.404526
24.800897
26.166439
27.226806
26.828647
24.462938
26.653409
24.831891
24.269819
24.397969
22.911429
21.671653
22.092462
21.546483
22.214651
23.701787
19.746423
21.124482
19.913912
21.193624
21.099448
20.670891
21.114945
##ZVALUE=245
1.387596
1.250505
1.655817
1.548529
3.717542
10.024905
38.414598
84.427595
185.450912
291.166902
451.880693
551.808476
617.122650
636.129975
594.659448
481.820703
378.577709
254.462957
177.552700
114.736557
97.766519
97.252727
115.286708
128.219724
132.421851
128.190517
117.467642
101.323724
76.240897
59.595704
42.952895
29.885769
22.940636
17.942786
18.962622
18.972754
18.664598
21.579862
21.836758
23.453832
23.533702
21.939874
22.876859
23.206472
22.222996
22.767782
22.914410
21.250844
21.370649
20.919442
20.569563
19.124746
19.270778
17.893910
18.143654
17.114878
16.182661
17.236471
16.140938
16.232729
16.246438
15.096664
16.206503
16.091466
15.140772
16.318560
17.446876
16.579628
18.302798
18.214583
20.332932
20.524859
22.451878
22.439957
23.929477
25.551915
25.120974
25.206804
24.493933
24.818778
25.247931
23.475885
22.729635
20.868778
22.684932
22.395849
23.205876
23.007989
22.788644
21.186471
21.824837
22.790432
21.415949
21.466613
22.821426
20.895600
##ZVALUE=250
1.221895
1.182556
0.993609
1.093745
1.413822
1.632571
1.964569
7.010698
33.757687
80.441833
197.399855
327.333808
472.391844
651.609898
752.401948
817.461014
778.172016
663.461685
546.582937
359.496474
247.601867
161.415935
106.864572
94.981790
106.522441
122.337937
140.114427
146.314502
143.276453
132.375956
115.794539
89.884996
72.126985
49.520731
37.809610
30.058622
27.527809
25.884509
25.308728
25.222898
27.595758
26.476979
25.704503
24.734735
25.051832
24.906993
24.031997
23.208857
22.212863
21.767616
19.439459
21.137595
19.731522
17.897487
17.732978
16.016960
16.870499
15.584826
14.731884
14.330745
14.289618
13.865829
15.655756
15.465617
13.770461
13.680458
14.898777
15.521646
16.601682
18.230677
18.103719
18.727779
19.398928
21.454692
19.907951
21.078587
21.679997
21.572709
21.460652
22.166967
21.627545
21.721721
22.093654
21.028519
20.738840
20.709634
21.111965
21.807551
20.367503
22.004843
20.038486
20.191669
21.229982
21.486878
21.859407
21.258593
##ZVALUE=255
0.968575
1.025796
1.041889
1.179576
1.062751
1.436472
1.166463
1.316667
1.681447
3.687739
21.716952
60.789585
143.074989
331.874490
519.833565
779.180527
944.273472
1015.943885
1015.943885
929.272771
772.413611
580.536723
344.665647
213.368535
117.881894
95.378757
92.351437
114.246607
139.344931
153.386593
164.561868
163.497925
149.804950
131.594539
105.865598
79.633594
62.633753
45.492649
39.298534
33.126473
31.104684
30.486584
29.646754
28.698444
29.070973
27.932525
25.632977
24.468899
24.191737
23.457408
22.352934
21.284819
18.544793
18.524528
17.650723
16.244650
15.925765
15.403628
15.215874
13.283491
14.111996
14.085770
13.530850
13.411641
13.476610
12.563467
14.173985
14.220476
14.513731
15.371442
15.377998
17.300844
17.531514
17.127991
18.246770
19.847751
18.800497
19.788742
19.180775
20.060539
20.423532
19.739866
19.480586
19.613504
19.346476
19.443631
19.104481
19.868612
18.707514
19.689798
18.736720
19.758940
19.480586
19.513965
19.255877
19.560456
##ZVALUE=260
0.963807
1.151562
1.143813
1.062751
1.178980
1.148582
1.161695
0.998974
1.116991
1.340508
1.646876
2.240539
6.607771
32.633543
86.469650
251.122713
435.566902
732.432008
948.199630
1015.944481
1015.944481
1015.944481
927.494764
720.286965
449.153781
294.054747
169.716477
116.731524
93.977451
99.844933
119.262934
150.404572
170.090795
181.194544
184.135437
164.777637
144.767761
114.723444
91.247559
69.751740
55.798888
42.868853
39.294958
35.002828
32.786727
30.560493
29.486418
28.135777
26.999712
24.143457
23.426414
22.797585
20.306706
19.891858
19.243956
17.571449
16.700625
15.614629
14.846921
14.528632
14.119744
13.074875
12.357831
13.599992
12.345910
12.768507
12.451410
13.287663
13.379455
13.865829
14.490485
14.594793
16.257763
16.092658
17.414689
17.941594
17.625690
17.332435
17.433763
18.003583
18.007755
17.874837
17.631650
17.777681
17.964840
17.575622
17.988682
18.666983
17.736554
18.495917
18.959641
17.876625
18.250942
18.126965
18.529892
19.013882
##ZVALUE=265
0.913739
0.909567
0.937581
0.833869
0.740886
0.799894
0.826716
1.003742
1.042485
1.116991
1.488924
1.278520
1.700521
2.242923
5.595684
29.890537
74.364543
194.896460
354.083776
653.028488
897.748470
1015.943885
1015.943885
1015.943885
1009.045839
836.441517
582.794547
402.334929
230.688453
149.342418
108.673573
97.935796
112.597942
147.031546
167.921782
190.575719
196.401477
188.456774
172.999501
145.976543
121.818781
90.611577
72.080493
52.744746
43.342710
34.516454
31.992793
29.665828
28.132796
25.146604
24.631619
23.519993
21.506548
19.776821
19.339919
18.194914
16.832948
15.918612
15.100837
14.078617
13.190508
13.527870
12.463927
12.649894
13.204813
12.712479
12.651682
12.050867
13.643503
13.163686
13.491511
13.935566
14.836788
15.571713
15.413761
16.230941
15.873909
16.151667
16.211867
16.609430
16.251802
16.037822
16.800761
16.508698
16.447902
16.449690
16.664863
15.975833
15.858412
17.387867
15.433431
16.311407
16.145706
17.353892
16.840696
17.156601
##ZVALUE=270
0.764728
0.741482
0.626445
0.725985
0.754595
0.603795
0.843406
0.950694
1.056790
0.810623
1.225471
1.162887
1.355410
1.245737
1.546741
1.909733
2.122521
13.738871
45.508742
149.983764
296.788812
501.000881
826.700926
1007.257700
1015.940905
1015.940905
1015.940905
939.520597
694.348812
510.703921
354.445577
200.732946
132.799745
94.165802
97.463727
123.056769
146.339536
173.654556
187.410712
193.960667
185.863972
163.904428
144.222975
111.958981
86.913705
59.691668
47.872663
36.290884
28.326511
24.878979
23.524761
21.343827
20.518899
19.597411
17.651916
17.206669
16.690493
16.215444
15.231967
14.928579
14.328957
13.689995
13.270974
13.088584
13.151765
12.410879
12.273788
12.516975
13.170838
13.166666
14.018416
13.654828
14.693737
14.675856
14.585853
15.226603
15.354753
15.340447
15.054941
14.575720
15.601516
15.807748
15.828609
15.485883
15.294552
15.623569
15.616417
16.290545
15.540719
15.524626
15.761852
16.267896
16.154647
15.682578
15.251637
16.571879
##ZVALUE=275
0.690818
0.715852
0.481606
0.438690
0.672936
0.632405
0.894666
0.752807
0.664592
0.755787
0.824928
0.868440
1.206994
1.004934
1.098514
1.291633
1.382828
1.445413
1.711845
5.273819
23.639798
73.739886
219.841003
401.394963
699.391961
895.378590
1015.935540
1015.935540
1015.935540
1001.150012
848.656893
604.559779
423.455834
235.043764
147.896409
88.225603
74.444413
85.701942
103.466511
135.170817
155.643821
170.942545
177.510977
170.242786
156.583786
125.039816
102.541447
74.732900
56.835413
37.630796
28.360486
21.135807
18.115640
17.044544
16.315579
15.320778
14.468431
14.412999
14.168620
13.378859
14.133453
13.165474
12.909770
13.229847
13.166666
13.354421
13.256669
13.188720
13.188720
13.331771
13.869405
14.628768
14.266968
14.952421
15.450716
15.232563
15.727878
15.905499
15.275478
14.886856
14.817715
15.521646
15.143752
15.452504
14.794469
14.812946
15.382767
15.192628
15.131831
15.664697
15.603900
14.897585
15.325546
15.139580
14.096498
15.826821
##ZVALUE=280
0.258684
0.276566
0.290871
0.075698
0.344515
0.510812
0.455976
0.260472
0.332594
0.413656
0.533462
0.505447
0.601411
0.520945
0.691414
0.707507
0.673532
0.783801
0.877976
1.177788
1.263618
2.029538
10.337830
39.818883
137.456656
255.329609
475.549698
679.785013
917.732716
1015.716791
1015.716791
1005.155444
835.372806
660.171509
430.916548
285.853744
151.455998
87.546706
53.400993
50.802827
67.615509
89.978576
117.451549
136.708617
157.546997
160.048604
154.601932
142.214894
116.691589
91.758966
63.770413
46.752691
30.245781
23.043752
16.230941
13.860464
12.975931
12.431741
13.237596
12.807846
12.691617
12.638569
12.348890
13.195872
12.847781
13.005733
13.415813
13.274550
13.723969
13.193488
14.239550
14.450550
14.589429
15.162826
14.682412
14.896989
14.853477
14.937520
15.431643
15.174747
14.657974
15.384555
14.900565
14.811754
14.765859
15.144944
14.971495
14.921427
14.823675
14.490485
14.660954
14.780760
14.767647
14.581680
14.248490
14.925599
##ZVALUE=285
0.457764
0.463724
0.445843
0.417829
0.402927
0.502467
0.436902
0.667572
0.603795
0.611544
0.744462
0.488758
0.748634
0.632405
0.692606
0.748634
0.732541
0.676513
0.940561
0.945926
1.224875
1.124740
1.257658
1.267791
3.898740
15.212893
54.680705
122.121572
272.833705
424.891710
646.004677
811.877847
929.241776
966.176987
896.306634
711.706877
551.491976
338.861942
208.386779
102.617741
56.920648
34.307837
38.882494
57.099462
78.779459
108.011961
126.148462
144.862533
152.101517
146.821737
134.905577
112.902522
92.414618
64.986944
46.907663
29.412508
20.614862
14.860630
13.524890
12.831688
12.308955
13.044477
13.604760
13.741851
13.581514
13.768673
14.477968
14.597774
14.666915
15.217662
15.360713
15.808940
15.968680
15.956759
16.201735
15.850663
15.882850
16.162992
16.396642
15.821457
16.682744
15.874505
15.872717
16.013980
15.681982
15.861988
15.702844
15.343428
15.527606
15.940666
15.527606
14.967918
14.974475
15.172958
14.151931
14.591813
##ZVALUE=290
0.369549
0.333786
0.290871
0.326633
0.220537
0.466704
0.384450
0.455976
0.456572
0.487566
0.519753
0.548959
0.458956
0.615716
0.463724
0.707507
0.603795
0.520945
0.713468
0.801682
0.811815
0.804663
0.755787
1.073480
1.068711
1.314878
1.915693
4.977584
24.614930
61.489940
127.176642
278.706551
446.856618
683.381557
831.995010
935.787559
918.025970
776.449442
628.276467
415.561795
273.152590
137.786865
74.176788
33.402443
25.165677
35.062432
50.454736
73.292851
94.479918
120.617747
137.149692
146.449804
144.904852
129.687786
111.678839
84.623694
65.090656
42.829514
31.654835
21.784902
17.708540
14.730692
14.008880
14.270544
14.115572
14.938712
14.230609
15.536547
15.273690
16.496778
16.100407
17.261505
17.026663
17.169714
16.876459
17.124414
17.146468
16.958714
17.222762
17.189980
17.233491
16.762614
16.772747
16.530752
16.765594
16.440749
16.520619
16.547441
16.160607
15.582442
16.002655
15.601516
14.892817
15.102625
15.498996
14.647841
##ZVALUE=295
0.366569
0.470877
0.376701
0.221729
0.202656
0.376701
0.316501
0.346899
0.203848
0.411868
0.448823
0.429749
0.384450
0.325441
0.486970
0.604987
0.647902
0.590682
0.532866
0.573993
0.641942
0.890493
0.907779
0.901818
0.999570
0.842810
0.967979
1.101494
1.367927
3.105998
9.884834
42.049885
95.887780
243.154764
401.606560
649.538636
823.743939
965.520740
974.224806
861.808658
719.323754
498.899817
341.528654
181.719661
101.604462
40.676594
23.225546
21.301508
30.274987
48.179626
67.202449
94.015598
111.757517
132.754445
141.473413
138.449669
126.825571
106.824636
87.195635
61.720610
46.615601
31.111836
23.330450
18.236637
16.373992
15.221834
15.416741
15.158653
15.786886
16.282797
15.959740
16.952753
16.504526
17.213821
17.522573
17.874837
17.545819
17.678738
17.329454
17.010570
17.502904
17.537475
16.773939
16.879439
17.085671
16.874671
17.333627
16.733408
16.467571
16.098619
15.725493
15.307665
15.534759
15.514493
15.577674
15.169978
##ZVALUE=300
0.220537
0.223517
0.234842
0.276566
0.448823
0.379682
0.355840
0.297427
0.294447
0.399947
0.501871
0.397563
0.419617
0.558496
0.448823
0.494719
0.489950
0.517964
0.497699
0.641942
0.475645
0.569820
0.672936
0.688434
0.854731
0.822544
1.112819
0.928640
1.054406
1.186728
1.268983
1.480579
5.305409
19.194484
70.425868
151.585937
336.351991
517.648458
759.003758
891.533494
962.775946
924.960971
762.423873
609.217882
394.928455
255.626440
130.325556
71.943998
29.590726
17.648935
19.239783
27.605891
44.315457
60.772896
85.870624
106.456876
127.119422
134.175420
131.672621
123.644471
105.139613
85.871816
63.957572
48.319697
32.748580
24.830699
19.285679
16.696453
15.821457
15.824437
15.988946
16.169548
16.538501
17.025471
17.032623
17.380714
17.160773
17.453432
17.251968
17.455816
17.548800
16.843677
17.403960
17.485619
17.393827
17.313957
16.715527
17.044544
16.649961
16.215444
15.925765
15.380979
15.221834
14.815927
15.374422
15.145540
##ZVALUE=305
0.350475
0.284910
0.490546
0.352859
0.485778
0.357628
0.486970
0.267625
0.471473
0.470877
0.394583
0.432730
0.364780
0.441670
0.499487
0.562668
0.564456
0.585914
0.425577
0.437498
0.519753
0.539422
0.611544
0.703931
0.677705
0.759959
0.818968
0.868440
0.898838
0.915527
0.862479
1.101494
1.219511
1.420975
2.936721
10.245442
44.982433
109.369755
270.202756
435.276031
679.077506
840.575695
962.698460
959.622860
833.169818
686.676502
475.284457
331.290960
176.760554
97.149611
39.424896
19.737482
14.101863
17.531514
27.455688
40.439963
62.296987
80.779791
102.405548
116.898417
127.275586
127.620697
118.144751
103.735924
80.184937
63.858628
45.038462
33.763647
23.044944
19.391775
16.819835
15.995502
16.087890
15.961528
16.285777
16.087890
16.245842
16.186833
16.558766
16.813874
16.680956
16.690493
17.072558
16.654730
16.458631
16.521811
16.239882
16.695857
15.714765
16.349554
15.647411
15.605688
15.250444
14.871955
15.136600
14.823675
##ZVALUE=310
0.098944
0.154972
0.131726
0.104904
0.179410
0.345707
0.081658
0.177622
0.119805
0.172853
0.359416
0.314713
0.182986
0.305772
0.337958
0.075698
0.243783
0.240803
0.164509
0.375509
0.386834
0.419617
0.210404
0.457764
0.388622
0.531673
0.494719
0.436902
0.718832
0.817776
0.671744
0.735521
0.811815
1.054406
1.040697
1.338720
1.542568
5.307794
20.830631
75.235963
153.560638
333.985686
516.496897
748.508573
882.912874
950.464010
914.312601
771.556497
620.047450
407.996774
266.821980
133.336782
71.505904
27.716756
15.085936
13.157725
16.869903
26.063919
35.777688
55.480599
71.331859
93.918443
109.343529
118.425488
120.470524
112.078786
99.474788
79.742670
62.325597
42.501688
33.324957
23.512840
18.997788
16.051531
15.334487
14.949441
14.817715
14.934540
14.676452
15.035868
15.252829
15.438795
15.180707
15.362501
15.772581
15.681982
15.889406
16.097426
16.071796
15.292764
15.033484
15.215874
14.617443
14.613867
14.584661
14.660954
##ZVALUE=315
0.302792
0.322461
0.251532
0.115633
0.320673
0.403523
0.235438
0.072718
0.314713
0.292659
0.195503
0.262856
0.241995
0.307560
0.339746
0.451803
0.362992
0.313520
0.415444
0.335574
0.396967
0.434518
0.503659
0.370741
0.326633
0.544786
0.517964
0.468493
0.398755
0.651479
0.582933
0.607967
0.598431
0.759959
0.737906
0.941753
0.949502
1.088977
1.417994
2.806783
10.733604
46.648979
102.775693
236.419439
380.502939
603.307486
736.742616
858.479738
885.576606
807.330608
686.360598
489.856005
339.221954
178.332925
97.271800
37.464499
18.914938
11.183619
11.807680
16.103983
21.940470
35.831928
48.282743
69.864988
85.889697
104.730725
111.114979
113.507509
108.387470
90.616941
76.128840
58.136582
43.964982
30.245781
23.427606
17.613769
15.515685
14.443994
14.212728
14.203787
14.695525
14.863610
14.388561
14.978647
14.707446
14.952421
14.844537
14.855862
14.708638
14.687777
14.602542
14.217496
14.467835
13.775826
13.963580
14.137626
##ZVALUE=320
0.177622
0.207424
0.297427
0.180602
0.246763
0.281930
0.259876
0.208616
0.170469
0.153780
0.236630
0.269413
0.357628
0.517964
0.331998
0.311732
0.350475
0.375509
0.337958
0.424981
0.349879
0.506639
0.291467
0.405908
0.357628
0.301600
0.566840
0.458956
0.638962
0.603795
0.645518
0.599623
0.567436
0.692606
0.664592
0.745654
0.646710
0.852942
0.800490
0.944734
1.161695
1.580715
4.617572
25.200844
62.504411
159.782767
264.788866
442.796946
593.614578
766.595006
843.971968
839.473009
763.871670
583.281517
421.358943
232.186913
130.259991
56.860447
26.995540
11.983514
9.467602
10.979772
13.431907
20.222664
28.573871
45.587420
61.223507
82.128644
94.657540
105.102658
107.288957
100.392699
90.943575
71.384907
56.500435
39.057732
29.367805
21.464825
17.258525
14.668703
14.201999
13.720989
13.824701
13.806820
14.125705
13.889670
13.905764
13.866425
13.608932
13.676882
13.787746
14.069676
13.535619
13.895631
13.554692
13.302565
##ZVALUE=325
0.215769
0.174642
0.107884
0.200868
0.350475
0.162721
0.298619
0.203848
0.331998
0.219941
0.341535
0.228882
0.310540
0.315905
0.182986
0.126958
0.145435
0.327826
0.234842
0.151992
0.253916
0.426769
0.548959
0.219941
0.313520
0.364780
0.527501
0.438690
0.394583
0.434518
0.353456
0.525713
0.422597
0.496507
0.502467
0.589490
0.460744
0.621676
0.680685
0.783801
0.754595
0.822544
1.059771
1.136661
2.648830
10.216832
40.159822
83.002448
190.773606
315.245986
509.799719
651.167035
786.421895
821.206570
754.508972
639.812946
437.816978
299.675465
158.979893
87.367892
34.256577
16.338825
8.924603
8.438826
9.801984
12.409687
19.201636
27.571917
44.174790
59.655905
79.569817
91.335773
99.192858
101.284981
93.147755
84.657669
66.099763
52.796602
37.128925
27.887821
19.558668
16.707778
14.330745
13.527870
13.083816
13.538599
13.535619
13.059974
13.269782
13.174415
13.336539
13.002753
13.031960
13.303757
12.907982
12.967587
##ZVALUE=330
0.115633
0.304580
0.337958
0.231862
0.178814
0.113845
0.245571
0.067949
0.198483
0.394583
0.222921
0.259876
0.177622
0.318885
0.258684
0.362992
0.342727
0.341535
0.149608
0.284910
0.350475
0.147820
0.305772
0.337958
0.308752
0.317693
0.436902
0.469685
0.267625
0.360608
0.440478
0.451803
0.558496
0.434518
0.518560
0.579953
0.529885
0.599623
0.458956
0.565648
0.696778
0.610948
0.743866
0.695586
0.824928
1.004934
1.535416
4.277825
21.426678
55.485964
137.989521
233.459473
405.360460
545.773506
696.852803
767.550468
755.447745
671.235919
504.460931
370.014906
203.212500
116.007924
48.884749
22.781491
9.923577
7.944703
8.069873
9.174943
12.857914
18.262863
29.232502
40.131807
56.663752
70.892572
85.574985
91.694593
94.226003
88.825822
76.548457
64.373612
47.034621
37.380457
27.365685
21.744967
16.848445
14.885664
13.703704
12.984872
12.861490
12.829900
12.870431
12.651682
12.346506
12.637973
12.489557
12.250543
##ZVALUE=335
0.239611
0.301600
0.224710
0.308752
0.170469
0.200868
0.112653
0.344515
0.149608
0.257492
0.216961
0.220537
0.118613
0.413656
0.156760
0.172853
0.222921
0.264645
0.264645
0.210404
0.241995
0.322461
0.316501
0.237823
0.383854
0.301600
0.349879
0.274777
0.318885
0.376701
0.298619
0.447631
0.334978
0.305772
0.368953
0.375509
0.533462
0.513792
0.577569
0.419617
0.449419
0.573993
0.554919
0.569820
0.782609
0.841618
0.779629
0.829697
1.003742
2.524853
9.594560
39.355755
83.067417
185.958743
301.352739
477.954745
602.641702
709.835887
736.266971
672.945976
567.426682
394.579768
270.708799
142.958760
75.521469
27.740598
13.270974
8.479953
7.880926
8.340478
9.223819
12.605786
16.835928
27.092695
37.937760
55.024624
67.144632
80.394745
87.090731
89.081526
83.601475
71.773529
61.433911
47.773719
38.063526
26.926994
21.176934
16.252995
14.875531
12.808442
12.809634
12.310743
11.937618
12.230873
12.257695
11.742711
##ZVALUE=340
0.108480
0.153780
0.292659
0.226498
0.057817
0.145435
0.236630
0.111461
0.241995
0.119805
0.088811
0.088811
0.233650
0.188947
0.044703
0.253916
0.080466
0.174642
0.262856
0.149608
0.239611
0.112653
0.124574
0.213981
0.184774
0.311732
0.311732
0.321865
0.268817
0.343919
0.288486
0.392795
0.304580
0.369549
0.334978
0.395775
0.436902
0.443459
0.400543
0.326633
0.519753
0.482798
0.486970
0.616908
0.526905
0.560880
0.634789
0.699759
0.725985
0.832677
0.875592
1.277924
5.897880
18.939972
62.852502
123.937726
259.778500
377.887487
538.487434
642.329454
712.736845
696.320534
588.960648
473.433733
301.733613
191.372633
89.788437
44.119954
15.450716
8.798838
8.032918
8.250475
8.455515
9.707808
12.831688
16.969442
25.909543
35.955906
51.095486
63.763857
77.095628
82.157850
83.497763
80.018640
69.844723
59.721470
45.777559
36.849976
26.146770
20.730495
16.411543
13.680458
12.744665
11.930466
11.879802
11.344552
##ZVALUE=345
0.033975
0.281930
0.138879
0.177622
0.154972
0.162721
0.074506
0.020862
0.063777
0.283718
0.132918
0.212789
0.297427
0.218749
0.302792
0.081658
0.029802
0.178814
0.218749
0.272989
0.247955
0.199676
0.188947
0.182986
0.184774
0.346899
0.269413
0.233650
0.286698
0.273585
0.293851
0.294447
0.260472
0.363588
0.218749
0.253916
0.397563
0.507832
0.549555
0.569820
0.498891
0.335574
0.561476
0.423789
0.453591
0.352859
0.397563
0.581741
0.447631
0.585914
0.636578
0.987649
0.849962
0.931621
1.900792
12.134910
34.439564
92.733502
167.897940
309.276581
435.685515
595.420599
673.987865
697.775483
649.383664
519.062877
388.487577
223.396420
129.108429
55.622458
25.701523
10.689497
8.095503
8.134842
8.082986
8.422732
9.263754
12.005568
16.026497
24.199486
33.435822
47.823787
58.440566
69.546700
75.771809
77.786446
74.528456
67.335963
59.413910
44.768453
35.989881
25.307536
20.176768
16.005635
13.337731
11.910796
##ZVALUE=350
0.073910
0.250936
0.139475
0.010729
0.158548
0.164509
0.181794
0.084639
0.186563
0.048876
0.191927
0.009537
0.192523
0.211596
0.178814
0.218749
0.312924
0.325441
0.161529
0.168681
0.187755
0.219941
0.088811
0.316501
0.350475
0.297427
0.241995
0.236630
0.483990
0.316501
0.313520
0.379682
0.368953
0.406504
0.483990
0.299811
0.193715
0.394583
0.294447
0.483990
0.437498
0.323653
0.334978
0.319481
0.336766
0.454783
0.303984
0.574589
0.460744
0.628829
0.537634
0.567436
0.642538
0.721812
0.600815
0.858903
1.223683
6.998777
22.162795
68.317652
127.457976
249.248743
357.953906
505.183935
601.243973
669.317842
650.395751
550.931692
431.859493
263.907909
164.420605
77.132583
37.421584
12.551546
8.199811
7.801652
7.440448
7.463694
7.737875
9.178519
11.292696
16.685724
21.622777
30.951500
39.826632
52.727461
61.090589
69.103837
71.596503
69.712996
63.628554
53.250790
44.308901
32.631755
25.767684
19.135475
##ZVALUE=355
0.092983
0.281930
0.159740
0.072718
0.154972
0.137687
0.147820
0.175834
0.097752
0.134706
0.195503
0.091791
0.172853
0.211596
0.288486
0.112653
0.309944
0.216961
0.308752
0.082850
0.058413
0.253916
0.075698
0.249743
0.235438
0.184774
0.296831
0.367761
0.338554
0.219941
0.172853
0.372529
0.245571
0.376701
0.293851
0.304580
0.312924
0.370741
0.246763
0.241995
0.428557
0.274777
0.401735
0.268817
0.360608
0.346899
0.404716
0.473857
0.477433
0.445843
0.614524
0.613928
0.566840
0.508428
0.683665
0.685453
0.692606
0.821948
0.842810
3.267527
11.801720
43.951869
89.080930
183.196664
284.071565
436.072946
544.661880
629.531741
637.179017
563.230515
460.344553
307.743549
196.511745
90.154409
44.531822
15.790462
8.840561
7.207990
7.052422
6.864667
7.351637
7.695556
8.222461
10.450482
13.389587
19.289851
26.352406
36.644936
45.034885
54.424405
60.986876
64.516664
63.173771
57.766438
51.507950
41.422844
##ZVALUE=360
0.033975
0.133514
0.137687
0.028610
0.243783
0.172853
0.166893
-0.062585
0.327826
0.218749
0.152588
0.245571
0.065565
0.159740
0.129938
0.208616
0.212789
0.111461
0.181794
0.218749
0.207424
0.183582
0.300407
0.263453
0.256896
0.205636
0.133514
0.297427
0.286698
0.204444
0.243783
0.384450
0.413656
0.277758
0.130534
0.147820
0.283718
0.193715
0.446439
0.216961
0.201464
0.404716
0.294447
0.216961
0.357628
0.360608
0.268817
0.319481
0.437498
0.337958
0.368953
0.579953
0.466704
0.468493
0.470877
0.383854
0.583529
0.528693
0.805855
0.696778
0.852942
1.337528
4.460812
21.248460
51.320791
129.368901
214.333534
349.770784
465.809703
583.349466
620.297790
591.096878
509.481430
357.068777
241.707563
120.971799
63.895583
24.912953
11.206865
6.907582
6.907582
6.631613
6.747842
6.683469
6.972551
7.729530
8.890629
11.590719
15.145540
21.711588
29.423833
39.773583
47.178864
54.942966
58.046579
57.799816
##ZVALUE=365
0.118613
0.011921
0.092983
0.202656
0.167489
0.111461
-0.034571
-0.022650
0.195503
0.134706
0.207424
0.068545
0.192523
0.152588
0.021458
0.409484
0.093579
0.340939
0.255704
0.126958
0.174642
0.074506
0.094771
0.212789
0.057817
0.138879
0.258684
0.349879
0.213981
0.223517
0.067949
0.169873
0.371933
0.288486
0.262856
0.248551
0.181794
0.211596
0.191927
0.260472
0.017881
0.169873
0.237823
0.347495
0.305772
0.427961
0.339746
0.407696
0.345707
0.498891
0.396967
0.560880
0.411868
0.492930
0.434518
0.433922
0.646710
0.545979
0.488758
0.603795
0.496507
0.913739
0.705719
1.074672
2.170801
11.992455
33.683777
89.021921
162.635446
299.186707
403.664708
521.712899
582.962632
586.475730
528.180599
399.464965
291.330814
166.704655
91.856718
34.663677
15.241504
7.066727
6.187558
6.368756
6.064773
6.177425
6.309748
6.730556
6.766915
7.563829
9.323955
13.400912
17.544627
25.913715
32.870770
41.805506
##ZVALUE=370
0.111461
0.076890
-0.083447
0.103712
0.113845
0.196695
0.052452
0.069737
0.071526
0.211596
0.210404
0.118613
0.095963
0.137687
0.102520
0.226498
0.203848
0.145435
0.188947
0.374913
0.182986
0.156760
0.354648
0.164509
0.153780
0.181794
0.138879
0.059605
0.308752
0.255704
0.124574
0.360608
0.294447
0.196695
0.100732
0.235438
0.169873
0.170469
0.341535
0.135899
0.232458
0.259876
0.175834
0.347495
0.264645
0.307560
0.246763
0.295639
0.288486
0.394583
0.474453
0.291467
0.308752
0.462532
0.229478
0.325441
0.417829
0.400543
0.431538
0.384450
0.409484
0.551939
0.584722
0.626445
0.739694
0.827909
1.229644
5.911589
20.711422
67.252517
125.432611
235.381722
341.202617
476.378798
545.966625
569.563508
530.487895
425.171852
321.006775
183.621645
107.108951
43.559670
21.170974
9.092689
6.181598
5.694628
5.439520
5.296469
5.514622
5.626678
5.808473
5.976558
6.852746
8.869767
11.346936
16.381741
##ZVALUE=375
0.160933
0.056624
0.038743
0.247955
0.174642
0.021458
0.161529
0.176430
0.251532
0.249743
0.200868
0.060797
0.123978
0.077486
0.051856
0.094771
0.134706
0.230670
0.060797
0.102520
0.090599
0.349879
0.275970
0.307560
0.305772
0.167489
0.147820
0.168681
0.284910
0.204444
0.224710
0.016689
0.011921
0.267625
0.244975
0.261664
0.272989
0.120997
0.252724
0.103712
0.242591
0.367761
0.450611
0.355840
0.322461
0.395775
0.349879
0.184774
0.385642
0.315905
0.168681
0.360608
0.340939
0.356436
0.444651
0.381470
0.393987
0.438690
0.330806
0.488758
0.495911
0.606775
0.536442
0.479817
0.590682
0.447631
0.686646
0.760555
0.934601
3.165603
11.504889
40.270686
86.177588
186.163783
286.962986
424.145460
505.324006
556.052923
542.357564
455.232859
359.735489
225.932598
148.466825
76.816678
40.988922
14.715791
7.491708
5.464554
5.343556
5.106926
5.043745
5.270839
5.080700
5.378723
5.980730
6.321669
##ZVALUE=380
0.176430
0.117421
0.113845
0.186563
0.185966
0.225902
0.240803
0.146627
0.072718
-0.050664
-0.005960
0.125766
0.245571
0.195503
0.170469
0.056624
0.350475
0.311732
0.141859
0.201464
0.180602
0.261664
0.203848
0.139475
0.261664
0.186563
0.168681
0.120997
0.118613
0.204444
0.048876
0.283718
0.287890
0.180602
0.190735
0.203848
0.178814
0.223517
0.180602
0.295639
0.220537
0.239611
0.231862
0.181794
0.186563
0.212789
0.300407
0.124574
0.098944
0.215769
0.219941
0.227690
0.151992
0.338554
0.270605
0.300407
0.335574
0.372529
0.208616
0.356436
0.263453
0.274777
0.223517
0.452995
0.448823
0.482798
0.416636
0.706911
0.628829
0.831485
1.037717
1.597404
6.415844
30.203462
67.883730
153.963566
240.224004
372.100472
460.987687
540.416837
546.048880
475.239754
391.271710
264.059901
178.700686
89.156628
47.783852
18.589497
8.803606
5.171895
4.844666
4.554987
4.762411
4.774928
4.712939
4.812479
##ZVALUE=385
0.041723
0.182986
0.122786
0.110865
0.252724
0.151992
0.143647
0.231862
0.133514
0.046492
0.156760
0.246763
0.246763
0.056624
0.057817
0.075698
0.059605
0.174642
0.161529
0.095963
0.098944
0.184774
0.192523
0.128746
0.073910
0.170469
0.195503
0.255704
0.171661
0.140667
0.147820
0.230670
0.125766
0.122786
0.291467
0.206828
0.282526
0.240803
0.152588
0.150800
0.265837
0.252724
0.045896
0.076890
0.219941
0.293851
0.198483
0.193715
0.256896
0.240803
0.102520
0.180602
0.192523
0.300407
0.335574
0.284910
0.383854
0.127554
0.215769
0.241995
0.234842
0.267625
0.177622
0.241995
0.393987
0.355840
0.353456
0.497699
0.563860
0.605583
0.681877
0.768900
0.648499
1.062751
3.033876
17.936826
45.158863
110.232830
188.052654
319.413543
417.411923
510.830879
536.904931
508.032441
446.366668
331.318974
235.617757
130.474567
74.570775
31.953454
13.834834
5.660653
4.487634
4.449487
4.134774
4.489422
##ZVALUE=390
0.116825
0.141859
0.097752
0.104904
0.053644
0.093579
0.060797
0.195503
0.159740
0.200868
0.078678
0.174642
0.229478
0.043511
0.086427
0.100732
0.078678
0.012517
0.137687
0.086427
0.097752
0.079870
0.159740
0.023842
0.074506
0.112653
0.284910
0.050664
0.230670
0.296831
0.265837
0.350475
0.093579
0.116825
0.180602
0.215769
0.170469
0.246763
0.228882
0.189543
0.290871
0.159740
0.214577
0.222921
0.320673
0.219941
0.161529
0.137687
0.345707
0.102520
0.209808
0.213981
0.144839
0.245571
0.465512
0.084639
0.296831
0.166893
0.277758
0.219941
0.146627
0.327826
0.277758
0.240803
0.279546
0.184774
0.387430
0.354648
0.571609
0.554919
0.605583
0.617504
0.567436
0.591874
0.842810
0.797510
1.432896
8.935928
28.605461
84.835887
155.017972
280.457735
375.264883
474.955440
529.433489
536.945462
492.233634
389.664769
297.768712
184.267759
107.207894
44.616461
21.093488
7.251501
4.676580
4.167557
##ZVALUE=395
0.218749
0.142455
0.100732
0.147820
0.079870
0.072718
0.054836
0.101924
0.196695
0.057817
0.049472
-0.008941
0.024438
0.082850
0.107884
0.297427
0.164509
0.092983
0.121593
0.161529
0.065565
0.079870
0.156760
0.092983
0.185966
0.106692
0.300407
0.065565
0.152588
0.127554
0.180602
0.263453
0.272989
0.315905
0.387430
0.211596
0.158548
0.269413
0.217557
0.151992
0.123978
0.026822
0.162721
0.194907
0.260472
0.282526
0.283718
0.207424
0.309944
0.315905
0.318885
0.065565
0.344515
0.235438
0.201464
0.369549
0.124574
0.211596
0.281930
0.258684
0.342727
0.292659
0.272989
0.320673
0.356436
0.313520
0.430942
0.518560
0.399947
0.496507
0.534654
0.496507
0.571609
0.464916
0.549555
0.662804
0.585914
0.766516
0.923872
4.616976
19.029975
68.956614
131.117702
239.691734
348.188877
479.043722
550.397635
579.573512
552.567840
460.623503
359.264016
223.636627
140.363574
61.998963
30.363798
10.733604
##ZVALUE=400
0.215769
0.080466
0.231862
0.289679
0.182986
0.199676
0.151992
0.168681
0.282526
0.241995
0.152588
0.297427
0.169873
0.165701
0.126958
0.218749
0.275970
0.103712
0.135899
0.274777
0.081658
0.186563
0.348687
0.177622
0.299811
0.194907
0.267625
0.392795
0.263453
0.310540
0.237823
0.371933
0.365973
0.406504
0.380874
0.305772
0.352859
0.366569
0.297427
0.378489
0.300407
0.434518
0.404716
0.263453
0.269413
0.294447
0.235438
0.240803
0.287890
0.415444
0.356436
0.295639
0.323653
0.327826
0.219941
0.167489
0.247955
0.381470
0.357628
0.360608
0.379682
0.395775
0.408888
0.392795
0.437498
0.557899
0.486970
0.386834
0.535846
0.534654
0.542998
0.429749
0.591874
0.517964
0.461936
0.480413
0.759959
0.563860
0.470877
0.804663
0.976920
2.409816
8.587837
38.923621
85.152984
183.455944
282.371640
416.829586
500.028729
558.547974
555.461645
480.102897
392.495990
269.979835
178.241730
91.357827
##END
