##TITLE=
##FORMAT=SPECTACLE-ASCII V-1.2
##DATA TYPE=ULTRAVIOLET SPECTRUM
##SECOND TYPE=ULTRAVIOLET SPECTRUM
##DATE=09/27/17
##TIME=13:56:54
##SPECTROMETER/DATA SYSTEM=SPECTACLE
##XUNITS=NM EM
##YUNITS=ENERGY
##YFACTOR=1
##FIRSTX=220
##LASTX=410
##NPOINTS=96
##3DDATA=Equidistant
##ZUNITS=NM EX
##FIRSTZ=210
##LASTZ=400
##ZPOINTS=39
##XYDATA=(Y..Y)
##ZVALUE=210
3.219843
3.327727
2.422929
2.843738
3.009439
3.466606
3.566742
3.351569
4.034638
3.478527
2.903938
3.482699
3.698468
3.513694
3.050566
4.052520
4.118681
4.618764
4.407763
3.970861
4.672408
4.764795
4.519820
5.763769
4.736781
5.932450
5.902648
6.543994
5.965829
6.177425
6.763935
6.748438
6.647706
6.929636
7.526875
6.683469
6.549954
6.732941
8.097887
6.939769
8.810759
7.107854
8.182526
7.755756
7.554889
8.718967
7.642508
8.951426
8.075833
8.604527
8.225441
9.068847
9.046793
8.834600
8.751750
9.901524
8.701682
8.901954
9.267926
10.161996
9.394884
9.631515
9.184480
8.545518
9.771585
10.463595
10.260940
11.281967
13.338923
13.520718
17.604828
20.294785
23.597479
24.503469
25.877953
26.797652
28.414726
26.604533
25.177598
25.051832
22.465587
20.812750
16.795993
16.641617
13.924837
11.937618
11.791587
9.819865
9.539723
9.862781
10.363460
9.485483
9.388924
10.518432
9.314418
9.472966
##ZVALUE=215
8.735657
8.143783
7.558465
6.460547
5.895495
4.963875
5.651712
5.271435
6.195903
5.744696
5.638599
6.000996
5.057454
4.751682
4.644990
3.316998
3.944635
4.209876
4.222989
4.079938
4.867911
5.076528
5.181432
4.818439
5.272627
6.216764
6.831884
5.912781
6.130934
6.683469
6.718636
7.618666
6.761551
7.273555
7.354617
6.937981
7.670522
8.034706
8.039474
7.862449
8.277893
9.376407
8.117557
8.146763
8.418560
8.620620
9.385943
8.725524
9.319782
10.219812
9.745955
10.271668
10.726452
10.235906
9.624958
10.116696
9.699464
9.569526
10.031462
9.768605
10.616779
10.824800
10.718703
11.306405
10.864735
12.388825
12.981892
13.641715
13.667941
16.008615
16.822815
19.254684
22.334456
23.502707
25.270581
27.037859
25.756955
26.382804
23.956895
23.100972
22.785664
18.931627
19.395947
15.424490
14.870763
13.100505
12.417436
9.942651
10.845661
10.455847
11.990666
10.384917
9.794831
10.462999
10.335445
9.754896
##ZVALUE=220
27.791858
27.876496
32.158494
29.799938
29.445887
25.268793
19.579530
16.020536
11.582971
11.909604
11.836886
12.631416
13.297796
11.889935
10.285974
9.463429
6.488562
5.326867
5.418658
5.350709
5.338788
4.572868
5.965829
6.568432
6.005764
6.004572
6.843805
6.867647
6.826520
7.239580
7.766485
8.015633
7.908940
7.984638
8.291602
9.191632
8.481741
9.104609
10.589957
9.925961
9.587407
10.830760
9.468794
10.611415
10.640621
11.400580
11.396408
11.486411
12.123585
12.088418
14.085770
12.906790
13.141632
13.388991
13.061762
14.064908
12.372732
12.022853
11.975765
14.851689
13.176799
14.005899
14.589429
15.035868
14.695525
15.799999
15.564561
15.835762
18.067956
18.968582
21.276474
22.063851
26.541948
26.846528
28.788447
29.215813
29.403567
30.705929
26.784539
28.017759
24.716854
23.187995
20.102859
19.797683
19.073486
15.236735
16.753674
15.072823
14.901757
13.749599
14.232993
14.449954
15.121698
13.755560
13.172626
14.087558
##ZVALUE=225
50.478578
51.560998
73.210001
83.623528
94.515681
97.557902
90.009570
71.205497
53.799748
38.181543
30.146837
25.919676
24.000406
26.796460
24.424791
26.113987
21.073818
16.916990
13.697743
9.793639
6.859899
6.480813
6.006956
6.418824
6.137490
6.991625
7.463694
7.898808
7.817745
7.625818
8.070469
8.449554
9.021759
8.761883
9.777546
10.255575
10.958910
11.583567
10.807514
11.554956
12.668967
12.984872
13.260841
13.818741
15.138984
14.027953
16.591549
15.077591
15.446544
16.342998
18.230677
16.698837
16.909838
17.256737
18.547773
18.055439
19.226670
19.516945
18.836856
21.037459
19.470453
20.988584
18.693805
19.027591
20.654798
20.762682
21.438599
21.541715
23.735762
22.943616
26.580691
29.346943
30.804873
32.051802
32.917857
34.596920
33.601522
33.005476
30.322671
31.507611
29.360652
27.316809
27.063489
26.256442
23.411512
21.685958
23.350716
21.975636
22.780895
21.977425
21.443963
22.163987
19.877553
19.861460
21.762848
21.049976
##ZVALUE=230
42.211413
47.558546
77.556968
129.280686
174.495578
218.371749
247.199535
247.902870
227.876902
191.538930
130.194426
93.520880
60.098767
48.837662
44.676661
45.544505
49.724579
51.086545
45.440793
36.256909
27.949810
20.466447
14.489889
10.332465
8.520484
6.938577
6.634593
8.295774
8.643866
8.659959
9.353757
9.451509
9.127855
12.119412
10.961890
11.750460
12.685657
12.258887
14.443994
14.212728
15.440583
15.604496
17.156601
17.134547
19.727945
17.985702
19.672513
19.111633
20.859838
21.318793
22.163987
22.059679
22.889972
24.409890
25.994778
25.149584
26.787519
26.498437
26.202798
26.918650
25.733709
27.694702
27.588606
27.410984
29.932857
26.833415
28.614998
32.532811
33.634901
34.247637
34.807920
37.733912
38.308501
41.035414
41.415691
44.001937
42.927861
42.246580
45.536757
41.579604
38.636923
37.795901
36.468506
36.175847
36.639571
34.095645
33.714771
32.886863
31.835437
34.455657
32.712817
34.406781
30.688643
31.139851
32.846928
31.992793
##ZVALUE=235
16.215444
17.226934
38.143992
93.481541
151.371956
247.321725
338.248610
439.167619
494.580865
502.759814
453.885794
357.037783
271.114707
164.918900
118.848681
89.261532
72.329640
74.401498
80.276728
82.140565
75.351000
67.829490
48.856735
38.546920
24.376512
20.000935
13.229847
11.076927
9.900928
10.375977
9.158850
10.714531
11.865497
11.761785
13.189912
14.508963
14.264584
14.690757
14.704466
16.103983
16.171932
18.934608
18.303990
20.477772
21.633506
21.572709
21.430850
22.090673
23.497939
25.884509
25.784969
24.074912
27.441978
27.239919
29.376745
28.940439
30.080676
31.815767
32.556653
33.796430
32.910705
34.598708
34.123659
36.538839
36.423802
36.500692
37.936568
35.843849
37.249923
43.109655
45.854449
44.602752
49.022436
52.858591
52.831769
52.103996
53.551793
51.560998
54.517984
52.804947
50.749779
51.681995
49.251914
49.226880
49.735904
47.941804
47.327876
45.679808
44.854879
45.430660
43.677688
45.547485
45.590997
45.785904
41.933656
45.900941
##ZVALUE=240
3.247857
3.244877
6.453991
24.946928
56.208968
129.601955
216.432810
382.970572
532.033443
653.656721
782.655478
807.819963
726.179481
617.568493
447.007418
314.955711
185.592771
129.948854
100.145936
98.387003
106.645823
117.554665
113.800764
101.698637
85.033774
65.571666
49.350858
33.135414
26.389956
16.872883
15.483499
13.806820
12.352467
13.820529
13.715625
16.220808
15.286803
16.615987
16.463995
15.607476
17.707944
18.913746
19.963980
20.226836
20.788908
22.322536
23.131967
23.249984
22.975802
25.455952
24.667978
26.997924
28.002858
27.450919
29.817820
29.510856
30.742884
32.380819
33.559799
34.756660
34.942627
35.632849
37.531853
36.841631
36.949515
38.554668
38.883686
44.250488
45.958757
47.329664
51.627755
52.761436
53.115487
60.130954
62.286854
61.159730
64.584613
60.906410
60.423613
59.980750
60.970783
58.250427
55.914521
58.095455
56.254864
57.892799
56.722760
57.283640
55.278540
58.360696
55.485964
53.375959
55.117607
53.508878
53.438544
54.821968
##ZVALUE=245
2.827644
2.964735
3.049970
2.708435
4.806519
18.980503
47.764778
123.276711
230.564475
412.554741
593.372583
822.847486
961.316824
1001.133919
975.521803
805.031657
648.418665
432.067513
289.831758
167.077780
119.081736
102.477670
113.388896
122.573972
131.302476
129.965544
109.920502
99.845529
72.084665
57.342649
39.075613
29.116869
21.573901
16.926527
16.736984
14.217496
15.640855
16.464591
15.363693
16.859770
16.862750
17.993450
17.547607
18.192530
19.012690
20.395517
20.451546
21.692514
23.503900
24.551749
24.129748
24.822950
24.455786
25.160909
25.145411
26.609898
27.897954
27.793646
27.901530
28.550625
31.664968
31.071901
31.780601
34.053922
33.290982
35.748482
37.238598
41.291714
40.859580
43.714643
44.323802
49.403906
51.745772
55.681467
56.175590
57.059526
57.648420
62.025785
57.976842
59.580803
58.676600
59.823990
57.122707
56.471825
58.445930
58.296919
56.581497
57.694912
54.825544
55.303574
54.948926
54.832697
56.681633
57.168603
55.457950
55.631995
##ZVALUE=250
2.116561
2.278686
2.088547
2.597570
2.346635
2.566576
3.853440
10.553598
44.247508
93.537569
233.416557
387.804508
584.751964
867.306590
1014.927626
1015.805006
1015.805006
1015.805006
890.071988
622.950792
408.161879
261.377692
142.455697
105.236769
106.331706
124.223828
135.277510
139.672756
133.683681
124.536753
110.509992
83.862543
63.116550
41.850805
30.657649
20.863414
17.407537
15.470982
15.334487
15.656948
15.802979
16.073585
16.771555
16.806722
18.327832
19.655824
20.759702
19.671917
20.735860
21.788478
21.335483
23.901463
22.826791
25.128722
24.571419
25.900602
24.545789
26.522875
26.580691
28.147697
29.254556
29.176474
29.385686
29.952526
32.695532
32.914877
34.309626
36.613941
37.348866
42.610765
42.109489
44.487715
46.566725
47.833920
51.288605
55.532455
52.307844
54.809451
53.941607
53.482652
53.753853
52.485466
52.596927
55.333972
54.406524
53.416491
52.982569
52.697659
54.705739
55.554509
54.748654
51.874518
55.484772
54.368973
54.708719
53.162575
##ZVALUE=255
1.955628
1.885891
1.902580
2.085567
2.061725
2.434850
2.545714
2.261996
3.169775
5.985498
29.320717
75.684786
157.283545
353.220701
545.337796
856.876969
1015.805006
1015.805006
1015.805006
1015.805006
1015.804410
897.310972
562.137961
352.407694
181.984901
118.273497
99.178553
105.844736
126.214623
140.939951
145.737529
143.137574
130.194426
105.896592
84.167719
58.465600
42.407513
27.230978
20.905733
16.328692
16.164780
16.301870
15.949607
17.136931
17.387867
18.767715
19.337535
20.588636
20.108819
20.769835
22.437572
22.086501
21.832585
23.011565
24.014711
24.900436
24.809837
26.092529
25.576949
26.735663
27.096868
27.427673
28.006434
29.182434
29.964447
30.187964
31.379461
32.825470
35.360456
36.184788
38.083792
41.912794
42.295456
45.517683
46.274662
47.956705
48.235655
48.890710
49.267411
50.321817
50.632954
50.084591
50.189495
50.456524
50.264597
49.866438
48.982501
51.349998
51.492453
51.618814
52.568913
51.361918
51.977634
52.011609
52.616596
51.088929
##ZVALUE=260
2.191663
2.134442
2.018809
1.901984
1.972914
2.081990
2.225637
2.361536
2.322793
2.673864
2.831817
3.916621
11.255741
49.433708
113.828778
280.167460
475.537777
792.124867
1015.954018
1015.954018
1015.954018
1015.954018
1015.954018
1015.953422
744.751692
503.442883
276.758671
167.937875
97.975731
89.402795
101.208687
126.708746
144.839883
154.266953
149.346590
131.816864
114.699602
85.765719
66.144466
44.311881
32.325983
23.844838
20.165443
18.093586
20.536780
19.299984
19.754767
21.076798
21.895766
22.805929
22.386909
24.188757
24.551749
24.241805
25.409460
24.498701
26.400685
26.542544
26.745796
27.280450
27.917624
28.424859
28.268695
30.259490
30.670762
30.399561
32.388568
31.880736
34.706593
36.223531
37.869811
38.032532
41.092634
43.060780
43.525696
45.561790
46.089888
45.059919
46.144724
46.545863
46.188831
47.762990
48.058629
47.043562
47.868490
47.852993
47.363639
47.656894
48.664808
48.996806
47.562718
49.453974
50.092936
48.861504
48.713684
50.986409
##ZVALUE=265
1.665950
1.715422
1.980662
1.876950
1.993775
1.813769
1.660585
1.975894
1.900792
2.124906
2.510548
2.470613
2.932549
3.025532
8.386970
29.407740
105.388761
211.477876
377.823710
719.373822
1004.818678
1015.805006
1015.805006
1015.805006
1015.805006
1015.805006
1005.650759
652.930737
421.265960
215.114951
127.349496
81.147552
86.293817
113.855004
133.394003
155.090690
156.622529
152.675509
137.349963
112.100840
90.553761
63.934922
47.320724
33.654571
26.634932
23.094416
21.635890
22.353530
22.831559
24.519563
24.169683
25.805831
26.220679
27.571917
27.617812
27.467608
27.971864
29.421449
28.796792
30.125976
29.604435
31.365752
31.387806
30.111670
31.135678
31.729937
33.328533
34.792423
34.015775
35.850406
38.073659
39.328933
40.913820
42.471886
42.483807
43.906569
44.593811
44.641495
44.279695
44.634938
45.465827
44.085979
46.452880
44.985414
46.255589
45.882463
46.411753
47.302842
46.875477
47.667623
48.565865
46.338439
46.926737
47.925711
47.531724
46.828985
##ZVALUE=270
1.560450
1.462698
1.322627
1.389980
1.513958
1.759529
1.738667
1.945496
1.909733
1.999736
2.258420
2.386570
2.094507
2.551675
2.485514
2.690554
4.455447
14.156699
61.346889
142.899752
356.634855
611.378551
1012.094617
1015.805006
1015.805006
1015.805006
1015.805006
1015.805006
1015.805006
928.912759
624.022484
317.009687
179.490447
88.653564
71.090460
92.160702
113.954544
144.194961
157.306790
161.054730
156.148672
140.195489
119.922757
93.290806
71.924925
50.002933
41.496754
32.274723
29.743910
28.149486
28.534532
29.274821
29.823780
30.578971
30.570626
31.374693
31.639934
31.357408
32.505989
33.001900
33.072829
32.317638
33.277869
33.221841
34.527779
33.628941
34.879446
35.105944
36.563873
38.365722
38.590431
40.315986
41.372776
41.396618
43.166876
43.658614
43.781996
44.036508
43.987632
43.184757
43.412447
44.481754
43.072701
44.679642
45.043826
45.616627
44.580698
45.761466
45.878887
45.648813
46.477914
45.437813
47.267675
46.478510
45.957565
46.521425
##ZVALUE=275
1.348853
1.493692
1.344681
1.412630
1.558661
1.609921
1.526475
1.639724
1.561642
1.693964
1.973510
1.878738
1.979470
1.930594
2.241731
2.348423
2.210736
2.791882
2.891421
7.687807
29.946566
87.439418
262.046456
497.223735
937.697887
1015.805006
1015.805006
1015.805006
1015.805006
1015.805006
1015.805006
1015.805006
873.842835
465.877652
264.826417
114.802718
70.119500
67.938566
86.272955
119.417906
138.964653
157.837868
165.421963
160.171986
145.745873
121.115446
98.642707
75.434446
61.490536
46.192408
38.814545
34.465790
33.200979
33.287406
33.450723
33.968687
34.120679
34.791827
35.016537
35.567880
36.551952
36.314726
35.839677
36.106706
35.675764
36.873817
36.651492
37.442446
38.942695
39.757490
40.145516
41.571856
42.101741
43.548942
42.629838
44.110417
43.730736
44.531822
43.787956
43.667555
44.406652
43.791533
42.754412
42.795539
42.972565
43.579936
44.191480
43.558478
44.091940
45.546889
44.963956
44.539571
44.211745
43.106675
43.068528
44.664741
##ZVALUE=280
1.343489
1.465678
1.424551
1.542568
1.580715
1.547933
1.431704
1.452565
1.378655
1.503825
1.531839
1.822710
1.806617
1.947880
1.750588
2.016425
2.098680
2.262592
2.681613
2.421737
2.976656
4.118681
23.106933
71.267486
152.328610
417.273641
694.975853
1015.805006
1015.805006
1015.805006
1015.805006
1015.805006
1015.805006
1015.805006
999.611616
595.245957
347.010493
151.024461
81.623793
56.518912
66.864491
93.540549
116.938949
143.400431
161.105990
165.839791
162.272453
147.547722
128.882527
100.601912
82.609653
61.864853
52.228570
41.762590
39.427876
35.901666
36.187768
36.033988
37.278533
36.507845
38.067698
37.322640
37.419796
38.818717
37.719607
37.961602
38.122535
38.243532
38.670897
39.562583
40.959716
41.399002
42.287707
42.778850
42.802691
43.918490
42.682886
43.382645
44.304729
44.054985
43.120980
43.654442
43.301582
42.713881
43.023825
43.577552
42.811632
43.240786
42.515993
44.556856
42.882562
42.795539
42.784810
43.444633
43.540001
42.492747
##ZVALUE=285
1.277924
1.193881
1.194477
1.323819
1.377463
1.338720
1.357794
1.337528
1.476407
1.389980
1.399517
1.708865
1.866817
1.519918
1.920462
1.898408
1.802444
1.972914
2.152920
2.177954
2.317429
2.317429
2.975464
3.143549
9.505749
33.231974
115.838647
248.841047
548.812747
889.140964
1015.802026
1015.802026
1015.802026
1015.802026
1015.802026
1015.802026
1015.802026
810.307860
496.850014
233.856440
121.030807
55.743456
49.722791
67.803860
88.648796
118.271708
137.956738
157.363415
165.939927
161.888003
152.167678
129.078627
110.595822
85.606575
66.895485
50.538778
44.399500
39.357543
37.465692
36.578774
37.190914
36.605597
36.864877
38.003922
36.385655
38.141608
38.581491
38.570762
39.277673
39.138794
41.181445
41.431785
42.256713
42.576790
43.341517
44.346452
43.006539
43.708682
42.795539
43.620467
43.173432
42.417645
42.902827
42.291880
43.212771
43.257475
42.880774
43.858886
42.960644
42.317510
42.394996
42.126775
42.308569
42.096972
42.197704
41.748881
##ZVALUE=290
1.151562
1.276731
1.396537
1.276731
1.271963
1.309514
1.276731
1.410842
1.396537
1.693964
1.380444
1.305938
1.306534
1.509786
1.557469
1.624823
1.780987
1.831651
1.886487
2.035499
2.147555
2.219677
2.272725
2.391934
2.924800
3.027916
4.510880
14.235973
66.563487
157.352686
315.697789
688.030720
1014.214754
1015.828848
1015.828848
1015.828848
1015.828848
1015.828848
1015.828848
1002.484560
687.812567
345.807672
181.534886
72.452426
42.843819
47.822595
61.880946
86.347461
106.970668
132.972002
149.433613
159.447789
158.695579
144.198537
127.342939
101.173520
83.394647
62.630773
52.223802
42.257905
37.439466
36.298633
35.111904
35.619736
35.809875
35.275817
36.707520
37.060976
38.140416
39.382577
39.794445
40.747523
40.865541
42.371750
41.585565
42.361617
42.418838
42.342544
42.810440
42.191744
42.690635
42.680502
41.813850
42.712688
41.751862
42.365789
42.617917
41.180849
43.118596
42.154789
42.602420
41.288733
41.054487
40.964484
40.094852
40.424466
##ZVALUE=295
0.990629
0.912547
1.025796
0.985861
1.143813
1.073480
1.132488
1.372695
1.148582
1.433492
1.331568
1.218915
1.292825
1.370907
1.328588
1.242757
1.465678
1.454949
1.392961
1.532435
1.666546
1.765490
1.720786
1.964569
2.063513
2.353787
2.568960
2.883673
3.421903
6.357431
33.592582
98.447800
227.984786
552.947521
913.820863
1015.727520
1015.727520
1015.727520
1015.727520
1015.727520
1015.727520
1015.727520
915.367007
472.333431
264.275670
99.873543
48.550963
33.718944
40.913820
59.697628
78.132749
105.140805
123.598576
144.002438
150.486827
149.956942
138.636827
118.355751
100.599527
76.392889
61.244965
46.196580
40.067434
35.845637
32.417774
33.075809
33.519864
34.684539
34.619570
35.755634
37.309527
38.344860
39.286613
39.432645
40.536523
40.922761
40.932894
41.437745
41.437745
41.644573
42.003989
41.685700
42.675734
42.154789
43.120980
41.719675
41.016936
41.528940
41.659474
40.893555
40.848851
40.706992
40.070415
39.386749
39.629936
39.142966
##ZVALUE=300
1.230836
1.104474
0.967979
1.077652
1.148582
1.233816
1.211762
1.062751
1.114607
1.308918
1.219511
1.077652
1.275539
1.283884
1.301765
1.355410
1.268983
1.440644
1.494884
1.354814
1.482964
1.601577
1.680851
2.036691
2.067685
2.226830
2.201796
2.335906
2.570748
2.973676
2.981424
3.704429
13.521910
50.440431
179.610848
358.534455
750.473738
1015.805602
1015.805602
1015.805602
1015.805602
1015.805602
1015.805602
1015.805602
1015.805602
725.716949
373.190641
199.199915
70.849657
34.513474
28.438568
36.106706
52.367449
67.756772
93.915462
114.584565
134.108663
141.139627
140.322447
132.769942
114.018917
96.263885
73.590875
60.246587
46.235919
39.931536
33.740997
32.489896
32.822490
33.550858
34.489632
36.204457
36.738515
38.112998
38.233995
39.922595
40.019751
40.116906
40.930510
40.857792
41.035414
42.442679
42.245984
41.875839
40.970445
41.319728
41.911602
41.851997
40.942430
41.046739
40.087700
39.661527
39.491653
38.608909
38.665533
38.618445
##ZVALUE=305
1.051426
1.015663
1.080632
1.030564
1.039505
1.031756
1.019835
1.033545
1.001954
0.952482
1.257658
1.144409
1.251698
1.461506
1.177788
1.115799
1.178980
1.132488
1.307726
1.493692
1.486540
1.367927
1.509786
1.586676
1.647472
1.732707
1.911521
1.885891
2.180934
2.206564
2.475977
2.528429
2.928972
3.492832
5.999804
36.154985
102.806687
298.444629
542.658567
980.091691
1015.806794
1015.806794
1015.806794
1015.806794
1015.806794
1015.806794
1015.806794
876.596570
539.170504
245.866776
119.252801
41.068792
23.264885
25.662780
32.949448
50.760508
67.140460
90.206861
108.448863
125.663877
133.675933
134.332776
126.125813
109.171867
93.423724
70.232749
58.458447
45.570731
39.520860
35.088658
34.069419
34.430623
35.263896
36.213994
37.480593
38.116574
38.677454
39.222836
40.037632
40.405989
41.379929
41.549802
41.569471
42.471886
42.373538
42.177439
41.853786
42.319894
41.681528
40.979981
41.171908
40.549636
39.390922
40.026903
38.530827
38.727522
##ZVALUE=310
0.939965
1.035929
0.916719
1.099706
1.004934
0.968575
1.026988
1.121759
1.163483
1.062751
1.092553
1.062751
1.219511
1.215935
1.229644
1.115799
1.212955
1.268983
1.148582
1.285672
1.357794
1.268983
1.316667
1.438856
1.685619
1.465678
1.769662
1.703501
1.886487
2.000928
1.859665
2.188683
2.339482
2.723932
2.864599
3.091693
3.689528
16.106963
54.575801
182.310939
365.353823
761.087537
1015.805006
1015.805006
1015.805006
1015.805006
1015.805006
1015.805006
1015.805006
1015.805006
755.771995
369.545817
194.822550
69.370866
29.068589
19.170642
22.342801
31.703711
42.667985
61.970949
79.568624
102.086663
116.608739
127.930641
130.345821
121.653676
110.728741
90.972781
76.144934
57.870746
49.107671
41.502714
37.932992
36.761761
36.661625
37.401915
37.261844
38.170815
39.742589
39.672852
40.345788
41.280985
41.484833
42.439699
42.589903
42.941570
42.419434
42.246580
42.331815
41.368604
41.086674
39.980412
39.842725
39.096475
39.899945
38.938522
##ZVALUE=315
0.974536
0.916719
1.005530
0.892878
0.921488
1.009703
0.929832
0.939965
1.026988
1.007915
1.037717
0.913739
1.092553
1.196861
0.938773
0.971556
1.201630
1.162887
1.104474
1.246929
1.333952
1.123548
1.330972
1.398921
1.414418
1.591444
1.676679
1.516938
1.622438
1.680851
1.671910
1.716614
1.960993
1.846552
2.253652
2.474785
2.667904
2.875924
3.400445
7.517934
27.848482
120.005012
264.902711
600.507855
964.196920
1015.805006
1015.805006
1015.805006
1015.805006
1015.805006
1015.805006
1015.804410
968.132019
517.975688
275.362730
97.327828
40.601492
18.512607
17.821789
22.221804
29.058456
43.312907
56.936741
77.783465
94.263554
113.600492
121.927857
123.386979
118.756890
105.392933
92.823505
74.177980
62.305927
49.513578
43.351650
39.332509
38.556457
38.140416
37.885904
39.408803
39.336681
40.470958
40.390491
40.930510
41.218996
41.563511
41.670799
41.728616
41.492581
41.370988
40.997863
40.379763
39.843917
40.131807
39.919615
40.116906
##ZVALUE=320
0.721812
0.853539
0.909567
0.987649
0.870824
0.991821
0.756979
0.788569
0.801682
1.021624
1.034737
0.928640
1.049638
1.019835
1.030564
0.970960
1.045465
1.164675
1.140833
1.047850
1.241565
1.146793
1.144409
1.301765
1.199841
1.296997
1.336932
1.242757
1.428723
1.561642
1.633763
1.699924
1.667738
1.697540
2.018809
2.106428
2.219677
2.399683
2.591610
2.876520
2.941489
3.914833
12.187958
66.616535
170.100927
443.231463
762.301683
1015.805006
1015.805006
1015.805006
1015.805006
1015.805006
1015.805006
1015.805006
1015.805006
682.694912
390.068889
162.634850
71.667433
24.691820
17.042756
18.008947
21.006465
28.306842
37.498474
53.955913
69.750547
90.922713
106.013417
117.283463
119.687915
114.848614
105.814934
88.013411
75.244904
60.397983
50.830841
43.893456
40.083528
38.682818
39.071441
38.328767
39.447546
40.008426
40.567517
40.286779
40.880442
40.514469
40.362477
40.501952
40.328503
40.265918
39.858818
39.267540
39.671659
39.805770
##ZVALUE=325
0.700951
0.825524
0.864863
0.761747
0.734925
0.687838
0.788569
0.791550
0.810623
0.815988
0.859499
0.865459
0.996590
0.833869
0.792742
0.871420
0.759959
0.916719
0.899434
0.981688
1.044869
1.046658
1.117587
1.094937
1.187921
1.044869
1.052618
1.009703
1.196861
1.397729
1.351833
1.351833
1.579523
1.665950
1.671910
1.626611
1.842976
1.923442
2.033710
2.294779
2.265573
2.773404
2.956986
3.338456
6.670952
43.362975
115.093589
310.132504
560.675859
1003.705859
1015.730500
1015.730500
1015.730500
1015.730500
1015.730500
1015.730500
1015.730500
848.559737
520.921946
232.816935
110.330582
32.592416
17.573833
15.640855
17.009974
21.510720
27.471781
39.656758
53.044558
73.113441
88.307858
104.427934
112.964511
115.984678
111.091733
98.206997
86.285472
70.932508
59.363842
48.141479
42.897463
39.885640
39.324760
38.745999
37.921667
38.760900
38.477778
39.830804
39.079785
38.673878
39.585829
38.985610
39.030910
38.809776
39.015412
38.325787
##ZVALUE=330
0.687838
0.858903
0.745654
0.698566
0.789762
0.822544
0.757575
0.917912
0.874996
0.874996
1.020432
1.067519
0.924468
0.926852
0.995994
0.936985
1.068711
0.860691
0.861883
0.989437
0.921488
1.058578
1.051426
1.091957
1.094937
1.115799
1.073480
1.206994
1.064539
1.260638
1.166463
1.259446
1.418591
1.368523
1.381636
1.620650
1.548529
1.638532
1.698732
1.779795
1.994967
2.337694
2.111793
2.324581
2.754927
3.127456
4.130602
20.288825
65.222979
210.905671
413.801670
836.585760
1015.805006
1015.805006
1015.805006
1015.805006
1015.805006
1015.805006
1015.805006
995.938778
666.493773
311.483741
162.661672
57.451725
24.109483
15.474558
15.978813
17.952919
21.765828
29.076934
38.007498
53.576827
68.113804
86.827874
99.711418
109.214783
109.051466
104.534626
96.341968
81.200600
69.085956
55.962801
48.946738
42.667985
39.647818
38.670897
38.066506
37.134886
36.935806
37.624836
37.847757
37.779808
37.539601
37.338734
37.632585
37.497878
##ZVALUE=335
0.789762
0.705719
0.803471
0.715852
0.722408
0.870824
0.723600
0.843406
0.746846
0.757575
0.864863
0.918508
0.683665
0.919700
0.760555
0.937581
0.769496
0.908971
0.915527
0.933409
0.911951
1.024604
0.998974
0.950694
0.938773
1.150966
1.011491
1.035929
1.160502
1.158714
1.294613
1.209974
1.266599
1.346469
1.357794
1.453757
1.422763
1.617670
1.556873
1.743436
1.658797
1.719594
1.894832
2.053976
2.083778
2.506971
2.582669
2.899766
3.224611
8.703470
32.082796
130.306482
277.489424
621.037483
976.699591
1015.805006
1015.805006
1015.805006
1015.805006
1015.805006
1015.805006
1015.805006
820.149779
431.100726
226.103663
78.364611
33.081770
16.829967
15.993714
17.678738
19.489527
23.361444
28.103590
39.871931
50.554872
68.435669
80.927610
95.089674
101.839900
103.597641
100.241899
89.279413
79.370737
66.235662
57.684779
48.166513
43.291450
38.672686
36.816597
35.916567
35.378933
35.420656
35.706758
35.678744
35.751462
35.919547
##ZVALUE=340
0.718832
0.705719
0.720620
0.662804
0.638962
0.931621
0.702739
0.759959
0.793934
0.769496
0.714660
0.945926
0.847578
0.795722
0.852942
0.799894
0.779629
0.684857
0.961423
0.810623
0.981688
0.943542
0.911951
0.917912
1.054406
0.992417
0.921488
1.031756
0.994802
1.044869
1.105666
1.063943
1.172423
1.227856
1.361966
1.273751
1.375675
1.295805
1.348853
1.495481
1.309514
1.505613
1.585484
1.825690
1.891851
2.003908
2.005696
2.326965
2.378821
2.509952
2.968907
4.738569
15.236735
79.459548
195.999742
492.131710
837.113857
1015.805006
1015.805006
1015.805006
1015.805006
1015.805006
1015.805006
1015.805006
971.624851
516.925454
286.790729
116.376877
47.904849
18.314719
15.852451
16.880631
17.902851
20.032525
23.015738
29.658675
37.407875
50.641894
62.722564
78.692436
89.549422
97.852945
100.017786
95.661879
89.096427
76.023936
66.417456
54.441690
47.011971
41.282773
37.884712
34.808517
34.270883
33.698678
33.705831
33.844709
##ZVALUE=345
0.753999
0.865459
0.656843
0.683665
0.592470
0.792742
0.751615
0.838637
0.686646
0.703931
0.710487
0.779629
0.850558
0.800490
0.772476
0.897646
0.871420
0.827909
0.815988
0.779629
0.881553
0.689626
0.949502
0.855923
0.990629
0.901818
0.896454
1.000762
0.889897
0.928640
1.087785
1.191497
1.153946
1.033545
1.213551
1.290441
1.224875
1.203418
1.285672
1.317859
1.308918
1.393557
1.339912
1.570582
1.563430
1.775622
1.767874
1.981854
1.966953
2.167821
2.298951
2.693534
2.714992
3.355742
7.266998
45.460463
133.343935
363.999009
631.693006
1015.805006
1015.805006
1015.805006
1015.805006
1015.805006
1015.805006
1015.805006
1015.805006
704.231858
395.262837
155.907869
70.791841
25.324821
16.954541
16.441941
17.265677
17.875433
18.806458
22.323728
26.921630
36.133528
45.939684
60.912967
71.370602
82.963705
89.258552
92.905760
91.008544
83.386898
75.305700
63.245893
54.621696
44.506788
39.150715
35.467744
33.525825
32.648444
##ZVALUE=350
0.665784
0.529885
0.584722
0.594854
0.554919
0.568628
0.734925
0.754595
0.804663
0.851750
0.708699
0.721812
0.856519
0.680685
0.733733
0.666976
0.765920
0.650883
0.740886
0.905991
0.809431
0.779629
0.852942
0.704527
1.011491
0.852942
0.859499
0.951886
0.833869
0.909567
0.985861
0.906587
1.083612
1.019835
0.876784
1.026988
1.055598
1.028776
1.224875
1.237988
1.292825
1.327991
1.395941
1.314878
1.421571
1.435876
1.535416
1.469851
1.593828
1.696944
1.934767
2.139807
2.104640
2.519488
2.560616
3.085732
4.122853
23.589730
76.329708
237.001777
451.008677
894.839764
1015.787721
1015.787721
1015.787721
1015.787721
1015.787721
1015.787721
1015.787721
830.454826
500.463843
227.304697
104.542971
31.238794
17.603636
15.320778
15.503764
16.155839
16.617775
18.730760
21.029711
27.158856
33.425689
42.983890
51.832795
65.220594
74.627995
82.878470
84.890723
84.206462
78.669786
68.629980
60.640574
50.315857
43.251514
37.073493
##ZVALUE=355
0.713468
0.740886
0.678897
0.749826
0.846982
0.640750
0.715852
0.881553
0.789762
0.794530
0.736713
0.871420
0.886917
0.742674
0.776649
0.762939
0.882745
0.797510
0.807643
0.723600
0.889897
0.835657
0.943542
0.848770
0.921488
0.828505
1.021624
0.958443
1.223683
1.061559
0.988841
0.986457
1.082420
1.147985
1.107454
1.094937
1.171827
1.115799
1.024604
1.320839
1.259446
1.187921
1.326799
1.254678
1.353621
1.247525
1.493692
1.505613
1.508594
1.728535
1.799464
1.900792
2.025962
2.054572
2.138615
2.149940
2.580881
2.814531
3.274679
10.425448
41.278005
160.065889
326.511860
677.562952
1001.915932
1015.805006
1015.805006
1015.805006
1015.805006
1015.805006
1015.805006
978.719592
646.743774
285.784602
134.611726
41.487813
18.972754
14.715791
14.902949
14.977455
15.575886
16.603470
17.924905
21.094680
24.527907
31.521916
38.542747
48.382878
57.431459
69.483519
75.424910
79.373717
78.191757
73.422790
66.825747
57.353973
##ZVALUE=360
0.584722
0.593662
0.728965
0.720620
0.650883
0.570416
0.756979
0.828505
0.819564
0.848770
0.720620
0.722408
0.852942
0.838637
0.735521
0.808835
0.807643
0.856519
0.897646
0.724792
0.879765
0.866652
0.899434
1.006722
0.930429
0.951886
0.791550
0.836849
1.083612
1.015663
0.996590
1.027584
1.118779
1.054406
1.040697
1.098514
1.089573
0.949502
1.176596
1.143813
1.176000
1.133680
1.245737
1.202822
1.349449
1.428723
1.313686
1.333952
1.419783
1.439452
1.549721
1.717806
1.774430
1.894832
1.988411
2.025962
2.106428
2.419949
2.399683
2.840757
3.384948
5.371571
16.981959
81.042647
197.727680
494.103432
811.361670
1015.805602
1015.805602
1015.805602
1015.805602
1015.805602
1015.805602
1015.805602
801.761746
395.630002
207.847953
75.175762
29.305816
14.601946
13.804436
14.608502
14.950633
15.283823
15.757680
17.172694
18.831491
22.340417
26.710629
33.839941
41.497946
52.631497
60.705543
68.189502
72.186589
72.803497
##ZVALUE=365
0.725985
0.775456
0.756979
0.797510
0.836849
0.715852
0.613928
0.837445
0.639558
0.670552
0.756979
0.782609
0.698566
0.761747
0.873804
0.853539
0.802875
0.933409
0.842810
0.784993
0.867844
1.053810
0.860691
0.815988
0.893474
0.879765
0.851750
0.954866
0.996590
0.937581
0.773668
0.984669
0.840425
1.077652
1.168847
0.998974
1.080632
1.111627
1.004934
1.030564
1.102686
1.097918
1.182556
1.165867
1.357794
1.210570
1.339912
1.441836
1.460910
1.469851
1.466870
1.713634
1.637936
1.742840
1.925826
2.078414
1.866817
2.281666
2.150536
2.534986
2.421737
2.772808
3.236532
3.664494
7.697940
44.754744
123.482943
329.344869
610.992908
1015.805006
1015.805006
1015.805006
1015.805006
1015.805006
1015.805006
1015.805006
975.396633
554.714799
305.245519
109.540820
43.457747
15.513897
13.104677
13.153553
13.798475
13.872981
14.450550
14.948845
15.706420
17.506480
19.449592
24.147630
28.783679
37.312508
45.125484
54.368973
##ZVALUE=370
0.669956
0.644922
0.660419
0.854731
0.841618
0.718832
0.797510
0.633597
0.661612
0.781417
0.645518
0.704527
0.725985
0.829697
0.778437
0.770688
0.828505
0.713468
0.936985
0.822544
0.800490
0.760555
0.749826
1.003742
0.848770
0.819564
0.966787
0.853539
0.991821
0.947714
0.974536
0.911951
1.114607
1.006722
0.823736
1.010895
1.025796
0.936985
1.058578
1.084805
0.983477
1.094937
1.077652
1.218915
1.239777
1.159906
1.292825
1.228452
1.317859
1.215935
1.366735
1.382828
1.389980
1.447797
1.390576
1.573563
1.473427
1.741648
1.804829
1.966953
2.066493
2.251863
2.542734
2.582669
2.739429
3.017783
4.469752
22.071600
74.224472
245.155692
469.170809
922.896862
1015.802622
1015.802622
1015.802622
1015.802622
1015.802622
1015.802622
1015.802622
653.511882
371.474624
149.725676
67.968965
23.443699
13.155937
11.936426
12.360811
12.726784
13.143420
13.422966
14.038682
15.049577
15.890598
18.463731
21.452904
27.142763
##ZVALUE=375
0.615716
0.681877
0.795722
0.667572
0.732541
0.640750
0.755787
0.660419
0.683665
0.793934
0.634789
0.645518
0.734925
0.677705
0.633597
0.638962
0.748634
0.778437
0.838637
0.775456
0.764728
0.854731
0.919700
0.864863
0.700951
0.820756
0.808835
0.887513
0.826716
0.742674
0.876784
0.951886
0.920892
0.850558
1.011491
0.976920
0.994802
0.950694
0.963807
1.006722
1.040697
0.971556
1.030564
1.047850
1.061559
1.111627
1.142621
1.108646
1.279712
1.130700
1.081824
1.157522
1.243949
1.206994
1.348853
1.342893
1.365542
1.386404
1.501441
1.582503
1.533628
1.670718
1.831651
2.038479
2.042651
2.344847
2.655983
2.983809
3.317595
11.047721
39.667487
147.977471
316.595435
710.466504
1015.805006
1015.805006
1015.805006
1015.805006
1015.805006
1015.805006
1015.805006
814.942718
516.636968
254.356861
126.745701
39.876699
17.140508
11.120439
11.378527
11.576414
11.995435
12.442470
12.679696
13.263822
13.570786
14.814734
##ZVALUE=380
0.590682
0.638962
0.642538
0.639558
0.686646
0.711679
0.804663
0.628829
0.685453
0.701547
0.791550
0.884533
0.841618
0.735521
0.805855
0.643730
0.562668
0.819564
0.585914
0.707507
0.802875
0.746846
0.692606
0.782609
0.908971
0.814795
0.624657
0.888705
0.781417
0.873804
0.830889
0.712872
0.755787
0.924468
0.927448
0.894666
0.872612
0.827909
0.952482
0.873804
0.801682
0.783801
0.816584
0.840425
1.090765
1.027584
1.059771
1.039505
1.008511
0.972748
0.987649
1.096725
1.287460
1.000762
1.212955
1.309514
1.271963
1.339912
1.233816
1.377463
1.515746
1.452565
1.279712
1.542568
1.767874
1.889467
2.020597
2.345443
2.573729
2.877712
3.463626
6.002784
21.720529
106.336474
247.126818
579.827428
943.373442
1015.805006
1015.805006
1015.805006
1015.805006
1015.805006
1015.805006
991.223454
682.014823
338.530540
174.829960
61.427951
25.683641
11.728406
10.529757
10.620952
10.694861
11.035800
11.632442
11.733770
##ZVALUE=385
0.620484
0.485778
0.690818
0.564456
0.599623
0.583529
0.734925
0.575781
0.539422
0.628829
0.540614
0.574589
0.562668
0.640750
0.561476
0.687838
0.688434
0.578761
0.660419
0.687838
0.761747
0.829697
0.649691
0.672936
0.820756
0.769496
0.836849
0.792742
0.575781
0.748634
0.708699
0.680685
0.788569
0.732541
0.861883
0.697970
0.844598
0.654459
0.704527
0.815988
0.754595
0.960827
0.833869
0.979900
0.957847
0.830889
0.966787
1.028776
0.945926
1.131892
0.860691
0.901818
1.070499
1.061559
1.126528
1.071692
1.255870
1.170635
1.224875
1.241565
1.401901
1.319647
1.479983
1.462698
1.503825
1.715422
1.771450
1.874566
2.127886
2.556443
2.755523
3.105998
3.045797
3.764629
10.308623
62.011480
160.327554
407.360792
730.046630
1015.799642
1015.799642
1015.799642
1015.799642
1015.799642
1015.799642
1015.799642
945.962667
503.019691
281.955004
113.349557
45.089722
13.684630
9.848475
9.535551
9.772778
10.017753
##ZVALUE=390
0.520945
0.644922
0.494719
0.593662
0.599623
0.579953
0.613928
0.572801
0.620484
0.585914
0.516772
0.727773
0.567436
0.656843
0.757575
0.736713
0.559688
0.700951
0.617504
0.592470
0.696778
0.741482
0.737906
0.670552
0.608563
0.681877
0.684857
0.566840
0.706911
0.720620
0.924468
0.707507
0.693798
0.753999
0.864863
0.762939
0.729561
0.703931
0.725985
0.893474
0.833869
0.896454
0.866652
0.866652
0.911951
0.854731
0.960827
0.773668
0.831485
0.870824
0.916719
0.987649
0.942945
1.097918
0.999570
1.063943
1.178980
1.090765
1.044869
1.113415
1.105666
1.289845
1.237988
1.306534
1.287460
1.490712
1.641512
1.934767
1.955628
2.244711
2.228618
2.388954
2.596974
2.744794
2.879500
3.159642
5.241632
31.942725
101.826787
311.276913
585.172772
1015.805006
1015.805006
1015.805006
1015.805006
1015.805006
1015.805006
1015.804410
1015.805006
702.877641
401.668549
159.737468
70.359707
19.702911
10.179877
8.735657
##ZVALUE=395
0.523925
0.610948
0.658631
0.525713
0.733733
0.671744
0.622869
0.515580
0.542998
0.583529
0.531673
0.627637
0.621676
0.497699
0.641942
0.669956
0.554919
0.675917
0.649691
0.699759
0.626445
0.496507
0.665784
0.660419
0.757575
0.610948
0.753999
0.660419
0.543594
0.730753
0.700951
0.844598
0.882745
0.598431
0.728965
0.732541
0.729561
0.725985
0.707507
0.836849
0.766516
0.793934
0.900626
0.869632
0.773668
0.787973
0.795722
0.963807
0.737906
0.952482
0.989437
0.983477
0.972748
1.073480
0.955462
0.953674
1.057982
0.911951
1.091957
1.101494
1.080632
1.266599
1.247525
1.308918
1.388788
1.278520
1.503825
1.741648
1.730919
1.874566
2.112985
2.110600
2.347827
2.325773
2.050996
2.302527
2.557635
2.650619
3.375411
17.720461
67.333579
229.836702
430.038571
819.070935
1015.805006
1015.805006
1015.805006
1015.805006
1015.805006
1015.805006
1015.805006
869.742632
537.358522
231.948495
107.945800
33.541918
##ZVALUE=400
0.551939
0.574589
0.610948
0.646710
0.605583
0.517964
0.650883
0.699759
0.551939
0.785589
0.737906
0.609756
0.579953
0.705719
0.595450
0.725985
0.658631
0.690818
0.540614
0.538826
0.548959
0.543594
0.627637
0.750422
0.518560
0.684857
0.716448
0.633597
0.662804
0.643730
0.678897
0.564456
0.590682
0.849962
0.733733
0.849962
0.730753
0.672936
0.756979
0.766516
0.691414
0.775456
0.788569
0.764728
0.741482
0.663996
0.991821
0.728965
0.852942
0.920892
0.890493
0.843406
0.816584
0.906587
0.922680
0.916719
1.013875
0.984669
1.037717
1.005530
1.112819
1.000762
1.205802
1.000762
1.114607
1.286864
1.517534
1.635551
1.586676
1.936555
2.168417
2.207756
2.178550
2.080798
1.986623
1.916885
2.038479
2.092719
2.235770
2.880692
3.027916
9.424686
34.630895
130.363703
279.504657
626.067519
969.793797
1015.805006
1015.805006
1015.805006
1015.805006
1015.805006
1015.805006
1011.942029
702.844858
352.453589
##END
