##TITLE=
##FORMAT=SPECTACLE-ASCII V-1.2
##DATA TYPE=ULTRAVIOLET SPECTRUM
##SECOND TYPE=ULTRAVIOLET SPECTRUM
##DATE=09/27/17
##TIME=11:00:24
##SPECTROMETER/DATA SYSTEM=SPECTACLE
##XUNITS=NM EM
##YUNITS=ENERGY
##YFACTOR=1
##FIRSTX=220
##LASTX=410
##NPOINTS=96
##3DDATA=Equidistant
##ZUNITS=NM EX
##FIRSTZ=210
##LASTZ=400
##ZPOINTS=39
##XYDATA=(Y..Y)
##ZVALUE=210
2.751946
3.247857
3.055930
3.326535
2.890825
3.303885
3.128648
3.198981
4.016757
3.378987
3.877878
3.601909
3.627539
3.538728
3.658533
4.206896
4.525781
4.476905
4.992485
4.589558
6.444454
5.323887
5.824566
5.931854
6.204844
5.745888
5.584955
6.244779
6.548762
6.559491
6.745458
7.021427
6.991625
7.380843
6.871819
7.351637
7.473826
8.009672
7.493496
8.166432
8.498430
8.062720
8.716583
8.609891
8.483529
8.206964
8.290410
9.580851
9.306669
9.253621
9.803772
10.339618
10.430813
10.042787
10.426641
9.942651
10.442734
10.397434
11.195540
10.656714
10.486841
11.257529
11.301637
10.452867
11.832714
12.337565
13.428926
15.034676
16.278625
19.660592
22.904873
26.065707
32.218695
33.257604
38.217902
37.922859
38.595796
39.966702
38.405657
35.850406
33.747554
31.359792
26.598573
26.072860
20.396709
19.471645
17.228723
16.052723
15.933514
13.871789
14.117956
13.301969
14.436841
14.845729
14.003515
15.348792
##ZVALUE=215
4.607439
4.858971
4.585981
3.339648
3.757477
3.666878
3.886819
4.183650
4.076958
4.237890
4.354715
4.108548
5.028844
4.705787
4.024506
4.941821
5.164742
5.064607
4.805923
5.483627
5.317926
5.308986
5.807877
5.808473
5.312562
5.472898
6.481409
6.909966
7.028580
6.637573
7.285476
6.883740
6.857514
7.231832
7.504821
7.256866
7.392764
7.938743
8.167624
8.463860
8.474588
8.571744
8.546710
8.193851
8.360744
8.684993
9.963512
9.853840
9.952784
9.804964
9.807944
9.254813
9.709597
11.313558
10.614991
11.444688
11.543632
10.427833
11.944771
10.528564
11.323690
11.471510
11.123419
11.504889
12.282729
13.111830
13.203621
13.831854
16.853809
18.449426
21.789670
23.637414
29.802918
32.481551
35.382509
36.042929
38.014650
37.431717
38.416982
33.171773
34.936666
29.691458
26.747584
24.736524
22.145510
19.193888
17.424822
16.966462
14.007688
15.510917
13.882518
14.949441
14.391541
15.665889
14.512539
15.023947
##ZVALUE=220
10.930896
12.118816
11.892915
12.031794
13.445616
11.469722
9.123683
7.763505
7.106662
6.624460
9.380579
8.991957
9.340644
7.732511
9.026527
6.744862
6.045699
6.304979
4.896522
5.991459
4.891753
5.872846
5.479455
5.838871
7.062554
6.599426
6.262660
6.844997
6.503463
7.037520
7.690787
7.967949
7.416606
7.878542
7.839799
8.236766
8.249879
8.534789
8.699894
8.186698
8.709431
9.128451
9.525418
8.840561
10.545850
9.201765
9.587407
10.187626
11.088848
11.650920
10.528564
11.153817
12.194514
11.379719
10.747910
11.116862
12.855530
12.307763
11.544824
12.186766
12.601614
12.695789
15.176535
14.463663
14.011860
14.060736
14.714599
15.142560
17.166734
21.846890
22.458434
27.852654
29.536486
35.383701
38.248897
39.425492
40.842891
38.448572
38.016438
36.598444
35.282969
31.934977
28.494000
27.040839
23.197532
19.219518
17.928481
17.759800
17.947555
17.812848
16.511679
17.059445
15.524626
17.585754
17.236471
16.705990
##ZVALUE=225
20.661950
20.891428
30.393600
38.409829
46.349764
49.078465
47.385693
39.726496
33.401847
27.280450
18.864870
17.208457
16.448498
18.314719
19.289851
20.608902
17.916560
15.126467
11.585951
9.322762
7.417798
6.580949
6.651878
6.498694
7.287860
6.837845
6.828904
8.080602
7.501841
8.001924
8.099675
8.094907
8.795857
7.957816
9.141564
8.965731
8.994937
9.912848
9.446740
10.394454
9.848475
9.201765
10.790825
10.134578
10.630488
10.197759
10.392666
12.398958
11.328459
11.993647
12.563467
12.685657
12.175441
13.744831
14.237761
14.663935
15.694499
16.563535
16.441941
17.100573
16.700625
17.463565
16.365647
17.633438
16.121864
17.779469
20.520687
20.692945
22.204518
24.700761
27.339458
29.911995
34.918785
36.313534
37.003756
40.776730
40.757656
39.066672
38.414598
35.656691
33.675432
33.316612
30.368567
28.323531
26.272535
23.076534
25.290847
24.329424
22.040606
23.165941
22.046566
22.217631
21.433830
21.894574
22.781491
21.092892
##ZVALUE=230
20.722747
22.018552
42.134523
62.797666
99.827647
125.039816
149.614811
156.273842
148.965716
127.092004
90.596676
65.845847
47.421455
36.838651
35.804510
39.916635
43.836832
39.724708
40.651560
33.685565
25.533438
20.404458
14.006495
11.193752
8.188486
9.408593
7.953644
8.165836
8.204579
8.647442
8.360744
8.014441
8.675456
9.290576
9.338856
9.076595
9.761453
9.467602
11.375546
10.062456
10.329485
11.573434
10.505915
11.664629
12.274981
13.180971
12.365580
13.572574
13.756752
14.299750
16.023517
17.017722
18.024445
17.126799
18.350482
19.509792
20.403862
22.158623
22.852421
24.917722
21.908879
24.324656
24.007559
26.725531
28.029680
26.706457
28.756857
29.239655
32.985806
35.077929
40.164590
41.410923
44.944882
45.325756
49.125552
50.054789
49.491525
50.198436
50.167441
44.906735
45.806766
44.202805
38.805604
40.822625
40.079951
38.053989
35.724640
34.177899
35.779476
34.620762
33.211708
32.514930
33.001900
32.708645
34.598708
31.492710
##ZVALUE=235
9.680986
9.119511
34.815669
91.266632
109.922886
163.796544
292.412639
301.946998
359.943509
372.525454
338.450670
217.011571
215.475559
113.998652
97.364783
68.451762
68.355799
74.381828
77.379942
77.336431
71.034431
54.892898
47.440529
30.318499
25.248528
13.839602
11.930466
10.056496
8.960962
9.282827
9.675622
10.114908
10.050535
9.562969
10.986924
10.880828
11.608601
12.855530
11.852980
10.672808
11.404753
12.105703
12.914538
12.658834
13.176799
14.893413
13.781786
15.737414
17.006993
18.948913
18.661618
21.209717
21.073818
24.058819
23.813844
27.726889
28.181672
30.710697
32.727718
34.980774
35.877824
35.968423
36.784410
37.944913
39.858818
40.069818
40.047765
42.629838
45.252442
50.102472
51.127672
54.379702
56.808591
62.819719
64.898729
67.454576
65.748692
67.939758
62.811971
63.893795
59.717894
62.396526
60.015917
56.437850
54.296851
54.309964
53.555965
55.296421
52.243471
49.887896
49.702525
50.059557
48.629642
50.992966
50.738454
47.181845
##ZVALUE=240
3.450513
3.398657
6.036758
16.469955
37.322640
85.883737
150.650740
285.400748
406.821966
546.551943
630.306602
658.933520
615.402460
529.659986
389.242768
280.192494
171.351433
121.375918
92.623830
95.366836
105.498433
112.264752
111.415982
102.966428
81.522465
66.139698
51.142573
32.434464
22.467971
17.347932
14.130473
11.162758
11.547804
11.836886
10.835528
11.093616
10.852814
11.411905
12.172461
12.889504
11.524558
11.743903
12.146831
11.805892
13.070703
14.082789
14.422536
16.480684
16.037822
20.426512
21.638870
22.380948
26.518703
28.398633
28.092861
31.840801
34.691691
36.742687
37.526488
40.289760
41.958690
44.474602
44.096708
46.614408
46.909451
48.627853
52.158833
55.046678
57.688951
58.771968
64.972639
68.321824
68.112612
73.344707
73.849559
75.512528
76.068640
78.423619
75.180531
74.224472
74.506998
71.084499
72.617531
69.367886
69.406629
72.020888
67.505836
69.047809
68.177581
65.303445
64.105988
65.202713
65.959692
65.655708
63.081980
63.643456
##ZVALUE=245
2.947450
3.430843
3.427863
3.232956
5.921721
13.242960
41.853786
91.081858
203.546882
325.237513
532.445908
683.946013
803.599954
872.203708
827.708840
714.891553
576.679707
392.081738
268.669724
152.979493
114.023685
101.360679
109.212995
125.509501
130.507946
124.403834
113.456845
95.309615
71.565509
54.644942
42.329431
25.997758
17.885566
13.663769
11.742711
11.536479
11.882782
11.090636
12.768507
11.476874
11.967421
11.611581
11.787415
11.350513
11.899471
13.899803
13.591647
15.694499
15.504956
18.569827
20.121932
23.703575
24.742484
26.342869
26.662946
31.002760
29.765964
33.686757
33.760667
37.407875
39.585829
41.405559
41.978955
44.949651
44.809580
48.219562
48.201680
49.127936
51.771998
56.824684
62.049627
61.673522
65.841675
68.821907
72.375536
73.391795
72.153807
72.378516
74.793696
73.339939
75.696707
69.253445
71.985722
71.165562
71.629882
68.465471
65.918565
68.047643
68.606734
66.186786
66.319704
66.887736
67.630410
66.481829
66.928864
67.179799
##ZVALUE=250
2.839565
2.670884
3.212690
2.901554
3.045797
3.052950
3.893971
11.272430
29.943585
67.819953
177.409649
315.091610
542.477965
722.885728
919.320583
1015.805006
1014.863849
946.790576
806.595683
567.004681
384.148955
212.261677
140.863657
102.647543
104.376674
123.421550
134.677887
139.821768
134.074688
121.283531
103.014708
76.239705
57.268739
38.763881
26.021600
16.669631
13.499856
11.990666
11.317730
10.566711
10.871887
10.263920
11.137724
12.382865
11.123419
12.021661
12.044907
13.508797
13.925433
16.356707
19.035935
19.356608
21.579862
21.748543
23.960471
25.210977
26.226640
29.086471
30.583739
32.388568
33.720732
34.076571
35.932660
38.015842
39.079785
39.682984
40.899515
42.562485
46.260953
49.094558
50.755739
53.369999
58.254600
59.072971
61.530471
65.717697
64.742565
64.470768
65.930486
67.152977
65.927505
62.332749
63.159466
63.831806
63.308477
64.470768
63.971877
65.567493
65.102577
63.776970
65.793991
63.192844
63.009858
65.853596
64.977407
64.424872
##ZVALUE=255
2.976656
2.678633
2.721548
2.621412
2.768636
3.049970
2.885461
2.910495
3.047585
5.627871
25.261641
65.210462
130.865574
292.010903
465.493798
753.797889
953.001976
1015.859842
1015.859842
1015.859842
1010.162830
826.795101
517.630577
324.018598
165.421963
113.397837
95.189810
104.616880
129.173994
141.122937
145.160556
141.555667
129.561424
104.069710
82.364678
55.963993
39.656758
24.797916
16.385913
11.941791
10.829568
11.181831
11.501908
10.458827
10.959506
11.171699
11.840463
12.881756
13.113618
14.338493
16.313791
17.542839
19.093752
19.762516
20.531416
22.009611
23.142695
25.973916
26.104450
26.107430
28.825998
29.406548
30.008554
30.161738
32.743812
34.582615
35.841465
37.987828
39.887428
39.934516
43.458939
47.927499
49.698949
51.727891
53.129792
55.373907
56.464672
55.622458
57.089925
56.989789
56.445599
57.585835
59.320927
57.993531
58.456659
58.280826
58.427453
59.355497
58.825612
59.029460
58.381557
60.935616
58.400631
58.577657
59.503913
62.252879
##ZVALUE=260
2.519488
2.362728
2.480745
2.214909
2.358556
2.745986
2.530813
2.677441
2.668500
2.821684
2.939701
4.226565
10.729432
44.928789
100.305676
240.259767
405.795574
681.726933
910.190940
1015.815735
1015.815735
1015.815735
1015.815735
997.619033
694.973469
467.316508
265.034437
158.846974
95.945597
88.665485
98.320842
130.019784
141.131878
150.584579
145.327449
129.787922
109.210610
82.921982
62.182546
39.096475
26.682615
16.968846
13.185740
11.690855
11.208653
11.365414
11.667609
12.425780
13.239980
15.107989
16.000867
17.422438
19.175410
20.165443
21.305680
21.068454
23.024678
24.178624
25.782585
26.904941
28.617978
29.502511
30.295849
30.759573
30.528903
31.699538
32.873750
35.954714
36.799908
39.004683
41.928887
42.819977
47.190785
48.171878
48.512816
50.886869
51.374435
52.171946
52.435994
54.088831
54.322481
52.863955
53.521991
54.637790
54.132938
54.907799
53.079724
54.975748
54.644942
55.496693
55.961609
57.557821
57.612658
55.766702
55.957437
57.033896
##ZVALUE=265
2.352595
2.249479
2.035499
2.323985
2.484918
2.282858
2.549887
2.535582
2.641678
2.389550
2.724528
2.727509
3.010631
3.496408
6.519556
29.479861
73.360801
187.598467
339.162946
651.924014
925.973654
1015.795469
1015.795469
1015.795469
1015.795469
1015.795469
903.934836
643.131733
358.145833
210.134983
124.793649
77.544451
82.620978
110.126734
130.008459
150.945783
156.489611
146.245956
133.108497
105.113983
85.461736
58.130622
41.567683
26.845932
17.795563
14.181733
12.735724
13.390779
15.238523
15.661716
17.243624
18.138885
20.535588
21.710992
22.398829
24.441481
24.597645
26.482940
27.384758
28.769970
29.539466
31.344891
30.371547
31.705499
32.941699
33.393502
34.068823
36.693811
38.516521
40.624738
41.345954
44.084787
44.844747
47.380924
47.816634
48.592687
48.234463
50.185919
50.456524
50.415993
51.526427
49.803853
49.701929
49.314499
50.991774
51.842928
50.598979
52.509904
50.954819
53.254962
52.675605
52.776933
54.115653
53.281784
54.339767
54.526925
##ZVALUE=270
2.359748
2.076626
2.288818
2.404451
2.277493
2.407432
2.523661
2.615452
2.505779
2.753735
2.795458
2.607703
3.153682
2.957582
3.376603
3.527403
4.040599
14.598966
42.161942
135.395527
273.720026
488.231778
876.851678
1016.026735
1016.026735
1016.026735
1016.026735
1016.026735
1016.026735
861.175656
587.812662
302.802920
165.968537
80.370903
68.599582
87.374449
109.319687
135.021806
150.616765
157.675743
155.859590
133.497715
113.603473
84.215999
63.007474
40.993690
30.071735
21.896958
18.896461
17.669797
20.602942
21.677613
22.564530
24.067760
24.621487
26.403666
28.539896
29.779673
31.129718
32.292604
33.035874
34.693480
35.175681
35.657883
35.701990
36.295652
37.221909
39.277673
40.812492
42.103529
42.685866
44.317842
45.712590
46.980977
48.124790
48.984885
49.063563
49.013495
48.777461
48.613548
48.560500
49.240589
49.267411
49.092770
49.583912
50.162673
51.204562
49.609542
50.589442
50.706863
50.930977
51.538944
51.184893
51.634908
51.864982
50.537586
##ZVALUE=275
1.921654
1.973510
1.996756
2.034903
2.051592
2.016425
2.020597
2.202988
2.191663
2.199411
2.366900
2.178550
2.330542
2.409816
2.567768
2.590418
2.878904
3.397465
3.146529
6.699562
23.233891
92.047453
198.733807
454.995036
749.238729
1015.805006
1015.805006
1015.805006
1015.805006
1015.805006
1015.805006
1015.804410
771.201849
412.929654
234.426856
102.761984
63.976645
63.857436
82.787871
109.466910
129.961967
148.664713
155.210495
150.168538
134.696960
108.868480
88.039637
65.485835
48.929453
35.044551
28.988719
26.256442
25.831461
26.929975
28.507710
29.228926
31.254888
33.870935
34.749508
36.529899
37.165880
38.371682
39.266944
38.852692
40.578842
40.555596
42.547584
42.602420
42.808652
43.941736
44.447780
46.124458
47.611594
48.201680
49.068928
49.510598
49.794912
49.708486
49.751997
49.456954
50.134659
50.440431
49.027801
48.055649
48.566461
48.202872
50.064921
48.942566
49.204826
48.345923
47.872663
47.287941
48.936605
47.185421
48.278570
48.401952
##ZVALUE=280
1.772642
1.732707
2.076626
1.972914
1.831651
1.756549
1.753569
1.972914
1.791716
2.064705
2.035499
2.217889
2.166629
2.337694
2.286434
2.621412
2.721548
2.606511
2.815723
3.016591
3.172755
3.777742
17.062426
55.280924
177.340508
330.267549
626.922846
932.445526
1015.805006
1015.805006
1015.805006
1015.805006
1015.805006
1015.805006
950.934887
541.383624
320.349932
134.814978
69.600940
48.628449
58.898926
84.708929
107.786655
132.255554
146.845579
153.494477
150.910616
133.412480
116.326809
90.058446
73.997974
54.218769
45.768619
37.326813
34.987926
33.397675
35.344958
36.370754
37.923455
40.034652
42.100549
42.760968
42.643547
43.982863
43.697953
45.773983
45.650601
47.317743
47.373772
48.505664
49.722791
49.441457
49.490929
50.982833
51.249862
52.101612
50.768852
51.006675
50.330758
49.660802
50.083995
50.491691
50.047636
49.665570
48.623681
48.573613
48.720837
49.426556
48.983693
48.003793
47.500730
47.405958
47.460794
47.225952
47.276616
46.386719
##ZVALUE=285
1.779795
1.742840
1.850724
1.910925
1.779795
1.905560
1.922846
1.776814
1.706481
1.965761
2.128482
1.889467
2.025962
2.303720
2.069473
2.177954
2.389550
2.118945
2.470613
2.575517
2.852678
2.908707
3.217459
3.858805
7.462502
39.013624
94.252825
248.327851
438.734889
812.175870
1015.805006
1015.805006
1015.805006
1015.805006
1015.805006
1015.805006
1015.805006
742.064714
460.098982
214.687586
107.465982
47.015548
41.337609
59.504509
79.757571
107.964873
130.669475
148.785710
154.837966
153.922439
144.852996
123.941898
106.392503
81.877708
67.249537
52.274466
47.666430
44.853687
44.465661
45.975447
46.782494
48.286915
48.877001
50.003529
49.929619
50.697923
52.571893
51.640868
52.475929
52.341819
53.587556
54.485798
53.825974
54.803491
55.118799
54.353476
52.833557
54.161549
53.495765
53.836703
52.096844
52.058697
51.655769
51.371455
50.115585
50.799847
50.048828
49.633980
48.652887
47.604442
47.495961
46.770573
47.094822
47.295690
45.799613
45.869946
##ZVALUE=290
1.610518
1.401901
1.496673
1.528859
1.651645
1.899600
1.704693
1.823902
1.904964
1.810789
1.747608
1.707673
2.002716
1.780987
1.713634
1.971722
2.016425
2.091527
2.278686
2.385974
2.266765
2.474785
2.581477
2.548695
2.974868
3.103614
4.381537
12.940764
61.821938
142.468810
345.748663
601.683855
942.575932
1015.721560
1015.721560
1015.721560
1015.721560
1015.721560
1015.721560
965.573788
644.732714
319.460630
161.315799
58.498979
34.655929
41.286945
55.112839
81.219673
103.441477
131.217837
150.202513
161.147714
161.175728
150.378942
136.360526
110.930800
94.284415
76.667666
66.139698
58.236718
56.248903
54.197907
54.626465
54.647923
54.594874
56.239963
56.436658
57.394505
57.192445
58.154464
58.850646
59.076548
58.810711
59.502721
58.167577
56.447983
56.952834
55.957437
55.604577
54.701567
54.387450
53.380728
52.718520
53.360462
52.286983
51.304698
50.817728
49.108863
50.581694
48.908591
48.449636
47.454834
46.869516
47.007799
46.280622
45.886636
##ZVALUE=295
1.502633
1.802444
1.730919
1.534820
1.597404
1.511574
1.610518
1.753569
1.977682
1.634955
1.769662
1.925826
1.796484
1.719594
1.987815
1.925826
2.008677
1.859665
2.184510
2.038479
2.143979
2.203584
2.191663
2.526641
2.473593
2.762675
3.107786
3.080964
3.652573
7.437468
24.507642
100.677609
221.501589
512.944460
823.621750
1015.805006
1015.805006
1015.805006
1015.805006
1015.805006
1015.805006
1015.805006
830.895901
438.706875
241.795778
88.858604
43.491721
31.567812
40.647984
62.635541
83.849430
112.650990
133.767724
155.231953
163.807869
165.703893
155.633688
138.403773
122.180581
101.606846
88.048577
72.452426
66.097975
61.948895
59.910417
60.342550
60.161948
61.141849
61.315894
60.996413
61.093569
61.690807
61.424971
60.699582
61.247945
61.606765
60.243607
60.098767
58.525801
58.746934
56.923628
56.178570
55.084825
55.011511
53.982735
53.661466
52.884817
52.337646
51.773787
49.486756
49.048662
48.999786
47.763586
47.096610
46.382546
46.044588
##ZVALUE=300
1.582503
1.687407
1.644492
1.577735
1.414418
1.447797
1.780987
1.630783
1.614690
1.634955
1.798868
1.631975
1.895428
1.713634
1.981854
1.782775
1.857877
1.823902
1.858473
1.845956
1.960993
1.994967
2.036691
2.211928
2.339482
2.383590
2.691746
2.699494
3.232956
3.325939
3.285408
3.891587
9.765625
56.399703
143.653750
365.895629
634.683967
1015.805006
1015.805006
1015.805006
1015.805006
1015.805006
1015.805006
1015.805006
1015.804410
607.154965
359.910727
155.931711
75.419545
36.712885
36.670566
50.525665
64.043999
87.943673
109.695792
137.412548
155.491829
168.936849
170.013905
160.313845
147.594810
124.639869
108.321905
88.929534
78.772902
68.616867
65.824986
63.119531
62.834620
62.675476
62.440634
62.710643
63.043833
62.015653
62.116981
61.682463
60.841441
60.843825
59.770942
59.300661
58.284998
57.964921
57.553649
56.352615
55.687428
54.206848
53.661466
53.360462
51.914454
51.528811
50.236583
50.103664
48.611760
46.868920
47.216415
46.672821
##ZVALUE=305
1.617670
1.702905
1.538992
1.521707
1.759529
1.521707
1.661777
1.728535
1.679659
1.583695
1.743436
1.803637
1.755953
1.788735
1.763701
1.851916
1.813769
1.981854
2.052784
1.953840
1.859665
2.033710
1.958609
2.082586
2.351999
2.442598
2.489686
2.402663
2.831817
2.816916
2.904534
3.177524
3.302693
3.713965
6.262660
34.765005
96.960664
280.365348
509.149432
949.952006
1015.895009
1015.895009
1015.895009
1015.895009
1015.895009
1015.895009
1015.895009
854.234099
535.941720
248.074532
125.928521
52.791834
38.986802
43.762922
52.968860
71.904659
89.560747
117.626786
136.447549
157.470703
164.852738
165.066719
157.844424
140.827894
122.888684
101.267695
88.256001
75.382590
69.252849
64.337850
61.514974
62.306523
59.922934
60.837865
60.566664
60.140491
59.910417
58.273673
58.468580
58.238506
58.559775
58.049560
56.863427
56.679845
55.908561
56.065917
55.042505
53.739548
53.212643
52.311420
52.039623
50.838590
49.931407
49.152970
49.313903
47.726631
##ZVALUE=310
1.574755
1.527667
1.425743
1.550913
1.380444
1.462698
1.569986
1.406670
1.454949
1.593828
1.549721
1.508594
1.620650
1.439452
1.724958
1.653433
1.590848
1.667738
1.747608
1.597404
1.712441
1.794696
1.884699
1.892447
1.935959
1.969934
2.193451
2.050996
2.210736
2.316833
2.457500
2.594590
2.677441
2.848506
3.036857
3.587604
4.043579
16.362667
54.203868
184.108615
366.570950
758.054852
1015.805006
1015.805006
1015.805006
1015.805006
1015.805006
1015.805006
1015.805006
1015.804410
770.941973
397.207737
216.471553
85.874796
46.984553
39.016604
43.056607
55.573583
66.717863
87.255836
104.395747
128.692985
141.055584
152.746439
154.695511
148.067474
134.800673
116.407871
101.187825
83.579421
72.802901
63.592792
59.536695
57.663918
56.829453
56.450963
56.207776
56.070685
56.015849
56.681633
56.609511
55.183768
56.749582
55.318475
55.602789
55.508614
55.445433
54.081678
53.604841
51.786900
51.919818
50.318837
49.555898
48.025846
48.772693
48.307776
##ZVALUE=315
1.423955
1.376867
1.478791
1.412630
1.390576
1.072884
1.302958
1.349449
1.518726
1.482964
1.376867
1.400709
1.408458
1.439452
1.420975
1.549721
1.581907
1.675487
1.457930
1.609921
1.752973
1.696944
1.682639
1.807809
1.665950
1.754761
1.976490
1.784563
2.168417
2.227426
2.246499
2.217889
2.314448
2.510548
2.571940
2.897978
3.014803
3.280640
3.723502
7.260442
26.368499
118.092895
262.546539
602.177978
967.469811
1015.753746
1015.753746
1015.753746
1015.753746
1015.753746
1015.753746
1015.753746
979.056954
540.173650
300.097466
116.815567
57.791471
36.435723
37.358999
42.745471
49.205422
63.123703
76.849461
97.710490
114.115477
132.649541
139.629841
144.426823
139.713883
123.519897
111.665726
92.262626
79.600811
66.392422
60.120821
55.217743
53.798556
52.935481
52.294731
53.230524
53.134561
54.112673
54.168701
53.090453
53.711534
53.865910
52.948594
53.154826
52.833557
51.198602
51.182508
50.644875
49.511790
49.078465
48.203468
48.544407
##ZVALUE=320
1.335740
1.350641
1.342893
1.337528
1.394749
1.425743
1.295805
1.257658
1.341701
1.367927
1.442432
1.583695
1.463890
1.663566
1.433492
1.415610
1.638532
1.495481
1.658797
1.564622
1.550913
1.567602
1.886487
1.725554
1.698732
1.820922
1.923442
1.793504
2.011657
1.989603
2.002716
2.095699
2.081990
2.191663
2.208948
2.602935
2.535582
2.679825
3.056526
3.190637
3.452897
4.604459
12.508631
65.267682
173.518658
466.516614
787.918568
1015.805006
1015.805006
1015.805006
1015.805006
1015.805006
1015.805006
1015.805006
1015.805006
731.902719
431.597829
188.058615
87.519884
35.543442
28.772950
29.931664
32.404661
40.774941
49.756765
67.705512
82.549453
102.219582
117.052794
130.357742
133.508444
128.295422
117.684603
100.650787
88.268518
72.197914
63.037872
54.507852
51.687956
49.466491
49.821734
49.011707
50.892830
50.284863
51.041842
51.082969
50.916672
51.289797
51.252842
50.843954
50.136447
49.839616
49.202442
49.101710
47.985911
47.756433
##ZVALUE=325
1.323819
1.238585
1.340508
1.413822
1.498461
1.457930
1.505613
1.478791
1.496673
1.305938
1.477599
1.311898
1.288652
1.467466
1.438856
1.431704
1.406670
1.373887
1.599789
1.418591
1.490712
1.467466
1.511574
1.657605
1.687407
1.589656
1.731515
1.760721
1.790524
1.818538
1.887679
1.962781
1.888871
2.129674
2.215505
2.272725
2.207756
2.547503
2.476573
2.572536
2.880692
3.104806
3.247857
3.842711
6.944537
43.721795
116.663575
319.463015
593.547821
1015.803814
1015.803814
1015.803814
1015.803814
1015.803814
1015.803814
1015.803814
1015.803814
899.511576
546.036959
245.066881
119.211674
39.905906
23.497939
21.833777
23.599863
27.555823
33.882856
45.567751
58.775544
79.890490
94.475746
111.261606
119.484663
123.917460
118.914843
105.775595
93.839765
78.284740
66.926479
57.369471
52.168965
49.198866
47.842860
48.003793
47.976971
48.403740
48.462749
47.942996
48.157573
47.670603
47.876835
47.631860
47.653913
47.180653
47.862530
46.737790
##ZVALUE=330
1.199841
1.352429
1.283884
1.347661
1.298785
1.264811
1.462698
1.347661
1.303554
1.355410
1.494884
1.344681
1.401901
1.475811
1.444817
1.421571
1.369715
1.487732
1.417994
1.503825
1.558661
1.481771
1.416802
1.661777
1.604557
1.553893
1.632571
1.635551
1.650453
1.748800
1.708865
1.781583
1.813769
1.938939
1.917481
1.885891
2.031922
2.054572
2.381802
2.321601
2.333522
2.411604
2.666712
2.894998
3.453493
3.682971
4.625916
19.117594
62.248707
215.505958
423.519015
883.429646
1015.805006
1015.805006
1015.805006
1015.805006
1015.805006
1015.805006
1015.805006
1015.805006
749.426484
347.865820
176.918507
62.481761
27.142763
18.929839
19.580722
21.747947
25.282502
33.667684
42.703748
57.961941
72.929859
92.890859
105.533004
116.091967
117.779970
112.886429
104.559660
88.228583
77.213645
65.105557
57.448745
52.427649
49.318671
47.328472
46.580434
45.850873
46.791434
46.292543
46.526790
46.371818
46.032667
46.234727
45.759678
45.883656
##ZVALUE=335
1.332760
1.316667
1.301765
1.300573
1.200438
1.278520
1.411438
1.324415
1.198649
1.240969
1.335740
1.292825
1.332760
1.255870
1.318455
1.323819
1.366735
1.405478
1.496673
1.352429
1.470447
1.519918
1.487732
1.437664
1.430511
1.536608
1.417994
1.594424
1.544952
1.583695
1.719594
1.786947
1.714826
1.679659
1.906753
1.838803
1.969934
1.816750
1.916885
2.094507
2.092719
2.168417
2.343655
2.492666
2.606511
3.130436
3.213882
3.482699
3.978610
9.326935
32.083988
134.168863
291.732550
674.100518
1015.796661
1015.796661
1015.796661
1015.796661
1015.796661
1015.796661
1015.796661
1015.796661
972.150564
516.878963
266.416669
89.624524
37.352443
19.724965
19.924641
21.439791
23.554564
27.920604
33.263564
45.655966
56.535602
75.145960
87.458491
102.151632
109.850764
111.595988
108.600855
98.537803
87.961555
76.440573
67.492723
57.506561
51.665902
48.592687
45.889616
45.485497
44.756532
44.398904
44.838786
44.301748
44.462681
44.260621
##ZVALUE=340
1.194477
1.159906
1.359582
1.222491
1.297593
1.304746
1.166463
1.127720
1.224875
1.242757
1.273751
1.330972
1.287460
1.416802
1.273751
1.392961
1.331568
1.444817
1.225471
1.422763
1.336932
1.441836
1.285672
1.598597
1.562834
1.533628
1.381636
1.369715
1.505613
1.527667
1.686811
1.644492
1.671910
1.568794
1.717806
1.611710
1.584888
1.784563
1.885891
2.029538
2.070665
1.985431
2.147555
2.267957
2.193451
2.642870
2.809763
2.735853
3.113747
3.320575
3.626943
5.354881
16.448498
84.790587
211.446881
538.964868
925.015807
1015.806794
1015.806794
1015.806794
1015.806794
1015.806794
1015.806794
1015.806794
1015.806794
648.961663
357.356668
143.016577
57.418942
22.531748
20.326972
21.882653
23.288727
25.919676
29.038787
36.093593
43.569803
57.514906
70.131421
86.977482
97.850561
106.119514
108.570457
104.684830
97.810626
85.655451
75.766444
64.081550
56.903958
49.983859
46.195984
43.732524
42.378902
42.662621
42.346716
42.248964
##ZVALUE=345
1.238585
1.318455
1.111627
1.361966
1.333952
1.243949
1.118779
1.213551
1.353621
1.247525
1.207590
1.274943
1.268983
1.364946
1.218915
1.266599
1.258850
1.134872
1.400709
1.413822
1.402497
1.356602
1.166463
1.287460
1.360774
1.534820
1.447797
1.561642
1.480579
1.425743
1.452565
1.491904
1.636744
1.590848
1.682639
1.659989
1.578927
1.825690
1.884699
1.874566
1.941919
1.740456
2.048612
1.983643
2.029538
2.128482
2.305508
2.457500
2.657771
2.826452
3.143549
3.188848
3.469586
4.169941
8.089542
50.377846
142.973661
389.886498
714.256763
1015.819907
1015.819907
1015.819907
1015.819907
1015.819907
1015.819907
1015.819907
1015.819907
908.780694
511.587858
197.256804
87.046623
32.127500
21.887422
21.639466
22.329688
23.738742
25.107861
28.769970
33.528805
43.380857
53.578615
68.438649
79.962611
91.026425
98.703504
101.477504
100.186467
91.809630
84.155798
72.639585
63.143969
53.368807
47.919750
43.150783
41.467547
40.382743
##ZVALUE=350
1.331568
1.201630
1.205802
1.249909
1.170635
1.135468
1.170635
1.279712
1.221895
1.300573
1.310706
1.249909
1.384616
1.291633
1.156926
1.268983
1.206994
1.241565
1.164675
1.429915
1.361966
1.379848
1.279712
1.453757
1.431704
1.453757
1.216531
1.405478
1.449585
1.391768
1.443624
1.484752
1.635551
1.616478
1.575947
1.670718
1.512766
1.513958
1.685619
1.611710
1.798868
1.781583
1.844764
1.919866
2.042651
2.075434
2.089739
2.176762
2.341866
2.426505
2.568960
3.083944
2.920628
3.331900
3.355742
3.880858
5.090833
26.104450
83.099604
270.973444
528.314710
1010.113955
1015.805006
1015.805006
1015.805006
1015.805006
1015.805006
1015.805006
1015.805006
1015.805006
692.975521
300.550461
132.609606
39.661527
22.925735
20.706654
21.264553
22.515655
23.260713
25.601983
27.732849
34.320951
40.616989
50.382614
59.847832
73.323846
82.671642
91.043711
93.318820
92.194676
86.291432
76.602697
68.156719
57.974458
51.104426
44.949651
##ZVALUE=355
1.358986
1.276731
1.233816
1.328588
1.274943
1.297593
1.301765
1.357794
1.348853
1.382828
1.243949
1.323819
1.319647
1.460910
1.285672
1.312494
1.212955
1.370907
1.500845
1.329780
1.538992
1.550913
1.288652
1.319647
1.555681
1.450777
1.315475
1.507998
1.476407
1.515746
1.465678
1.710653
1.645684
1.580715
1.854897
1.606941
1.647472
1.628995
1.701713
1.750588
1.636744
1.701713
1.816750
1.823902
1.970530
1.973510
2.129674
2.012849
2.267957
2.214909
2.316833
2.689958
2.687573
2.808571
3.058910
3.166795
3.336668
4.035830
4.524589
12.717843
46.283007
186.277628
389.502645
843.752027
1015.805006
1015.805006
1015.805006
1015.805006
1015.805006
1015.805006
1015.805006
1015.805006
910.048485
399.698615
190.263987
58.698654
26.576519
19.690990
19.791722
20.503998
21.709800
22.949576
24.225712
27.107596
30.633807
37.560463
44.630766
55.711865
64.680576
75.497627
82.203746
85.273981
84.980726
79.392791
72.325468
64.287782
##ZVALUE=360
1.300573
1.233816
1.227856
1.207590
1.318455
1.443624
1.258850
1.177788
1.213551
1.265407
1.097918
1.248717
1.374483
1.370907
1.342893
1.361966
1.366735
1.354814
1.330972
1.405478
1.280904
1.326799
1.438856
1.356602
1.511574
1.617670
1.491904
1.423955
1.519918
1.756549
1.602769
1.510978
1.494884
1.717806
1.613498
1.770854
1.696944
1.598597
1.678467
1.728535
1.797676
1.767874
1.939535
1.888871
1.756549
1.939535
2.050996
1.992583
2.093911
2.315640
2.374649
2.265573
2.542734
2.595782
2.681613
2.843738
2.863407
3.354549
3.402829
3.884435
4.303455
6.622672
20.963550
99.394917
243.218541
613.270998
1005.059481
1015.798450
1015.798450
1015.798450
1015.798450
1015.798450
1015.798450
1015.798450
1015.798450
571.502447
290.820599
101.741552
40.216446
19.759536
19.247532
19.582510
20.019412
20.993948
21.887422
22.454858
24.208426
27.872920
31.762719
39.316416
47.105551
57.921410
64.789653
73.802471
77.187419
77.682734
##ZVALUE=365
1.296997
1.223683
1.270771
1.227856
1.179576
1.248717
1.280904
1.262426
1.307726
1.459718
1.408458
1.302958
1.377463
1.516938
1.339912
1.351833
1.385808
1.363754
1.499653
1.551509
1.409650
1.420975
1.469851
1.495481
1.573563
1.414418
1.489520
1.538992
1.546741
1.524687
1.714826
1.663566
1.458526
1.617670
1.799464
1.805425
1.616478
1.919866
1.771450
1.840591
1.858473
1.861453
1.760721
1.723766
1.835823
2.024770
1.988411
2.015829
2.088547
2.222657
2.227426
2.245903
2.368689
2.290606
2.484918
2.660751
2.638698
2.988577
3.065467
3.341436
3.581643
4.091859
4.341602
5.037785
9.841919
55.561662
154.765844
431.163907
825.979710
1015.800834
1015.800834
1015.800834
1015.800834
1015.800834
1015.800834
1015.800834
1015.800834
850.127935
463.196635
162.908435
62.421560
20.982623
18.106699
18.082857
18.346906
18.468499
19.065738
20.223856
20.737648
21.886826
24.472475
29.167533
33.703446
42.733550
49.511790
59.049726
##ZVALUE=370
1.247525
1.079440
1.265407
1.292825
1.219511
1.127720
1.316667
1.140833
1.299977
1.245737
1.125932
1.146793
1.113415
1.205802
1.346469
1.266599
1.176596
1.206994
1.211762
1.248717
1.210570
1.353621
1.480579
1.297593
1.425743
1.360774
1.379848
1.318455
1.289845
1.440644
1.522899
1.419783
1.497865
1.440644
1.561642
1.443624
1.527667
1.485944
1.601577
1.508594
1.472831
1.515746
1.639724
1.648664
1.606941
1.681447
1.743436
1.853704
1.944900
1.750588
1.915693
2.116561
1.903772
1.908541
2.071857
2.166629
2.350807
2.469420
2.571940
2.631545
2.778769
2.980828
3.291965
3.541708
3.985763
4.593730
6.144643
28.435588
100.015402
339.549780
655.368567
1015.709639
1015.709639
1015.709639
1015.709639
1015.709639
1015.709639
1015.709639
1015.709639
996.531844
601.027608
230.204463
101.046562
32.472610
17.971992
16.136765
16.482472
16.843677
16.762614
17.171502
17.804503
18.872619
19.706488
22.179484
25.444627
30.890703
##ZVALUE=375
1.114607
1.113415
1.095533
1.042485
1.080632
1.221895
1.039505
1.174808
1.122952
1.083612
1.024604
1.056790
1.086593
1.193881
1.212955
1.093745
1.157522
1.127720
1.197457
1.123548
1.055598
1.249909
1.079440
1.323819
1.101494
1.263618
1.274943
1.049638
1.384616
1.405478
1.416802
1.257658
1.090765
1.458526
1.435876
1.288652
1.360774
1.392961
1.539588
1.359582
1.441836
1.495481
1.442432
1.508594
1.445413
1.461506
1.399517
1.557469
1.426935
1.764894
1.609921
1.654625
1.746416
1.877546
1.819730
1.960993
2.044439
2.067685
2.105832
2.165437
2.248883
2.412796
2.615452
2.891421
3.064871
3.114939
3.527999
4.100800
4.838705
14.893413
54.601431
208.874345
466.330647
999.718904
1015.672684
1015.672684
1015.672684
1015.672684
1015.672684
1015.672684
1015.672684
1015.672684
929.741859
454.206467
221.966505
65.498948
24.609566
15.341640
15.165806
15.040636
15.379786
15.775561
16.094446
16.491413
17.180443
18.134713
##ZVALUE=380
1.226664
1.145601
1.220703
1.158714
1.101494
1.102686
1.282692
1.268983
1.133680
1.068711
1.290441
1.158714
1.241565
1.199841
1.211762
1.239777
1.208782
1.283884
1.298785
1.216531
1.185536
1.225471
1.310706
1.186728
1.317859
1.309514
1.247525
1.230836
1.388788
1.285672
1.403689
1.349449
1.280904
1.323819
1.378655
1.387596
1.356602
1.410842
1.586676
1.307726
1.395941
1.434684
1.234412
1.346469
1.474619
1.649857
1.563430
1.502633
1.512766
1.746416
1.850724
1.918674
1.819730
1.814961
1.903772
1.855493
1.691580
1.910925
1.924634
1.975894
2.068877
2.178550
2.175570
2.507567
2.604723
2.717972
2.854466
3.461838
4.028678
4.416704
4.985929
8.184910
29.374957
151.577592
365.333557
890.625715
1015.805006
1015.805006
1015.805006
1015.805006
1015.805006
1015.805006
1015.805006
1015.805006
1015.805006
646.106005
332.713723
111.009479
42.005777
16.406775
14.264584
14.086962
14.388561
14.598966
14.766455
15.156865
##ZVALUE=385
1.128912
1.125932
1.127720
1.196861
1.103878
0.944734
1.008511
1.056790
1.045465
1.121759
1.050830
1.051426
1.252890
1.096725
1.069903
1.188517
1.319647
1.140833
1.171827
1.173615
1.126528
1.154542
1.176000
1.080632
1.102686
1.283884
1.264811
1.138449
1.145601
1.144409
1.218915
1.190901
1.259446
1.203418
1.336932
1.282692
1.378655
1.453757
1.345873
1.361966
1.183748
1.443624
1.442432
1.495481
1.393557
1.542568
1.488924
1.466870
1.521707
1.497865
1.574755
1.601577
1.435876
1.610518
1.775622
1.711845
1.768470
1.679659
1.716614
1.874566
1.869798
1.807809
2.020597
2.219677
2.274513
2.339482
2.610683
2.688766
3.123879
3.369451
3.664494
4.066825
4.528761
5.482435
14.553666
87.307692
234.602690
625.278950
1015.805006
1015.805006
1015.805006
1015.805006
1015.805006
1015.805006
1015.805006
1015.805006
1015.804410
883.498788
498.884916
199.807882
77.737570
20.645857
13.536811
12.898445
12.797713
13.098717
##ZVALUE=390
1.086593
1.204610
1.082420
1.105666
1.107454
1.159906
1.094937
1.220703
1.091957
1.104474
1.180768
0.963807
1.168847
1.051426
1.144409
1.181960
1.084805
1.272559
1.113415
0.952482
1.274943
1.133680
1.174808
1.042485
1.225471
1.189709
1.154542
1.147985
1.292825
1.299977
1.291633
1.176000
1.203418
1.356602
1.232624
1.359582
1.322627
1.179576
1.187921
1.194477
1.418591
1.467466
1.221895
1.395941
1.346469
1.351833
1.347661
1.506805
1.510978
1.518726
1.489520
1.452565
1.553893
1.541972
1.543760
1.538992
1.628995
1.797676
1.730919
1.783967
1.956820
1.941919
1.906753
1.872778
2.017617
2.147555
2.245903
2.593994
2.787709
3.240705
3.327727
3.618598
3.825426
4.226565
4.238486
4.951954
7.496476
47.282577
155.727863
495.555997
940.079689
1015.805006
1015.805006
1015.805006
1015.805006
1015.805006
1015.805006
1015.805006
1015.805006
1015.805006
728.725791
283.543468
120.590925
30.579567
14.462471
12.388825
##ZVALUE=395
0.977516
1.168847
1.112819
0.942945
1.133680
1.084805
1.065731
1.135468
1.122952
1.022816
1.082420
1.165867
1.217723
1.054406
1.182556
1.135468
1.243949
1.068711
1.150966
1.111627
1.110435
1.083612
1.184940
1.155734
1.122952
1.239777
1.125932
1.378655
1.177788
1.196861
1.058578
1.212955
1.240969
1.259446
1.163483
1.196861
1.284480
1.278520
1.275539
1.317859
1.337528
1.432896
1.324415
1.317859
1.314878
1.269579
1.597404
1.503825
1.444817
1.428723
1.465678
1.493692
1.554489
1.473427
1.481771
1.455545
1.626611
1.753569
1.699924
1.741648
1.777411
1.996756
1.950860
1.916885
2.165437
2.316833
2.236962
2.513528
2.765656
3.009439
3.241897
3.333688
3.312826
3.673434
3.622770
3.807545
4.072785
4.485846
5.786419
26.754737
103.460550
377.794504
727.909803
1015.805006
1015.805006
1015.805006
1015.805006
1015.805006
1015.805006
1015.805006
1015.805006
1015.805006
956.474543
422.854424
194.116831
57.649612
##ZVALUE=400
1.062751
1.096725
0.960827
1.023412
1.220703
0.964999
1.138449
1.012683
1.016855
1.120567
1.065731
1.066923
1.134872
1.277924
1.019835
1.081824
1.149774
1.148582
1.043677
1.046658
1.131892
1.114607
1.284480
1.044869
1.103878
1.064539
1.204610
1.158714
1.331568
1.202822
1.215935
1.228452
1.358986
1.187921
1.316667
1.213551
1.186728
1.255870
1.166463
1.179576
1.315475
1.347661
1.512766
1.520514
1.177788
1.509786
1.223683
1.396537
1.282692
1.362562
1.407862
1.566410
1.465678
1.446605
1.490712
1.453757
1.507998
1.622438
1.716614
1.691580
1.719594
1.650453
1.830459
1.878738
1.822710
2.006888
2.138615
2.413988
2.637506
2.713799
3.087521
3.036857
3.000498
3.184676
3.220439
3.350973
3.438592
3.717542
3.790855
4.533529
5.271435
15.136600
57.815909
223.259926
494.155884
1015.805006
1015.805006
1015.805006
1015.805006
1015.805006
1015.805006
1015.805006
1015.805006
1015.805006
1015.805006
631.664991
##END
