##TITLE=
##FORMAT=SPECTACLE-ASCII V-1.2
##DATA TYPE=ULTRAVIOLET SPECTRUM
##SECOND TYPE=ULTRAVIOLET SPECTRUM
##DATE=09/27/17
##TIME=11:56:09
##SPECTROMETER/DATA SYSTEM=SPECTACLE
##XUNITS=NM EM
##YUNITS=ENERGY
##YFACTOR=1
##FIRSTX=220
##LASTX=410
##NPOINTS=96
##3DDATA=Equidistant
##ZUNITS=NM EX
##FIRSTZ=210
##LASTZ=400
##ZPOINTS=39
##XYDATA=(Y..Y)
##ZVALUE=210
4.128814
3.899932
3.908873
4.023910
4.344583
4.978776
4.101992
4.759431
3.981590
3.520846
3.817677
3.515482
3.704429
3.406405
3.257990
3.960729
3.546476
4.452467
4.140735
4.181862
4.633665
4.416704
4.293919
4.764795
4.910827
4.955530
6.089807
6.326437
6.771684
6.319880
7.114410
7.449985
6.656647
7.738471
7.335544
7.823706
8.063912
7.593632
8.001924
8.448958
7.969737
8.968711
7.251501
8.101463
6.796718
8.203983
8.216500
7.655621
7.229447
8.146763
7.406473
7.912517
8.471608
7.488728
8.545518
7.949471
8.885860
8.666515
8.686781
8.887649
7.882714
8.670688
8.307695
7.956624
8.464456
8.794665
9.047985
9.476542
10.526776
10.800958
12.025833
13.145804
16.083717
16.878843
16.827583
18.098950
18.800497
17.190576
16.336441
16.876459
14.266968
13.739467
13.651848
11.295676
9.792447
8.956790
8.426905
7.777810
7.650852
7.337928
7.771850
6.887913
8.047819
7.021427
7.698536
7.203817
##ZVALUE=215
10.224581
10.349751
8.539557
7.987618
7.142425
6.817579
7.148981
6.548762
6.971955
8.193851
6.739497
6.320477
5.751848
5.374551
4.714727
3.855824
3.785491
4.088879
4.365444
3.804564
4.357696
4.158616
4.887581
4.966855
5.872846
5.989671
6.845593
7.247925
8.872747
8.034706
8.217692
9.160638
9.330511
10.014772
10.754466
9.535551
10.465980
9.261966
10.024905
9.602904
10.026693
9.419918
9.252429
9.694695
9.470582
10.096431
9.651780
8.804798
9.383559
8.185506
8.557439
9.021759
8.465648
9.132624
8.621812
9.587407
8.934736
8.510947
9.788871
9.794831
9.098649
9.495616
9.059906
8.608699
9.335876
9.578466
10.395646
9.313822
11.202693
11.854768
12.978911
14.000535
13.907552
16.708970
19.519925
17.913580
16.377568
16.855597
16.678572
15.831590
14.946461
12.491941
11.784434
11.177659
11.507869
9.202957
8.040667
8.549690
8.095503
7.888675
7.777810
7.506609
7.069707
7.759929
7.102489
7.271767
##ZVALUE=220
28.871894
28.967857
33.700466
33.311844
29.949546
23.951530
19.884706
15.495420
14.600754
12.864470
13.601780
15.229583
13.973713
12.345910
10.061860
8.359551
7.393956
6.078482
5.475879
4.760623
5.076528
5.462766
4.718900
5.097985
5.672574
6.938577
7.592440
8.020997
9.743571
10.896921
10.254979
12.035966
12.706518
12.028813
13.175607
12.853742
13.197660
12.484789
12.671947
12.338758
11.679530
12.055635
12.704730
12.754798
11.761785
11.314750
12.069941
11.705756
11.019707
12.420416
12.139678
11.891723
12.106895
11.387467
11.746883
12.402534
11.062622
10.865927
12.575984
12.481809
11.249781
11.934638
12.184978
12.872815
12.474656
12.703538
13.177991
13.813972
13.914704
14.540553
14.776587
17.275810
18.230677
20.158887
20.606518
19.734502
20.090938
20.519495
18.943548
17.487407
16.721487
15.706420
14.342666
15.002489
13.295412
11.132956
10.694861
11.524558
9.905696
9.039640
10.224581
10.046959
9.418726
8.607507
8.729696
8.480549
##ZVALUE=225
45.553446
49.333572
60.907602
79.428554
83.451867
84.555745
77.284575
62.083602
50.381422
37.646890
30.930638
25.429726
25.522709
27.604699
28.377771
26.832819
20.994544
16.666651
13.523698
9.585619
7.398725
5.819798
5.825758
5.535483
6.031990
7.523894
8.372664
8.234978
9.450912
11.671782
11.260509
12.845993
12.901425
13.763905
13.446808
13.110638
13.702512
13.813972
14.746785
14.972687
13.708472
13.622642
15.289783
13.706684
14.528632
14.873743
14.683604
14.615655
15.398860
16.801953
16.016960
16.761422
16.772747
15.027523
16.028881
17.525554
17.324686
17.180443
16.172528
17.713904
18.003583
18.306971
19.077659
17.705560
16.617775
19.220710
18.617511
19.480586
19.316673
20.235777
20.413995
23.997426
22.267699
24.934411
24.789572
25.273561
23.435950
22.607446
21.894574
22.053719
19.425750
19.312501
18.972754
17.210841
16.682744
16.175508
14.377832
14.276505
13.980865
13.874769
13.460517
13.005733
12.348890
13.479590
12.381673
12.599826
##ZVALUE=230
35.065413
39.088726
63.080788
105.973482
144.074559
177.632570
194.375515
193.602443
176.618695
150.737762
104.479790
76.757669
55.646896
48.579574
46.897531
53.026676
52.542686
51.027536
44.043660
35.704970
29.177666
19.058585
13.194680
8.920431
7.683635
7.436872
7.063746
8.350611
8.095503
9.418726
9.798408
10.575652
10.768771
10.682940
11.627674
12.478828
13.142824
14.508963
13.579726
15.202761
16.492605
17.479658
17.493963
18.242598
17.727613
20.206571
20.280480
20.563602
22.708774
22.489429
24.929643
23.541451
26.097894
25.691986
24.586916
26.758909
26.864409
25.833845
28.154850
25.713444
26.274920
26.846528
27.891994
26.630759
28.659701
28.719902
27.273893
28.784871
31.300783
30.367970
30.049682
33.392906
32.625794
34.343600
32.384992
33.220649
32.127500
33.994913
32.102466
30.431747
28.578639
25.590658
26.208758
26.052594
24.618506
23.928881
23.339987
22.346973
22.913814
22.200942
20.553470
20.090938
19.647479
18.930435
18.828511
17.466545
##ZVALUE=235
11.614561
13.612509
31.680465
61.576962
117.688775
169.443488
251.531601
313.311815
364.869833
364.588499
327.031016
273.237824
211.226940
139.298439
101.558566
77.746511
71.576834
75.122714
79.022646
83.234906
77.003837
66.057444
49.344897
36.639571
24.917722
18.002987
12.593865
10.192990
9.417534
8.465648
9.836555
10.020733
8.856654
10.175705
11.277795
12.614727
12.681484
13.334751
15.267730
16.202927
19.729733
20.570755
23.001432
24.925470
24.760962
29.813647
29.977560
30.265450
32.586455
32.353997
35.551786
37.546754
37.425756
39.595962
39.080977
39.776564
40.568709
42.158961
40.657520
41.983724
40.402412
42.145848
42.479634
42.894483
44.263601
43.930411
46.461821
44.207573
45.306683
47.987700
45.026541
48.836470
48.983693
47.076941
52.012801
48.568845
46.283603
47.039986
44.328570
44.794679
44.974685
41.553974
39.628744
40.282607
37.561655
34.553409
34.220815
31.359792
31.762719
32.022595
29.974580
27.709603
27.565956
26.262999
27.806759
24.502873
##ZVALUE=240
3.463626
3.392696
7.465482
16.012788
41.478872
80.089569
158.008933
242.024660
379.135013
465.045571
557.920933
575.561523
542.230606
444.921851
353.217721
229.659677
165.570974
111.235976
96.940994
101.184845
106.856823
116.744637
109.498501
100.411773
78.113675
65.286756
46.806931
32.067895
21.742582
14.497638
12.680888
11.159778
11.225939
11.284947
12.509823
14.916658
15.205741
17.035604
18.510818
20.506978
23.461580
27.263761
29.032826
34.160614
35.961866
41.830540
42.214990
44.679642
49.711466
49.343705
53.029656
54.819584
55.984855
56.038499
54.107904
55.548549
57.955980
58.515668
55.220723
58.874488
59.410930
58.291554
59.536695
56.315660
57.819486
61.205626
59.918761
60.094595
56.678653
58.966875
61.220527
62.325597
59.488416
61.139464
60.264468
59.711933
59.877634
57.109594
56.298971
53.202510
51.911473
49.633980
48.426986
47.895908
47.493577
42.922497
42.160749
39.826632
40.077567
36.224723
35.329461
35.415888
35.439730
31.925440
33.283830
33.057928
##ZVALUE=245
2.542734
2.281666
2.510548
2.497435
4.228950
11.080503
33.489466
69.970489
167.832971
258.057714
415.702462
545.263886
636.824965
702.442527
692.055821
603.756905
503.283739
343.273878
239.870548
145.891905
109.592676
100.945830
110.334754
122.432709
128.361583
119.570494
111.835599
90.634823
70.045590
52.029490
41.169524
26.793480
19.313693
16.141534
13.642907
15.946627
15.286803
17.540455
20.587444
23.791790
25.815964
30.504465
33.446550
38.375854
40.635467
43.753982
48.247576
52.962899
53.531528
57.759881
57.931542
60.738921
63.076615
63.373446
63.518882
62.551498
64.454675
63.819885
65.418482
63.246489
63.432455
60.541630
60.519576
59.256554
59.459805
59.962869
57.669878
58.233738
56.109428
56.945682
57.980418
58.186650
58.831573
57.729483
56.537986
58.229566
54.317713
54.236650
54.762959
51.356554
47.861934
46.793818
44.990778
42.104721
44.179559
42.844415
37.905574
37.860870
35.988688
34.995675
35.989881
32.542944
33.049583
31.981468
31.141639
30.337572
##ZVALUE=250
2.455711
2.379417
2.398491
2.320409
2.410412
2.486706
3.383756
7.943511
26.232600
59.496760
146.935582
247.694850
373.423696
568.708777
699.064732
814.757943
849.036574
784.718990
669.033527
476.099849
331.949592
214.881897
124.212503
99.135637
103.093982
115.287900
129.545927
136.334896
130.724907
121.515989
103.729963
80.829859
59.771538
40.360689
30.384660
20.518899
19.840598
20.143986
21.091700
24.223924
27.107596
33.025742
33.711791
40.774941
43.755770
48.414469
51.510930
54.456592
57.073832
58.806539
60.949922
65.086484
67.001581
63.226819
64.161420
65.647960
61.732531
65.058470
61.879754
63.848495
60.711503
60.536861
60.159564
58.299899
54.239631
54.401755
50.735474
51.360726
50.610900
48.671961
48.881769
48.313737
48.057437
48.630834
45.833588
46.395659
46.805739
43.707490
41.924715
41.322708
39.873719
37.505627
37.414432
37.473440
34.625530
34.919977
33.168793
32.280684
30.162930
31.325817
30.024648
28.491616
27.797818
27.222633
27.258992
27.897954
##ZVALUE=255
2.146959
2.294779
2.239943
2.000928
2.317429
2.445579
2.641678
2.509952
2.724528
4.296899
19.182563
44.148564
96.058846
213.060975
346.480012
558.165908
713.058710
890.321732
960.055590
943.149924
835.520625
668.009520
431.454778
278.504491
146.813989
104.654431
93.661547
103.101730
125.945807
140.304565
145.315528
142.111778
130.864978
109.106898
85.366964
61.561465
47.166944
33.824444
27.730465
27.864575
27.413964
32.226443
34.212470
38.989782
40.245652
45.460463
46.995878
50.044656
51.474571
55.383444
54.623485
57.294965
56.208968
58.871508
58.054924
56.116581
58.418512
54.923892
55.890679
51.109791
52.697659
51.071644
49.581528
49.162507
45.823455
46.097636
45.291781
42.322874
42.590499
41.956902
41.065812
41.148663
39.504766
39.205551
40.080547
39.354563
36.708713
36.510825
35.755634
33.373833
33.902526
31.644702
30.411482
30.095577
30.432940
28.224587
28.399825
27.771592
27.419925
26.526451
25.641918
25.104880
24.544597
24.318695
23.008585
23.582578
##ZVALUE=260
2.051592
1.982450
1.824498
1.890659
2.309680
2.209544
2.214909
2.376437
2.119541
2.537966
2.674460
3.007650
10.108948
26.129484
74.612498
149.143934
318.783522
483.747721
721.628666
901.209712
1015.805006
1015.805006
972.546935
810.688734
612.858534
370.162725
236.015916
126.235485
91.986656
87.834001
105.160475
132.015944
146.701932
153.799653
148.464441
136.278868
117.115974
85.011721
71.007609
51.563978
41.742921
36.037564
33.314824
33.650994
36.339760
38.200617
40.622950
42.009950
44.649839
46.422482
47.339797
47.381520
49.275756
47.811866
48.967600
46.597719
48.410892
47.263503
46.000481
44.695735
45.210719
42.258501
40.539503
40.089488
40.141940
37.977695
37.433505
36.493540
35.387874
35.560727
36.523938
35.194755
34.335852
35.405755
33.764839
33.034682
31.817555
31.444430
31.321645
29.329658
30.537844
28.211474
27.200580
25.910735
26.534796
25.018454
24.075508
23.247600
24.012923
22.423863
22.666454
21.797419
22.342801
21.866560
21.030903
21.044612
##ZVALUE=265
1.845956
1.894832
1.808405
1.887679
1.832843
2.035499
1.955628
1.924634
2.079606
1.983643
2.355576
2.262592
2.369881
3.053546
4.931688
20.725727
50.569773
128.950477
236.545801
460.273623
677.523613
896.559954
1015.802026
1015.802026
1015.802026
990.674496
746.498704
528.378487
299.522877
180.659890
111.084580
76.786876
85.500479
113.655925
134.899616
153.939724
161.090493
156.233907
141.418576
117.779970
95.709562
72.413683
57.831407
44.239759
40.233731
36.609769
37.164688
37.348866
38.375854
39.660931
40.752888
40.902495
40.738583
40.121675
40.560961
40.287971
41.344762
37.840605
38.300753
37.872791
35.613775
35.554767
35.417676
35.153627
33.366680
33.294559
32.616854
31.432509
32.036901
32.097697
31.156540
30.333996
31.507611
30.302405
31.086802
30.332804
29.228926
28.147697
27.693510
27.619600
25.648475
25.400519
24.645925
24.443865
24.001598
22.476912
22.636652
21.700859
21.596551
21.716952
21.047592
19.933581
20.093918
19.147992
19.511580
19.296408
##ZVALUE=270
1.808405
1.671910
1.818538
1.840591
1.642704
1.698732
1.737475
1.823902
1.860857
1.939535
2.026558
2.096891
2.219677
2.279878
2.394915
2.910495
3.113747
7.609725
33.756495
78.623891
198.511481
357.822776
662.843585
896.433592
1015.805006
1015.805006
1015.805006
1015.805006
963.757634
678.902864
460.402966
239.828825
138.770938
77.149868
69.996715
89.998841
114.723444
142.515898
156.173706
164.527893
161.962509
144.360662
127.422810
99.732876
80.407858
57.960749
48.722625
40.964484
38.071871
35.492778
35.875440
36.385655
36.361814
35.997629
35.388470
35.739541
35.824776
35.335422
35.197735
34.942627
32.696724
32.292604
32.196641
31.294823
29.506683
30.899644
31.777620
30.020475
29.097795
29.881001
30.703545
29.622912
28.736591
29.017925
29.196739
28.909445
27.584434
26.615858
26.644468
26.068687
26.136637
25.151968
24.582744
23.087859
22.478700
22.153854
21.484494
21.145940
20.633936
20.104647
20.071864
19.441843
19.296408
18.388629
18.500686
18.181801
##ZVALUE=275
1.707673
1.630783
1.565814
1.522899
1.514554
1.561642
1.706481
1.423955
1.575947
1.742840
1.645684
1.919866
1.791716
1.869798
2.187490
1.791716
2.338886
2.516508
2.857447
5.162954
17.404556
46.462417
143.754482
281.688571
554.317832
782.311559
1015.805006
1015.805006
1015.805006
1015.805006
1015.805006
881.267786
630.393028
335.896611
192.980766
88.643432
61.173439
67.102909
87.172985
117.381811
139.617920
158.481002
166.930556
161.279440
148.821473
122.366548
102.239847
78.795552
63.578486
48.100948
40.601492
36.027431
35.392642
34.108758
33.304691
33.186674
32.711625
32.422543
32.508969
32.380819
32.244921
32.086968
31.368732
31.991601
31.764507
30.696988
31.148791
30.373931
30.401945
29.931664
30.760765
29.275417
29.979944
30.313730
29.121637
28.222799
28.135777
27.349591
26.801825
26.098490
25.185943
24.007559
23.947954
23.238659
22.940636
21.865964
21.327734
20.881891
21.245480
19.697547
19.053817
18.330812
18.870831
18.459558
17.780662
17.827749
##ZVALUE=280
1.487732
1.446605
1.308918
1.564622
1.455545
1.496673
1.466870
1.592636
1.627803
1.451969
1.819730
1.524687
1.617670
1.754761
1.853704
1.774430
1.850724
2.012849
2.015829
2.402663
2.651811
3.040433
11.685491
35.816431
114.642978
219.802856
430.986881
663.218498
986.608863
1015.805006
1015.805006
1015.805006
1015.805006
991.658568
750.842094
425.863862
253.702998
114.695430
64.675808
52.266717
63.748956
91.310740
114.551783
143.019557
156.014562
164.044499
159.240961
142.038465
123.424530
97.570419
79.999566
58.742762
48.332810
37.894845
33.914447
31.729937
30.854940
30.523539
31.676888
31.750798
30.768514
31.637549
31.626821
30.410886
30.429959
30.584931
30.611753
29.921532
30.507445
29.206872
29.651523
30.088425
29.354692
30.061603
29.375553
27.745962
28.025508
26.333928
25.593638
25.239587
24.520755
24.217963
23.020506
22.317767
22.504926
21.280646
21.717548
20.768642
20.071864
19.104481
19.368529
19.144416
18.137693
18.804669
17.770529
17.840862
##ZVALUE=285
1.172423
1.305938
1.231432
1.341701
1.340508
1.546741
1.463890
1.537800
1.444817
1.740456
1.468658
1.417994
1.433492
1.598597
1.649857
1.799464
1.758933
1.660585
1.824498
1.937747
1.883507
2.095699
2.457500
2.705455
6.004572
18.939972
63.839555
134.241581
307.555795
502.131581
748.238564
1015.805006
1015.805006
1015.805006
1015.805006
1015.805006
928.515792
579.684973
363.511443
172.807574
90.368986
45.724511
43.544769
61.604977
83.200932
112.827420
132.546425
151.879787
157.361627
155.242682
145.929456
121.793747
101.632476
75.809956
60.557723
45.078993
37.383437
32.254457
29.692650
29.289722
29.303432
29.439926
29.310584
29.555559
29.556751
29.567480
29.861927
29.418468
29.674768
29.584765
29.267669
29.168725
28.902888
28.694868
28.165579
27.742982
27.433634
26.744604
26.435852
24.346709
24.362803
24.111867
22.923946
22.915602
22.105575
21.749735
20.633936
20.194650
20.304918
19.567609
18.610954
19.184947
18.463731
17.522573
16.916990
17.586946
##ZVALUE=290
1.258850
1.189709
1.204610
1.305938
1.092553
1.241565
1.255870
1.337528
1.200438
1.362562
1.242757
1.333952
1.513958
1.350641
1.351833
1.608729
1.538992
1.409650
1.853704
1.710653
1.922846
1.853704
1.949668
2.101660
2.192855
2.491474
3.079772
7.821918
34.488440
85.525513
171.220899
381.737351
614.412427
978.605747
1015.730500
1015.730500
1015.730500
1015.730500
1015.731096
747.811794
493.252873
243.890882
129.735470
51.998496
34.293532
42.137504
56.903958
78.501701
100.352764
126.605630
143.162608
151.223540
150.516629
137.829781
121.026635
93.486905
76.289773
55.402517
45.249462
34.669638
30.939579
28.965473
27.607679
27.904510
27.912855
27.776957
27.715564
27.912855
27.354956
28.073788
27.811527
27.594566
26.981831
27.852654
26.801825
26.338696
25.474429
25.367737
24.616718
24.147630
23.492575
22.505522
21.927953
22.115707
21.207929
21.595955
20.378828
19.919872
19.427538
18.681884
18.296838
18.112659
17.848611
17.186999
16.561747
16.262531
##ZVALUE=295
1.311898
1.290441
1.240969
1.291633
1.245737
1.213551
1.168847
1.294613
1.318455
1.390576
1.568794
1.391768
1.514554
1.372695
1.658797
1.373887
1.392961
1.462698
1.396537
1.521707
1.589656
1.744628
1.763701
1.720786
2.009869
2.103448
2.155900
2.373457
2.623796
3.991723
12.112856
53.596497
123.720765
302.548409
512.336493
859.701633
1015.805006
1015.805006
1015.805006
1015.805006
1015.805006
902.582407
627.656579
335.741639
180.056691
66.972971
35.087466
27.045608
35.408735
53.891540
73.159933
100.233555
119.269490
137.119889
147.335529
143.170953
133.377910
114.195943
95.335841
70.080757
57.601929
42.028427
35.284758
29.134750
27.528405
25.575757
25.207996
24.813414
25.654435
24.956465
25.830865
24.813414
25.174618
24.990439
24.170876
24.328828
24.038553
23.077726
22.208691
22.418499
21.795630
21.317601
20.936728
20.417571
20.063519
19.869804
19.552708
18.912554
18.681884
18.094778
18.209815
17.576814
17.141700
15.939474
16.620755
16.259551
##ZVALUE=300
1.065731
1.043677
1.066923
1.152754
1.362562
1.100898
1.056790
1.244545
1.123548
1.155734
1.139641
1.331568
1.207590
1.401901
1.349449
1.398921
1.455545
1.265407
1.263618
1.374483
1.458526
1.562834
1.579523
1.759529
1.729727
1.850724
1.707673
2.091527
2.212524
2.340674
2.491474
2.972484
8.479953
28.254986
96.825957
193.897486
417.742729
661.394596
996.343493
1015.805006
1015.805006
1015.805006
1015.805006
1015.805006
746.964812
481.037498
241.491795
129.542947
49.684644
26.819706
25.465488
33.776760
51.225424
67.476630
92.236996
110.844970
131.960511
137.766600
137.584805
130.887628
113.049746
93.293786
70.719719
56.293607
40.588975
32.915473
26.996732
25.205612
23.581982
23.423433
22.989511
23.000836
22.998452
23.592710
23.521781
22.745728
22.052526
21.422505
21.714568
21.385550
20.903945
20.874739
20.597577
19.926429
19.240975
19.005537
18.735528
18.341541
18.205643
17.922521
17.905831
16.978979
16.709566
16.962886
15.928745
16.109943
##ZVALUE=305
1.108646
0.983477
1.149774
1.100898
1.183748
1.066923
1.189709
0.938773
1.216531
1.219511
1.161695
1.049638
1.176000
1.200438
1.218915
1.294613
1.166463
1.288652
1.312494
1.247525
1.569986
1.451969
1.455545
1.593828
1.577735
1.648664
1.714826
1.840591
1.816750
2.025962
2.163649
2.258420
2.302527
2.656579
4.055500
19.118786
53.757429
156.920552
293.007493
565.818548
827.888846
1015.807986
1015.807986
1015.807986
1015.807986
1015.807986
935.833454
593.616962
369.094014
166.761875
83.747506
32.885671
22.268891
26.022792
33.372641
50.763488
66.889524
90.118647
108.798742
127.022862
134.165883
132.784843
124.252439
105.533600
90.000629
66.520572
52.607656
39.404631
31.032562
25.188923
23.605824
22.425652
22.012591
21.856427
21.588802
21.023750
21.384954
20.668507
20.339489
20.850897
20.710826
20.222664
19.637942
19.994974
19.834638
19.342899
18.895864
18.592477
18.404722
18.138885
17.713904
17.302632
17.034411
16.622543
16.606450
16.059875
##ZVALUE=310
1.021624
1.110435
1.083612
0.954866
0.955462
1.035929
1.034737
1.142621
0.986457
1.025796
1.143813
1.114607
1.194477
1.134872
1.101494
1.156926
1.297593
1.212955
1.239777
1.328588
1.189709
1.276731
1.203418
1.389980
1.472831
1.447797
1.589656
1.555681
1.648664
1.728535
1.696944
1.926422
1.984835
2.194643
2.216697
2.241731
2.693534
8.975863
29.357672
99.636912
200.698972
426.383615
677.907467
1011.978984
1015.805602
1015.805602
1015.805602
1015.805602
1015.805602
777.944922
517.512560
256.990790
138.079524
51.789880
25.829673
20.185709
23.856759
32.521486
43.586493
61.903000
79.488754
100.944638
114.316940
124.300718
124.872923
116.097927
103.587508
84.422827
67.206621
48.849583
38.312674
29.206872
24.487972
21.836758
20.791888
20.318627
20.216703
19.858479
19.652843
19.542575
19.936562
19.511580
20.051599
19.452572
19.631982
19.176602
18.508434
18.583536
18.310547
17.890930
18.048882
17.137527
16.923547
17.107725
16.620755
16.424656
##ZVALUE=315
1.024604
1.025796
0.971556
0.988841
1.110435
1.116991
0.997782
1.104474
1.167655
1.049638
0.956655
1.059771
0.932813
1.195669
1.129508
1.173615
1.055598
0.899434
1.019835
1.138449
1.312494
1.201630
1.127720
1.161695
1.368523
1.345873
1.393557
1.401901
1.431704
1.514554
1.648664
1.767874
1.678467
1.745820
1.779795
2.112985
2.196431
2.320409
2.620816
4.186630
14.524460
59.822798
133.044720
307.976604
521.860719
894.282460
1015.806794
1015.806794
1015.806794
1015.806794
1015.806794
922.665596
654.839873
349.111557
191.445947
72.208643
32.749772
17.587543
18.123984
22.168756
28.125644
41.200519
53.803921
72.827935
89.490414
108.166933
115.334988
116.596818
111.750960
95.629692
80.419779
62.685609
49.028993
34.630895
27.591586
22.601485
20.344853
19.069910
18.900633
18.526912
18.910766
19.043684
18.860698
18.823743
18.476844
18.709898
18.492937
18.715858
18.667579
17.868876
17.642975
17.228723
16.860962
16.722679
16.524792
16.404986
##ZVALUE=320
0.946522
1.004934
1.012683
0.846982
0.943542
1.067519
0.851750
0.883937
1.044869
1.026988
1.130700
1.028776
1.120567
1.094937
1.121759
0.932813
1.267791
1.176000
1.090765
1.003742
1.145601
1.215935
1.135468
1.117587
1.243949
1.202822
1.210570
1.335740
1.372695
1.518726
1.475811
1.371503
1.596808
1.640916
1.423955
1.500845
1.609921
1.859665
1.753569
2.224445
2.429485
2.931952
7.141829
34.380555
86.439848
224.356651
395.242572
698.684454
961.951017
1015.805006
1015.805006
1015.805006
1015.805006
1015.805006
785.546899
441.082716
251.943469
106.229782
49.146414
19.873977
14.804602
15.450716
18.319488
24.915934
33.104420
48.702955
64.132810
85.126758
97.454786
107.603669
109.553933
102.701783
92.430711
74.276924
59.210658
42.765737
33.871531
25.312901
21.281838
19.515753
17.848611
17.975569
17.971992
17.780662
17.833710
17.775893
17.896891
17.903447
17.813444
17.238855
16.879439
16.674995
16.733408
16.651750
16.895533
16.569495
##ZVALUE=325
0.992417
1.035929
0.918508
0.862479
1.021624
0.913739
0.882745
1.036525
1.007915
1.055598
1.042485
1.054406
0.982881
1.061559
1.203418
0.929832
1.100898
0.945926
1.247525
1.052618
1.142621
0.978708
1.127720
1.228452
1.277924
1.318455
1.168847
1.454949
1.397729
1.354814
1.422763
1.409650
1.253486
1.522899
1.405478
1.606941
1.708865
1.678467
1.851916
1.858473
1.726747
2.168417
2.267957
2.329946
4.147887
21.631718
56.571960
151.897669
280.475616
548.077822
797.106624
1015.862823
1015.862823
1015.862823
1015.862823
1015.862823
875.813961
537.548661
325.458646
142.063498
67.854524
22.632480
12.624860
11.343956
12.688637
15.844703
21.792650
32.102466
44.220686
63.605905
77.490807
92.469454
99.933743
102.530718
96.412897
81.548691
70.208907
54.051876
42.540431
29.764771
23.485422
19.175410
18.275976
17.172694
16.824603
16.947985
16.801953
16.969442
16.384721
16.244650
16.158819
15.856624
16.018748
16.138554
15.916824
15.934706
##ZVALUE=330
0.887513
1.009703
0.850558
0.839829
0.951886
0.846982
1.040697
1.031756
0.892878
0.657439
0.955462
0.838637
1.001954
0.994802
1.001954
0.805855
0.927448
1.146793
0.992417
1.027584
0.830889
1.072884
1.014471
0.892878
1.087785
1.117587
1.223683
1.087785
1.279712
1.069903
1.183748
1.323819
1.210570
1.303554
1.275539
1.546741
1.613498
1.273751
1.479983
1.645684
1.596808
1.768470
1.880527
1.878738
2.036691
2.249479
2.717972
10.333657
31.402707
102.371573
202.788711
421.172976
649.747849
978.294611
1015.805006
1015.805006
1015.805006
1015.805006
990.694761
666.610599
426.569581
196.044445
98.818541
35.212636
15.800595
10.638833
10.399818
11.967421
14.646649
20.659566
28.479695
43.064952
56.235790
74.312687
86.652637
94.975829
94.922781
88.475943
79.919696
63.812733
52.290559
37.920475
29.962659
23.341775
19.730926
17.757416
16.764998
16.047955
15.526414
15.810728
15.801787
15.326738
15.155673
15.567541
15.124679
15.185475
##ZVALUE=335
0.854731
0.792742
0.819564
0.873804
0.829697
0.895858
0.917912
0.818968
0.873804
0.960827
0.823736
0.862479
0.766516
0.905991
0.852942
0.849962
0.830889
0.889897
0.914931
0.972748
1.115799
1.151562
1.031756
1.157522
0.919700
1.018643
0.864863
1.268983
1.224875
1.084805
1.083612
1.099706
1.094937
1.244545
1.220703
1.310706
1.210570
1.112819
1.400709
1.421571
1.570582
1.576543
1.491904
1.696944
1.701713
1.769662
1.892447
2.065897
2.143979
4.640818
15.232563
61.049461
130.121708
298.946500
498.098731
830.962658
1015.805006
1015.805006
1015.805006
1015.805006
1015.805006
761.247873
522.855520
273.259878
145.320892
54.082870
21.928549
10.613799
9.829998
10.250807
11.339784
14.962554
19.439459
29.372573
39.546490
56.012869
68.205595
81.588626
88.174939
89.422464
85.340738
72.905421
63.238740
48.172474
38.921833
29.099584
23.126602
18.913746
17.144680
15.527606
14.952421
14.522672
14.441609
14.396906
14.416575
14.656782
##ZVALUE=340
0.758767
0.885725
0.774860
0.849962
0.774860
0.826716
0.766516
0.874996
0.894666
0.830889
0.700951
0.716448
0.863671
0.838637
0.821948
0.776649
0.901818
0.712872
0.767708
0.872612
0.901818
0.880957
0.907779
1.084805
1.019835
0.965595
1.055598
1.103878
1.056790
1.094937
1.165867
0.995994
0.918508
1.066923
1.043677
1.158714
1.191497
1.119971
1.315475
1.361966
1.376867
1.263618
1.279712
1.558661
1.321435
1.555681
1.505613
1.810789
1.752973
1.948476
2.105832
2.808571
7.495880
35.716891
88.790655
227.385759
390.429497
672.361851
913.058519
1015.805006
1015.805006
1015.805006
1015.805006
866.580606
620.590448
330.585837
182.812810
74.332952
30.642748
11.880994
10.006428
9.943843
10.170937
11.548996
13.945699
19.602776
26.543736
38.563609
50.191879
66.348910
75.653791
82.872510
82.915425
78.915954
71.955919
59.300661
48.000813
35.981536
28.633475
22.203922
17.847419
15.223622
13.918877
13.462901
13.750792
13.154745
##ZVALUE=345
0.761747
0.751615
0.680685
0.758767
0.735521
0.748634
0.866652
0.825524
0.787973
1.015663
0.756979
0.771880
0.847578
0.888705
0.874996
0.749826
0.957847
0.849962
0.770688
1.059771
0.824928
1.022816
0.839829
0.794530
0.898838
0.889897
0.848770
0.975728
1.026988
0.889897
1.130700
0.971556
0.924468
0.977516
1.142621
1.021624
1.089573
1.286864
1.202822
1.022816
1.259446
1.298785
1.252890
1.392961
1.346469
1.373887
1.549721
1.442432
1.547933
1.479983
1.683831
1.772642
1.915693
2.415776
3.716946
19.973516
55.556893
151.867867
277.739763
526.787639
749.361515
1012.655497
1015.805602
1015.805602
1015.805602
932.258964
709.002614
428.620577
245.193839
97.342730
44.201612
15.670657
9.693503
9.221435
9.304881
9.846687
10.382533
13.175607
16.806722
25.452971
34.150481
48.228502
58.505535
70.482492
74.848533
76.794624
74.320436
66.083670
57.886839
46.114922
36.549568
26.438832
21.538734
16.630888
14.586449
13.300776
##ZVALUE=350
0.801682
0.974536
0.702739
0.945926
0.815988
0.881553
0.960827
0.755787
0.812411
0.759959
0.681877
0.624657
0.849962
0.769496
0.807643
0.723600
0.885725
0.907779
0.927448
0.871420
0.833869
0.912547
0.892878
0.914931
0.879765
0.891685
0.944734
0.785589
0.941753
0.920892
0.956655
0.957847
1.044869
0.869632
0.992417
1.081824
1.100898
1.091957
1.181960
1.154542
1.140833
1.251698
1.025796
1.225471
1.253486
1.267791
1.306534
1.413822
1.415610
1.391768
1.478791
1.570582
1.602769
1.799464
1.937747
2.048612
2.549887
10.006428
32.358766
101.490617
195.235610
402.472019
605.242848
882.658958
1015.805602
1015.805602
1015.805602
997.681022
796.636939
486.084819
302.481651
138.322711
64.673424
19.389987
10.510683
8.603930
8.649826
8.261800
8.553863
9.565949
11.605620
16.475916
22.381544
31.349659
39.814711
52.081943
60.522556
68.198442
70.635676
67.983866
62.871575
52.499771
44.124722
33.454895
27.099848
19.858479
##ZVALUE=355
0.734925
0.637770
0.781417
0.792742
0.830889
0.928640
0.729561
0.740886
0.896454
0.859499
0.706911
0.771880
0.640750
0.966787
0.821948
0.872612
0.862479
0.880957
0.936985
0.750422
0.932813
0.922680
0.753999
0.874996
0.880957
0.932813
0.971556
0.920892
1.045465
1.075864
0.926852
0.940561
0.924468
0.966787
0.938773
1.003742
1.050830
0.999570
1.095533
0.918508
1.184940
1.232624
1.113415
1.108646
1.025796
1.128912
1.198649
1.208782
1.222491
1.433492
1.421571
1.473427
1.446605
1.416802
1.481771
1.591444
1.762509
1.976490
2.167821
5.021691
16.956925
65.918565
136.250854
293.293595
476.788878
771.828890
969.589949
1015.810966
1015.810966
1015.810966
870.933533
588.768721
381.214619
170.732737
81.745982
25.947690
11.846423
8.039474
7.829666
7.657409
7.987618
8.269548
8.859634
11.098981
13.591647
19.678473
25.993586
36.552548
44.657588
54.119825
60.200691
63.944459
62.723756
56.700706
50.175786
40.659904
##ZVALUE=360
0.695586
0.812411
0.738502
0.899434
0.664592
0.776649
0.761747
0.718832
0.682473
0.740886
0.863671
0.924468
0.794530
0.742674
0.650883
0.865459
0.708699
0.763535
0.853539
0.882745
0.799894
0.931621
0.737906
0.789762
0.794530
0.739694
0.735521
0.857711
1.013875
0.903606
0.975728
0.922680
0.787973
1.013875
1.002550
0.865459
0.876784
1.039505
0.874996
1.004934
1.070499
1.048446
1.123548
1.202822
1.228452
1.086593
1.085997
1.117587
1.209974
1.245737
1.215935
1.308918
1.356602
1.461506
1.430511
1.407862
1.555681
1.650453
1.665950
1.993775
2.169609
3.059506
7.937551
33.832788
82.184672
210.033655
356.205702
606.848001
827.406645
1015.805006
1015.805006
1015.805006
944.113731
658.490658
453.548431
238.398910
125.196576
42.022467
17.507672
8.218884
7.826686
7.245541
7.440448
7.322431
7.551908
7.969737
9.219646
12.162924
15.616417
22.474527
29.857755
39.817691
47.376752
54.663420
57.577491
57.507753
##ZVALUE=365
0.713468
0.682473
0.659823
0.943542
0.669956
0.731945
0.692606
0.639558
0.655651
0.708699
0.788569
0.710487
0.801682
0.940561
0.855923
0.874996
0.878572
0.911951
0.746846
0.777841
0.828505
0.811815
0.814795
0.867844
0.856519
0.677705
0.644922
0.993609
0.836849
0.960827
1.060963
0.853539
0.930429
0.879765
0.855923
0.992417
1.099706
1.058578
0.951886
0.968575
0.902414
1.014471
0.993609
1.119971
0.951886
1.012683
1.085997
1.116991
1.133680
1.304746
1.155734
1.197457
1.286864
1.194477
1.442432
1.357794
1.415610
1.598597
1.514554
1.680851
1.607537
1.912713
2.142787
2.265573
3.761649
17.043948
49.102902
141.327977
261.613727
489.910841
699.194670
952.642560
1015.805006
1015.805006
1001.818776
767.035484
555.914640
310.417414
171.236992
63.621998
25.987625
9.487867
7.519722
7.154942
7.137656
6.865859
6.807446
6.853938
7.210970
8.164644
9.937882
14.054775
18.342733
25.362968
32.732487
41.057467
##ZVALUE=370
0.762939
0.711679
0.702739
0.821948
0.814795
0.575781
0.630617
0.820756
0.695586
0.752807
0.670552
0.799894
0.780821
0.788569
0.848770
0.743866
0.874996
0.820756
0.839829
0.947714
0.784993
0.818968
0.725985
0.778437
0.978708
0.916719
0.785589
0.907779
0.919700
0.930429
0.920892
0.922680
0.766516
0.856519
0.992417
0.828505
0.840425
0.917912
0.933409
0.994802
0.950694
0.991821
0.885725
1.069903
1.054406
0.952482
1.041889
1.174808
1.110435
1.190901
1.214743
1.136661
1.180768
1.311898
1.273751
1.253486
1.266599
1.212955
1.272559
1.431704
1.558661
1.591444
1.754761
1.700521
1.890659
1.958609
2.591610
10.131598
31.399727
97.418427
191.039443
382.873416
579.641461
860.586762
1005.190015
1015.805006
1015.805006
846.880674
643.107891
372.833610
212.982893
84.812641
38.259625
12.299418
7.698536
6.557703
6.254911
6.305575
6.233454
6.307960
6.220937
7.002950
7.238984
9.141564
11.625886
16.555786
##ZVALUE=375
0.797510
0.723600
0.806451
0.690818
0.673532
0.698566
0.760555
0.683665
0.729561
0.660419
0.741482
0.796914
1.016855
0.795722
0.617504
0.627637
0.785589
0.846982
0.853539
0.758767
0.869632
0.807643
0.843406
0.877976
0.765920
0.748634
0.891685
0.819564
0.851750
0.899434
0.698566
0.845790
1.009703
1.014471
0.854731
0.985861
0.990629
0.869632
0.891685
0.892878
0.940561
0.829697
0.901818
0.896454
0.901818
0.920892
0.852942
0.875592
0.929832
0.968575
0.907779
1.001954
0.995994
0.939965
1.100898
1.122952
1.168847
1.135468
1.127720
1.243949
1.284480
1.245737
1.377463
1.334548
1.551509
1.555681
1.630783
1.943707
1.958609
5.168915
16.485453
59.564710
129.956603
297.102928
478.318930
752.516985
931.441784
1015.805006
1015.805006
931.078792
735.140443
459.131598
294.366479
144.748688
72.258711
23.458600
9.653568
6.167889
6.080866
5.804896
5.700588
5.623698
5.879998
5.718470
6.184578
6.676912
##ZVALUE=380
0.743866
0.698566
0.715852
0.773668
0.873804
0.632405
0.737906
0.682473
0.684857
0.830889
0.806451
0.825524
0.733733
0.707507
0.692606
0.828505
0.774860
0.818968
0.873804
0.602603
0.623465
0.815988
0.599623
0.645518
0.839829
0.738502
0.849962
0.881553
0.947714
0.832677
0.816584
0.918508
0.868440
0.871420
0.811815
0.719428
0.774860
0.814795
0.857711
0.948906
0.872612
0.936985
0.842810
0.943542
0.923872
0.906587
1.081824
0.917912
0.909567
0.922680
0.944734
0.862479
0.980496
0.977516
1.077652
1.066923
0.845790
1.111627
1.133680
1.053810
1.126528
1.128912
1.204610
1.333952
1.229644
1.444817
1.453757
1.544952
1.662970
1.820922
2.127886
2.676845
11.262894
34.407973
107.894540
203.386545
407.458544
609.922409
877.266526
1012.344956
1015.805006
1003.889441
814.659595
622.215867
371.024013
219.926834
90.825558
41.689873
12.481809
6.597638
5.470514
5.629659
5.229712
5.366802
5.360842
5.331635
##ZVALUE=385
0.610948
0.633597
0.636578
0.595450
0.679493
0.694990
0.765920
0.733733
0.640750
0.634789
0.726581
0.630617
0.589490
0.550747
0.565648
0.635982
0.685453
0.501871
0.628829
0.568628
0.534654
0.757575
0.794530
0.526905
0.688434
0.709891
0.755787
0.795722
0.772476
0.729561
0.799894
0.703931
0.765920
0.813603
0.764728
0.790954
0.810623
0.816584
0.782609
0.796914
0.818968
0.874996
0.821948
0.926852
0.774860
0.773668
0.770688
0.835657
0.687838
0.957847
0.969768
0.887513
0.914931
0.919700
0.921488
0.941753
0.917912
0.906587
0.797510
0.856519
0.973940
1.063943
0.846982
1.035929
0.986457
1.107454
1.097918
1.367927
1.331568
1.409650
1.582503
1.782775
2.035499
2.243519
4.803538
21.997690
58.455467
160.838962
289.524794
534.677505
740.218759
964.644551
1015.754938
1015.754938
932.690501
703.715682
506.891012
279.392600
157.431960
64.493418
26.057959
8.047819
5.286932
5.013943
4.961491
4.929900
##ZVALUE=390
0.738502
0.698566
0.669956
0.657439
0.886917
0.730753
0.587702
0.598431
0.656843
0.730753
0.763535
0.828505
0.769496
0.702739
0.715852
0.781417
0.615716
0.688434
0.633597
0.801682
0.879765
0.706911
0.706911
0.805855
0.760555
0.689626
0.748634
0.828505
0.751615
0.794530
0.835657
0.764728
0.936985
0.818968
0.899434
0.838637
0.790954
1.032948
0.889897
0.899434
1.053810
0.891685
0.769496
0.926852
0.982881
0.836849
0.963807
0.836849
0.863671
0.865459
0.886917
0.875592
0.848770
0.969768
0.878572
0.941753
1.132488
1.109838
1.059771
1.039505
0.992417
1.087785
1.109838
1.139641
1.030564
1.280904
1.134872
1.298785
1.292825
1.540780
1.518726
1.679659
1.830459
1.629591
1.905560
1.928806
2.801418
12.682676
38.253665
119.535923
229.435563
449.542999
633.033514
858.798623
997.008681
1015.836596
1002.018452
816.655755
629.385710
386.785865
225.430727
91.490746
41.447878
11.889935
5.855560
4.968643
##ZVALUE=395
0.767708
0.696778
0.627637
0.803471
0.718832
0.747442
0.806451
0.733733
0.708699
0.611544
0.501871
0.592470
0.771880
0.671744
0.775456
0.707507
0.632405
0.798702
0.680685
0.683665
0.789762
0.685453
0.870824
0.729561
0.592470
0.759959
0.733733
0.677705
0.885725
0.598431
0.706911
0.826716
0.694990
0.949502
0.925660
0.798702
0.820756
0.787973
0.869632
0.826716
0.922680
0.976920
0.712872
0.889897
0.730753
0.813603
0.876784
0.893474
0.848770
0.796914
0.915527
0.943542
1.026988
1.025796
0.778437
0.923872
0.973940
0.868440
0.911951
0.777841
0.873804
0.908971
1.038909
1.052618
1.112819
1.050830
1.049638
1.279712
1.476407
1.559854
1.329780
1.449585
1.350641
1.634955
1.519918
1.547933
1.572967
1.736879
1.902580
6.668568
23.683906
83.751678
166.058540
339.392424
511.719584
765.314698
932.903886
1015.805006
1015.805006
921.115875
734.061003
463.297963
296.608806
139.820576
66.267848
21.716952
##ZVALUE=400
0.695586
0.817776
0.692606
0.733733
0.756979
0.569820
0.636578
0.625849
0.635982
0.676513
0.679493
0.711679
0.702739
0.636578
0.627637
0.508428
0.573993
0.655651
0.685453
0.638962
0.602603
0.509620
0.750422
0.697970
0.840425
0.748634
0.845790
0.764728
0.836849
0.890493
0.849962
0.634789
0.772476
0.697970
0.893474
0.786781
0.843406
0.835657
0.839829
0.876784
0.822544
0.610948
0.762939
0.851750
0.836849
0.750422
0.825524
0.901818
0.780821
0.939965
0.931621
0.815988
0.996590
0.889897
0.906587
0.944734
0.910759
1.034737
0.974536
0.824928
0.966787
1.024604
1.068711
0.970960
1.066923
1.101494
1.034737
1.219511
1.302958
1.360774
1.367927
1.482964
1.406670
1.355410
1.419783
1.347661
1.210570
1.466870
1.532435
1.816750
2.002716
4.061460
13.350844
48.952699
107.250810
243.873000
398.429632
642.902851
820.557475
989.698768
1015.805006
945.256948
792.441964
534.897447
355.848670
179.198980
##END
