##TITLE=
##FORMAT=SPECTACLE-ASCII V-1.2
##DATA TYPE=ULTRAVIOLET SPECTRUM
##SECOND TYPE=ULTRAVIOLET SPECTRUM
##DATE=09/27/17
##TIME=12:34:31
##SPECTROMETER/DATA SYSTEM=SPECTACLE
##XUNITS=NM EM
##YUNITS=ENERGY
##YFACTOR=1
##FIRSTX=220
##LASTX=410
##NPOINTS=96
##3DDATA=Equidistant
##ZUNITS=NM EX
##FIRSTZ=210
##LASTZ=400
##ZPOINTS=39
##XYDATA=(Y..Y)
##ZVALUE=210
3.061891
3.682971
4.113913
3.607869
3.447533
3.694892
3.526807
4.530549
4.860759
5.436540
4.805923
5.303621
5.369782
6.012917
6.409883
6.158948
6.190538
6.757975
7.216930
7.443428
7.963777
8.240938
9.105802
8.974671
10.525584
10.236502
11.989474
12.507439
11.762977
12.464523
13.443828
12.736917
13.555884
13.529658
12.701750
14.291406
13.499856
13.559461
14.560819
15.620589
13.870597
15.954971
16.034842
15.628934
15.331507
17.010570
17.475486
17.034411
17.451644
16.519427
18.363595
18.690825
18.203855
19.886494
18.139482
19.265413
19.886494
18.942952
19.184947
18.189549
19.039512
19.812584
19.609928
20.337701
19.184947
19.596815
22.990704
24.685860
29.002428
34.042597
40.839911
44.722557
56.912899
61.331987
70.446730
77.034831
80.948472
84.386468
87.221861
85.184574
77.464581
75.056553
62.943697
53.553581
41.866899
35.369992
26.023984
23.414493
19.470453
17.975569
17.353892
16.727448
18.418431
17.129779
17.140508
17.609000
##ZVALUE=215
11.525750
11.229515
10.143518
8.495450
6.844997
5.589724
5.748868
5.793571
6.679893
6.977916
7.111430
6.669760
6.676912
6.055832
6.031990
7.039905
7.293820
7.675886
8.173585
8.232594
9.176731
8.644462
8.326769
10.378957
9.556413
10.024905
10.073781
11.009574
11.499524
10.957718
12.870431
12.548566
13.713837
13.789535
14.875531
15.090704
15.046000
15.321970
14.066696
15.904903
15.789866
14.966726
16.460419
15.470982
15.636683
16.482472
17.117858
17.479658
17.357469
16.077757
17.483830
16.746521
16.425848
16.548634
18.527508
18.269420
17.238855
16.726851
19.606948
17.479658
17.175674
17.448664
19.322634
17.753839
18.888712
21.156669
20.935535
22.365451
22.325516
28.421879
30.416846
37.807822
42.017698
47.683716
53.297877
54.632425
54.502487
57.524443
57.938695
54.528713
48.940778
45.021772
41.933656
34.513474
30.009747
23.132563
22.260547
19.003749
16.983747
16.420484
14.827847
15.503764
15.512705
16.068816
15.196800
15.874505
##ZVALUE=220
42.834878
42.440891
45.606494
45.318604
44.195652
35.840869
26.951432
16.431808
13.848543
11.765957
11.999607
13.530850
13.935566
11.069775
10.962486
9.743571
8.435845
8.088946
7.503629
8.280873
8.180737
7.785559
9.265542
8.641481
8.428693
9.878874
9.961724
10.414720
11.926889
11.450648
14.318824
14.176965
14.837980
15.035868
13.537407
15.097857
15.717745
15.454888
17.032623
16.065836
15.672445
16.416907
15.880466
16.992688
17.391443
16.670823
17.939806
17.939806
17.004609
17.205477
17.299652
16.880631
18.063784
18.034577
17.232895
17.739534
17.595887
17.296672
17.614961
17.656684
18.656850
17.815828
17.589927
18.196702
17.455816
20.338893
20.227432
20.040870
22.389889
25.369525
26.980639
30.790567
37.061572
41.907430
44.024587
47.400594
48.079491
45.860410
43.995976
41.301847
39.748549
32.045841
29.639602
24.494529
24.042726
21.864772
19.558668
18.445849
18.151999
16.889572
16.630888
15.758872
15.255809
14.776587
16.645789
14.979839
##ZVALUE=225
74.073672
78.298450
104.160905
136.829615
144.990683
138.641596
128.262639
97.174644
71.731806
53.655505
30.318499
25.504827
23.645759
24.570823
26.064515
25.236607
23.487806
18.517971
14.568567
11.210442
9.477735
8.157492
8.740425
8.147955
9.092689
9.768605
11.025667
11.001825
11.373758
13.268590
12.969971
14.873743
14.195442
14.980435
16.934872
15.991926
16.419888
17.505884
18.794537
19.748807
17.450452
17.641783
19.649863
20.004511
21.214485
19.568801
19.774437
19.072890
18.864870
22.028685
20.319819
20.306706
21.036863
22.020936
21.255612
22.361875
20.420551
22.557974
22.717714
21.348000
21.580458
22.011995
21.670461
21.542907
23.473501
20.289421
21.482706
24.624467
24.482608
27.996898
29.519796
33.733845
37.713647
39.446950
41.331649
41.390657
42.831898
37.818551
41.740537
34.985542
33.653975
32.937527
27.899742
25.849938
24.262667
22.447705
21.941662
22.135973
20.490885
21.276474
20.854473
18.457770
19.632578
19.442439
18.422604
17.961860
##ZVALUE=230
63.515902
67.752600
112.240911
183.292627
244.752765
292.931795
325.712562
309.176445
268.794894
219.577551
145.466924
99.009871
59.528947
48.325658
46.126842
45.911670
49.057603
48.716664
43.245554
35.521984
29.579997
19.480586
14.824867
11.147857
9.056926
8.933544
9.644628
10.682940
10.955930
11.271834
11.488795
12.508631
11.774898
13.399720
14.423728
15.978813
17.616749
16.652942
17.341971
18.386841
19.181967
20.534992
21.868944
21.748543
23.086667
22.794604
23.803711
27.453899
26.363730
25.287867
27.571917
26.189685
30.961633
29.002428
27.757883
28.468966
29.565692
29.650927
29.312968
29.282570
29.496551
28.238893
30.394793
31.558871
31.587481
31.106472
32.087564
30.330420
34.794807
35.986900
36.631823
41.526556
42.914748
43.506622
45.448542
43.721795
45.422912
41.246414
44.370890
41.753650
38.825870
37.537813
35.098791
32.069683
33.502579
33.226609
29.017925
29.207468
28.434992
26.569963
26.689768
27.226806
25.033951
24.329424
27.583838
24.485588
##ZVALUE=235
18.888712
22.472739
49.685836
115.886927
189.551711
293.627977
389.906764
490.419865
532.407761
525.798798
444.921851
362.460017
238.912702
162.996650
106.775761
80.110431
70.258975
75.529814
79.474449
81.962943
78.514814
65.235496
53.231716
35.890937
27.110577
17.870665
15.352964
10.684729
10.069609
10.692477
10.892749
12.120605
13.294816
12.146831
12.615919
15.460849
15.855432
17.223954
18.327832
19.478798
21.837950
22.368431
26.317835
28.356910
28.920770
33.255816
32.664537
35.245419
38.851500
41.276813
40.202737
40.915608
41.393638
42.606592
45.300722
45.439601
45.409799
42.644739
45.753717
46.469569
44.843554
45.082569
44.516921
47.028661
48.453808
49.346685
48.463941
47.852993
50.287843
50.560832
53.817630
56.125522
60.608983
64.726472
60.923696
61.035752
60.397983
59.226751
59.085488
57.441592
54.968596
54.241419
52.035451
48.042536
46.274662
47.343969
47.404766
42.673945
42.330623
42.153001
42.016506
39.105415
37.777424
39.143562
35.401583
37.104487
##ZVALUE=240
2.943873
3.576875
8.587837
21.094680
58.314800
118.028522
254.606009
389.897823
600.559711
745.567679
842.974782
833.110809
760.116577
583.153963
436.172485
267.549753
181.939602
120.547414
100.938678
104.219913
106.776953
116.174817
114.591718
105.740428
80.639720
67.930818
48.114657
37.164688
24.402738
17.999411
15.562773
13.519526
12.936592
14.742613
14.903545
14.636517
18.648505
19.224882
22.522807
24.364591
26.650429
30.244589
33.103824
38.388968
38.321614
44.491887
48.886538
51.364899
55.888891
60.821772
59.732795
62.388778
62.332749
66.792965
64.943433
66.912770
65.344572
65.282583
65.963864
66.287518
63.341856
64.054728
65.705776
69.073439
64.314604
64.869523
69.820881
67.961812
72.828531
71.734786
73.102713
72.925687
78.732967
76.921582
77.540874
78.986883
79.589486
77.223778
78.378916
72.967410
71.009994
67.204833
69.074631
66.047907
63.196421
59.830546
59.604645
56.203604
53.912997
55.530667
52.635670
51.015615
52.193999
48.735738
49.488544
49.300790
##ZVALUE=245
3.037453
2.691746
2.737641
3.034472
8.516908
23.810863
69.776773
146.203637
339.100957
536.382794
829.788446
1015.805006
1015.805006
1015.805006
1015.805006
920.967460
727.976561
456.082821
302.306414
166.900754
118.984580
104.579926
114.362836
126.769543
134.283900
128.384829
113.604665
100.000501
73.129535
60.266852
44.352412
28.468966
22.389889
17.675757
16.576648
16.433597
19.341707
20.713806
22.209883
27.162433
29.367805
34.567714
37.997961
43.790936
46.326518
53.544641
56.630969
61.388612
64.811707
68.760514
70.523620
74.789524
76.536536
76.029897
75.237751
76.507926
76.619983
75.679421
76.310635
77.986717
73.137879
72.849989
73.188543
72.901845
72.966814
71.223974
73.383451
70.227981
72.921515
71.290731
70.745945
76.183677
76.375604
79.188943
77.534914
75.969696
75.125694
74.253678
73.887706
70.271492
69.309473
63.760877
63.794851
62.439442
57.732463
57.441592
56.435466
55.907965
56.213737
52.551627
53.047538
51.018000
51.609874
51.628947
49.947500
48.524737
##ZVALUE=250
2.464652
2.573729
2.556443
2.824664
2.951622
2.856851
4.836917
14.555454
55.482984
114.364028
288.075805
492.853522
724.951029
1007.911563
1015.817523
1015.817523
1015.817523
1015.817523
928.295851
615.359545
404.781699
252.468586
138.290524
106.281638
109.048486
123.507977
138.561726
139.056444
137.396455
121.630430
102.602839
85.805655
65.667629
44.046640
31.760931
23.997426
21.874905
21.096468
23.543835
27.874708
29.850602
34.284592
39.070845
44.658780
49.267411
52.365661
57.092905
63.362718
66.203475
70.501566
72.643757
75.807571
74.936748
79.163909
77.471733
77.484846
77.096820
75.202584
74.037910
77.451468
75.659752
69.961548
72.180629
70.367455
68.846941
67.655444
64.305663
63.160658
62.655807
64.858794
63.452721
63.611865
62.644482
64.012408
63.599944
61.485767
60.802698
60.837865
61.835647
57.071447
57.177544
56.059957
52.722692
52.738786
52.756667
50.724745
48.063993
49.357414
46.730638
47.685504
46.129823
45.406818
44.812560
44.538975
42.912960
44.038892
##ZVALUE=255
2.367496
2.431870
2.479553
2.196431
2.729893
2.796650
2.492666
2.759695
2.928972
6.118417
29.063821
72.086453
151.018500
351.323485
557.930470
880.349874
1015.808582
1015.808582
1015.808582
1015.808582
1015.808582
878.994465
543.093681
335.676670
168.262720
116.418600
97.180605
107.616782
132.395625
143.243670
148.357749
149.407983
136.737823
110.877752
89.421868
64.666867
48.001409
34.459829
30.414462
29.033422
30.686855
33.544898
37.618876
43.030977
47.472715
50.144792
52.735806
60.123801
59.672594
63.675642
66.184998
67.680478
69.193840
70.146918
70.569515
69.942474
70.071816
66.216588
66.393614
66.741705
65.632463
62.356591
61.786771
58.519840
59.254766
58.013797
55.023432
54.721832
54.017901
52.006841
53.148866
52.845478
52.378774
54.223537
51.948428
52.307844
51.698685
50.124526
47.944784
49.434900
47.876835
47.333837
46.460629
44.064522
44.429898
43.596625
44.063926
43.022633
41.923523
42.144656
40.290952
40.140748
40.411949
39.233565
39.284825
39.056540
##ZVALUE=260
1.961589
1.942515
1.794696
1.861453
2.296567
2.460480
2.178550
2.453923
2.556443
2.430677
2.958775
3.639460
11.003613
43.330789
99.687576
246.681571
413.488746
701.323748
942.345858
1015.805006
1015.805006
1015.805006
1015.805006
997.032523
672.543645
443.089604
251.550674
151.853561
98.024607
92.673898
106.298923
133.557916
150.401592
158.509612
154.743791
140.198469
120.962858
92.085600
72.983503
54.432750
45.203567
38.735867
37.834644
38.405657
41.298866
45.867562
45.800805
50.731897
52.396655
53.992867
55.794716
56.842566
56.621432
57.907701
56.997538
55.372715
55.971742
55.079460
53.502917
54.840446
52.054524
51.118731
50.589442
47.388673
46.004653
45.047998
44.676661
45.456886
43.651462
43.116808
42.888522
45.300722
42.891502
45.142770
43.713450
43.943524
44.931769
43.118000
41.001439
42.271614
41.179657
40.082932
41.019917
40.649772
38.220882
40.008426
40.154457
37.705898
38.217902
36.937594
36.846995
36.283731
36.973953
36.519766
36.735535
35.899878
##ZVALUE=265
1.875758
1.979470
1.752973
1.879930
2.021790
2.127886
1.852512
2.351999
2.089739
2.168417
2.073646
2.366900
2.776980
2.861619
6.103516
28.448701
67.947507
172.773600
321.021676
628.387928
918.713808
1015.805006
1015.805006
1015.805006
1015.805006
1015.805006
906.241536
631.022453
336.957574
205.096602
124.117732
83.374977
91.080666
117.241740
139.744878
158.755779
164.448619
159.048438
148.417950
122.354627
103.984475
77.329874
62.669516
50.029755
46.303868
43.780804
42.935610
43.752789
44.980645
46.116710
47.712922
47.890544
48.926473
48.163533
47.015548
47.122836
46.338439
44.048429
43.388605
43.251514
41.197538
41.126609
40.977597
39.730668
38.845539
38.346648
38.192868
38.751960
38.612485
37.277937
38.269758
38.831830
38.844943
39.704442
40.565729
39.830804
39.092898
39.411783
38.923621
37.517548
37.656426
37.050843
36.590695
36.549568
34.892559
34.734607
35.448670
35.521984
34.021735
33.977628
35.412908
34.079552
33.531785
32.482743
33.382773
33.656955
##ZVALUE=270
1.703501
1.572967
1.684427
1.775622
1.602769
1.818538
1.681447
1.954436
1.810789
1.673698
2.067685
1.933575
2.205968
2.380610
2.447963
2.708435
3.496408
12.070537
35.372972
115.006566
235.006809
435.882807
801.302791
1015.805006
1015.805006
1015.805006
1015.805006
1015.805006
1015.805006
836.603642
567.382574
289.820433
163.603425
83.778501
72.686672
95.783472
118.516684
145.447850
165.214539
170.670748
171.524882
151.406527
133.439898
106.264949
86.768866
64.398646
53.415895
46.971440
42.972565
42.277575
42.715669
41.608810
41.998625
40.245652
40.900707
39.748549
39.898753
37.799478
36.742687
37.752986
35.429597
35.142899
35.176873
34.873486
34.312606
33.504963
33.351779
34.078956
34.161806
33.836961
33.673644
36.723614
35.874844
34.879446
35.499930
36.075711
35.955906
35.397410
35.624504
34.670830
33.939481
34.183860
34.086704
34.246445
32.936931
33.868551
33.507943
32.159686
32.768846
31.935573
31.777620
31.480789
31.282902
31.103492
30.621886
31.702518
##ZVALUE=275
1.448989
1.504421
1.465678
1.302958
1.564622
1.721978
1.563430
1.673698
1.876950
2.014637
1.833439
1.973510
1.850724
2.014637
2.101660
2.260804
2.424717
2.416968
2.917647
6.169677
21.963716
62.902570
187.410712
362.947583
699.146986
977.569818
1015.802622
1015.802622
1015.802622
1015.802622
1015.802622
1015.096903
750.687718
392.535925
227.570534
102.463961
68.270564
74.747801
93.108416
122.299790
146.012902
164.770484
172.965527
166.847706
153.733492
129.488707
110.538602
85.157752
68.471432
53.706765
46.716928
40.966868
38.581491
38.251877
37.417412
35.718679
35.386682
34.368634
34.589767
33.587813
34.157634
32.884479
33.378601
32.127500
32.061934
32.573938
32.523870
32.987595
32.669902
33.051968
32.713413
33.767819
33.847690
34.782887
34.938455
34.684539
34.504533
34.759641
33.416748
33.417940
34.062862
33.008456
32.866597
32.952428
31.710863
32.155514
31.967759
32.276511
31.137466
30.546784
30.150414
29.060841
29.859543
28.875470
29.876828
28.627515
##ZVALUE=280
1.220703
1.314878
1.534820
1.661777
1.479983
1.545548
1.529455
1.523495
1.521707
1.595616
1.630783
1.709461
1.803637
2.091527
1.700521
2.098680
2.072453
2.129674
2.475977
2.478957
2.624989
3.747940
12.016892
54.780841
131.108761
315.206647
525.510907
883.412957
1015.805006
1015.805006
1015.805006
1015.805006
1015.805006
1015.805006
858.084559
496.600866
294.245481
128.876567
72.725415
58.078766
70.662498
97.320676
121.850967
147.023797
161.794424
170.440674
165.692568
147.143602
129.152536
104.925632
83.620548
62.517524
51.259995
40.172935
36.486983
33.211708
31.171441
32.311678
31.775832
30.429959
31.221509
30.569434
30.901432
30.078888
30.484796
29.985905
30.198693
30.769706
31.357408
32.917857
31.529665
32.565594
31.870604
33.208728
33.536553
33.068657
33.652782
33.204556
32.366514
32.764673
31.929612
31.918883
32.135844
31.204820
31.088591
31.009912
31.547546
30.256510
30.328631
29.699802
29.670000
29.573441
28.689504
28.724670
27.839541
28.260946
##ZVALUE=285
1.285672
1.316667
1.246929
1.253486
1.472831
1.301765
1.226664
1.564622
1.450777
1.202822
1.526475
1.674891
1.615882
1.538992
1.774430
1.815557
1.802444
1.917481
2.048612
2.154708
2.147555
2.330542
2.424717
2.937913
7.111430
23.478866
83.747506
175.478458
391.387939
645.549893
935.225487
1015.752554
1015.752554
1015.752554
1015.752554
1015.752554
1015.398502
662.426949
412.665009
200.297832
105.022788
51.399469
47.332644
65.573454
87.161660
118.224621
139.206648
157.966614
162.298679
157.880783
146.941543
123.230815
103.173852
76.596737
59.864521
42.840838
35.497546
30.538440
27.903914
27.873516
27.129650
27.410984
27.360916
27.999878
28.007627
27.951598
28.626919
28.485656
29.908419
29.130578
30.387640
31.297803
30.841827
31.578541
32.271743
31.634569
32.021999
31.948686
32.056570
31.219721
30.386448
30.599833
31.528473
30.439496
30.774474
29.736757
29.732585
30.040741
29.813647
28.973818
28.937459
27.510524
28.114915
27.356744
27.572513
27.596951
##ZVALUE=290
1.307726
1.293421
1.330972
1.302958
1.358986
1.419783
1.266599
1.357794
1.378655
1.484752
1.455545
1.685619
1.273751
1.440644
1.830459
1.430511
1.542568
1.672506
1.811981
1.911521
1.935959
2.196431
2.408624
2.278686
2.750754
2.751946
3.641844
10.303855
46.284795
111.813545
233.171582
531.536937
844.128728
1015.805006
1015.805006
1015.805006
1015.805006
1015.805006
1015.805006
846.716762
556.613803
277.521610
145.558715
59.267879
37.599802
43.568611
57.903528
82.401633
101.948977
129.977465
145.017505
152.548552
151.714683
137.404799
120.604634
92.021823
72.305799
52.117705
40.451884
30.932426
27.375817
24.694800
23.889542
23.867488
24.708509
24.922490
25.948882
25.912523
26.781559
28.357506
28.013587
28.747916
29.492974
29.730797
30.043721
30.600429
30.355453
30.188560
30.775666
29.524565
30.534863
29.427409
29.996634
29.650927
29.440522
30.214787
28.914809
28.995872
28.580427
28.479695
27.577877
27.653575
26.873946
27.113557
27.326941
26.918650
##ZVALUE=295
1.214743
1.287460
1.192689
0.999570
1.258850
1.386404
1.243949
1.301765
1.395941
1.549721
1.424551
1.366735
1.477599
1.561642
1.527667
1.500845
1.581907
1.625419
1.725554
1.611710
1.547933
1.501441
1.921654
2.100468
2.433658
2.269745
2.527833
2.599955
3.398657
4.890561
24.060607
70.722699
171.752572
453.713536
768.322945
1015.805602
1015.805602
1015.805602
1015.805602
1015.805602
1015.805602
1015.805602
755.983591
398.554802
222.839713
84.664822
41.843653
28.825998
35.182834
54.052472
72.849989
98.498464
117.640495
136.637688
144.110918
139.759779
128.483772
106.379986
89.294910
65.987706
51.399469
36.758780
28.793812
24.480820
22.287965
21.437407
22.302866
23.363829
23.667812
24.980903
25.489926
25.791526
27.260780
27.390718
27.781725
27.289987
28.618574
28.500557
28.766990
28.193593
28.562546
28.375983
28.423667
28.608441
28.975606
28.852820
28.449893
28.363466
27.679801
27.081966
27.357936
27.177930
26.452541
26.740432
26.187897
25.835633
##ZVALUE=300
1.097918
1.189709
1.148582
0.963807
1.182556
1.088977
1.266599
1.212955
1.132488
1.337528
1.505613
1.316667
1.248717
1.309514
1.258850
1.481771
1.423955
1.477599
1.672506
1.504421
1.619458
1.887679
1.622438
1.907945
1.946688
2.005696
2.058744
2.193451
2.390742
2.727509
2.710819
3.404617
11.456609
37.950873
136.540532
290.697813
648.733974
986.669660
1015.805006
1015.805006
1015.805006
1015.805006
1015.805006
1015.805006
913.780928
598.442554
299.836993
160.892606
59.422851
27.545691
23.446679
31.753778
48.868656
64.697862
89.795589
108.650923
128.818750
135.859847
133.972764
125.696659
104.668736
87.855458
65.962672
50.553679
36.168694
28.724670
23.816824
22.386909
22.153854
22.416711
22.872686
23.468733
25.271773
25.763512
25.981665
26.671886
26.971698
27.206540
27.350783
28.172731
27.791858
28.242469
28.655529
27.955770
28.297901
28.517842
27.522445
27.816892
28.027892
27.832985
27.784705
27.460456
26.903749
26.352406
25.929809
26.218891
##ZVALUE=305
1.142621
1.224875
1.059771
1.187921
1.060963
1.241565
1.146793
1.232624
1.231432
1.074672
1.143813
1.149774
1.142621
1.201630
1.264811
1.235604
1.262426
1.311898
1.227856
1.412630
1.655817
1.547933
1.552701
1.644492
1.680851
1.900792
1.793504
1.823902
1.884699
2.088547
2.254844
2.555847
2.540946
3.097653
5.002618
25.820732
75.285435
233.848691
444.589853
864.118934
1015.805006
1015.805006
1015.805006
1015.805006
1015.805006
1015.805006
1015.805006
676.997900
422.675610
196.269751
96.028447
33.583641
19.112825
21.527410
29.516816
46.504736
62.589645
87.301731
103.084445
120.758414
128.331780
127.207637
118.926764
100.419521
85.843801
63.705444
50.062537
36.055446
29.558539
24.892688
24.384856
23.607612
24.538636
25.134683
26.388764
26.163459
26.437640
27.625561
27.528405
28.416514
28.345585
28.694868
29.559731
28.768778
29.473901
29.091835
29.456615
29.360652
29.602647
27.996898
28.361678
27.624965
27.396679
27.697682
26.857853
27.113557
##ZVALUE=310
0.766516
0.858903
0.806451
0.915527
0.956655
0.822544
0.855923
0.988841
0.846982
0.920892
1.017451
0.870824
1.041889
0.986457
1.091957
0.990629
1.084805
1.060963
1.032948
1.146793
1.244545
1.037717
1.168847
1.318455
1.367927
1.243949
1.531839
1.526475
1.452565
1.601577
1.685619
1.686811
1.874566
1.971722
2.194643
2.615452
2.792478
11.225939
36.502481
126.299858
262.179971
560.547709
871.604681
1015.632749
1015.632749
1015.632749
1015.632749
1015.632749
1015.632749
887.582898
589.153767
296.641588
155.361891
55.119991
24.338961
15.925765
18.875599
27.623773
39.264560
58.089495
74.835420
97.046494
111.216903
121.835470
123.097897
115.046501
102.147460
83.507895
68.693757
49.661994
40.617585
32.246709
28.659701
26.732683
25.774837
26.316643
26.829839
27.373433
27.568936
28.369427
29.296875
29.435754
29.430985
30.090809
29.994845
30.092001
30.261874
30.047894
30.336976
29.412508
29.592514
29.088855
28.786659
28.417706
27.618408
27.776957
##ZVALUE=315
1.007915
0.921488
1.006722
0.941753
0.966787
1.028776
0.887513
1.038909
1.139641
1.207590
1.133680
1.310706
1.076460
1.096725
1.088977
1.204610
1.416802
1.240969
1.263618
1.242757
1.275539
1.390576
1.360774
1.432896
1.256466
1.424551
1.361966
1.582503
1.558661
1.666546
1.520514
1.681447
1.873970
2.092719
2.054572
2.271533
2.349615
2.824664
2.792478
6.078482
20.414591
81.628561
181.663632
435.090661
721.108913
1015.805006
1015.805006
1015.805006
1015.805006
1015.805006
1015.805006
1015.805006
762.457848
402.769446
217.635632
80.639720
34.231544
15.635490
15.342832
19.421577
25.714636
39.473772
53.543448
73.104501
89.051723
107.701421
116.397738
118.650794
112.906694
99.320412
84.569454
65.942407
53.741932
41.530728
35.414696
30.477643
28.623939
28.324723
27.851462
29.281974
28.460622
29.753447
29.970407
30.117631
30.424595
31.439662
31.213760
31.028986
30.903816
30.146837
30.476451
30.062795
29.550791
29.549599
28.896928
28.475523
##ZVALUE=320
0.994802
0.911951
0.992417
0.752807
0.828505
1.064539
1.049638
1.018643
1.210570
0.867844
1.130700
1.094937
0.973940
1.151562
1.060963
1.158714
1.174808
1.088977
1.080632
1.022816
1.163483
1.220703
1.012683
1.358986
1.297593
1.382828
1.276731
1.493692
1.531839
1.528859
1.668930
1.681447
1.558661
1.789927
1.816750
1.861453
2.038479
2.202988
2.260804
2.751946
2.658963
3.711581
9.394884
47.860742
123.943686
335.752964
573.686957
970.295668
1015.813947
1015.813947
1015.813947
1015.813947
1015.813947
1015.813947
952.398777
526.324511
301.448703
127.371550
57.113767
20.005703
13.991594
14.968514
18.082857
24.969578
34.192801
50.845742
66.995621
86.214542
101.282597
113.254786
115.654469
109.677911
99.676847
82.038641
69.074631
52.346587
43.815970
36.315918
32.065511
30.531883
29.912591
30.322671
30.503869
30.810833
31.156540
30.946732
30.972958
31.075478
31.253695
30.887723
30.573606
30.668974
30.519962
29.826760
29.737949
29.332638
##ZVALUE=325
0.977516
1.230836
0.876784
0.942945
0.873804
0.919700
0.966787
0.937581
1.062751
0.864863
1.054406
1.058578
1.255870
1.274943
1.070499
0.842810
1.120567
1.142621
1.025796
1.102686
1.178980
1.233816
1.078844
1.177788
1.222491
1.377463
1.200438
1.181960
1.348853
1.391768
1.412630
1.373887
1.531839
1.494884
1.657605
1.732707
1.712441
1.924634
2.080798
2.144575
2.232790
2.472997
2.594590
3.124475
5.496740
31.346679
85.613728
236.196518
437.858701
857.395530
1015.805006
1015.805006
1015.805006
1015.805006
1015.805006
1015.805006
1011.461020
649.430752
387.095809
170.835853
81.318617
27.153492
15.052557
14.596581
15.361905
19.611716
25.168657
36.906600
49.864650
69.138408
84.225535
100.822449
108.661652
111.495852
105.838776
92.512965
80.486536
64.877868
54.014921
42.640567
37.162900
32.532811
31.312704
30.999780
31.112432
31.223893
31.017661
30.472875
30.725598
30.374527
30.676723
30.559897
30.166507
29.500723
29.911995
29.530525
##ZVALUE=330
0.962615
0.902414
0.927448
0.846982
0.905991
0.996590
0.943542
0.955462
0.826716
0.962615
0.745654
0.876784
0.913739
0.958443
0.820756
1.024604
0.825524
1.028776
1.080632
1.085997
1.082420
1.018643
1.251698
1.100898
1.256466
1.061559
1.157522
1.370907
1.206994
1.355410
1.198649
1.362562
1.398921
1.276731
1.505613
1.660585
1.587868
1.548529
1.778603
1.950860
1.934767
1.996756
2.109408
2.216697
2.575517
2.855659
3.701448
13.988614
44.629574
151.192546
303.549767
637.168884
963.625908
1015.805006
1015.805006
1015.805006
1015.805006
1015.805006
1015.805006
836.598873
531.490445
242.444873
123.636723
45.044422
20.077825
14.197826
14.760494
16.483665
19.443631
27.561784
35.608411
50.837994
64.764619
83.983541
96.475482
105.158687
107.511878
101.626515
92.818737
75.929761
64.475536
50.733685
42.943954
36.303997
33.590794
31.329989
30.737519
30.129552
30.147433
30.213594
29.678941
29.872656
29.975772
29.252768
29.635429
29.698610
##ZVALUE=335
0.855923
0.717640
0.835657
0.896454
0.880957
0.834465
0.784993
0.742674
0.994802
0.943542
0.844598
0.771880
0.724792
1.015663
1.016855
0.945926
0.865459
0.890493
0.995994
0.976920
1.024604
1.199841
0.976920
1.048446
1.187921
1.140833
1.218915
1.176000
1.272559
1.037717
1.157522
1.301765
1.332760
1.273751
1.401901
1.362562
1.331568
1.507998
1.469851
1.510978
1.625419
1.702905
1.902580
1.767874
1.985431
2.179742
2.270937
2.490878
2.981424
6.567836
22.034645
89.079738
192.883015
453.436971
748.652816
1015.805006
1015.805006
1015.805006
1015.805006
1015.805006
1015.805006
942.143798
645.203590
336.990952
176.693797
62.786937
27.733445
15.713573
14.617443
15.490651
17.472506
20.934939
26.208758
37.393570
48.379898
66.000819
77.987909
92.549920
98.259449
100.510716
95.937848
85.464716
74.832439
61.797500
52.411556
42.652488
36.641955
32.792687
30.701756
29.783845
29.450655
28.762817
28.291941
28.161407
28.267503
28.274655
##ZVALUE=340
0.850558
0.784993
0.702739
0.852942
0.840425
0.831485
0.948906
0.842810
0.823736
0.952482
0.779629
0.698566
0.761747
0.887513
0.908971
0.908971
0.964999
0.804663
0.968575
0.962615
0.995994
0.916719
0.963807
0.917912
0.907779
0.881553
1.002550
1.051426
1.113415
1.048446
1.295805
1.303554
1.050830
1.346469
1.294613
1.276731
1.443624
1.353621
1.329780
1.208782
1.380444
1.636744
1.628995
1.522899
1.635551
1.747608
1.887679
2.074838
2.233982
2.183914
2.574921
3.594756
11.070967
53.922534
134.592652
344.877839
596.002936
985.629559
1015.803814
1015.803814
1015.803814
1015.803814
1015.803814
1015.803814
798.640847
417.752862
228.390694
94.293952
40.394664
16.836524
14.899969
15.482903
15.949607
18.577576
21.213889
27.854443
35.104752
48.089623
59.838891
76.646805
86.535811
94.756484
95.582604
90.565681
83.582997
71.431994
61.560869
49.133897
41.994452
35.169721
31.022429
28.201938
27.332902
27.119517
26.913881
26.517510
##ZVALUE=345
0.785589
0.837445
0.838637
0.854731
0.801682
0.892878
0.957847
0.875592
0.829697
0.795722
1.051426
0.846982
0.889897
0.908971
0.884533
0.795722
0.826716
0.920892
0.928640
0.973940
0.916719
0.901818
0.920892
0.944734
0.937581
1.024604
1.045465
0.911951
1.006722
1.065731
1.077652
1.027584
1.014471
1.203418
1.079440
1.102686
1.218915
1.262426
1.278520
1.363754
1.320839
1.411438
1.459718
1.436472
1.495481
1.522899
1.446605
1.643896
1.733899
1.865625
2.005696
2.246499
2.334714
2.736449
5.255938
31.687617
90.096593
243.546963
436.366796
803.930759
1015.805006
1015.805006
1015.805006
1015.805006
1015.805006
1015.805006
949.662924
576.621890
331.438780
131.877661
60.381889
22.180676
15.798807
14.823675
15.459657
16.415715
17.278790
20.622611
24.711490
34.549832
43.855906
59.037805
69.095492
80.423951
85.808635
89.657903
86.846948
79.387426
69.770813
58.409572
49.400926
38.832426
33.651590
28.863549
26.916862
25.895834
##ZVALUE=350
0.707507
0.815988
0.886917
0.753999
0.853539
0.827909
0.736713
0.982881
0.767708
0.769496
0.800490
0.826716
0.792742
0.884533
0.955462
0.805855
0.836849
0.809431
1.043677
0.840425
0.701547
0.947714
0.706911
0.817776
1.021624
1.028776
0.922680
0.975728
1.026988
0.893474
1.041889
1.110435
1.075864
1.069903
1.077652
1.063943
1.130700
1.228452
0.989437
1.212955
1.168847
1.146793
1.263618
1.431704
1.302958
1.441836
1.503825
1.413822
1.554489
1.588464
1.778603
1.946688
1.998544
2.080798
2.281666
2.377629
3.657937
11.911392
56.935549
136.619806
340.861082
594.014525
985.190868
1015.805006
1015.805006
1015.805006
1015.805006
1015.805006
983.576775
687.879920
354.450941
196.656585
77.646971
32.280684
14.985800
13.985634
13.959408
14.011860
15.703440
16.301870
19.698739
23.874640
31.686425
39.204955
51.849484
61.426759
72.857738
78.458786
81.520677
79.579949
72.353482
64.972639
53.089857
45.117736
37.165880
32.368898
##ZVALUE=355
0.834465
0.695586
0.810623
0.800490
0.840425
0.754595
0.930429
0.637770
0.646710
0.832677
0.782609
0.766516
0.858903
0.884533
0.985861
0.917912
0.909567
0.738502
0.831485
0.805855
0.918508
0.993609
0.833869
0.729561
0.952482
1.072884
0.944734
0.968575
0.863671
1.043677
1.000762
1.025796
1.033545
0.977516
0.986457
1.070499
1.212955
1.148582
1.128912
1.222491
1.212955
1.043677
1.346469
1.302958
1.364946
1.274943
1.492500
1.341701
1.388788
1.393557
1.513958
1.670718
1.720786
1.825690
1.900792
2.073646
2.481937
2.382994
2.798438
6.400943
34.485459
94.474554
265.513659
479.843616
900.040865
1015.805006
1015.805006
1015.805006
1015.805006
1015.805006
1015.805006
811.119676
463.733673
257.400870
100.150704
44.790506
16.707778
12.904406
12.665987
13.559461
13.932586
14.568567
15.918612
17.627478
22.264719
26.677847
35.919547
43.783784
55.787563
63.761473
71.026683
73.370934
71.925521
68.043470
59.649944
52.436590
##ZVALUE=360
0.856519
0.834465
0.686646
0.793934
0.891685
0.722408
0.720620
0.703931
0.802875
0.956655
0.810623
0.700951
0.776649
0.910759
0.627637
0.717640
0.809431
0.904799
0.922680
0.883937
1.035929
0.932813
1.056790
0.962615
1.044869
0.990629
0.932813
0.951886
0.970960
0.902414
1.113415
1.003742
0.998974
1.136661
1.139641
0.909567
1.005530
1.105666
1.066923
1.106858
1.135468
1.109838
1.378655
1.258850
1.281500
1.299977
1.410842
1.466870
1.231432
1.356602
1.408458
1.565814
1.659989
1.686811
1.611710
1.925826
1.766682
1.988411
2.403855
2.404451
2.461672
3.467798
14.160872
47.791600
156.936646
306.740999
608.678460
914.011002
1015.805006
1015.805006
1015.805006
1015.805006
1015.805006
989.921093
608.795881
371.447802
160.464644
71.265697
22.753477
13.183951
12.320876
12.301803
12.622476
13.008714
13.674498
14.303923
16.484857
18.993616
24.025440
29.990673
38.882494
46.630502
56.581497
62.802434
67.301989
67.504644
##ZVALUE=365
0.854731
0.698566
0.867844
0.756979
0.813603
0.793934
0.854731
0.697970
0.703931
0.786781
0.788569
0.661612
0.737906
0.655651
0.758767
0.793934
0.762939
0.719428
0.901818
0.801682
0.901818
0.730753
1.058578
0.948906
0.842810
0.794530
0.925660
0.992417
1.028776
0.972748
0.843406
1.041889
0.910759
1.176000
0.961423
1.172423
1.073480
1.106858
0.970960
1.135468
1.129508
1.207590
1.188517
1.233816
1.237988
1.229644
1.334548
1.242757
1.259446
1.265407
1.456738
1.483560
1.353621
1.645684
1.521707
1.760721
1.750588
1.764894
2.025962
2.051592
1.948476
2.246499
2.537966
3.081560
5.383492
28.278828
81.825852
234.963894
438.920856
802.222490
1015.802622
1015.802622
1015.802622
1015.802622
1015.802622
1004.855633
755.453706
420.907736
236.017704
90.425611
37.853718
14.091730
11.755824
11.947751
11.550784
12.089610
12.244582
12.650490
13.145804
14.370680
16.475916
20.760894
24.916530
33.026934
40.290952
49.123764
##ZVALUE=370
0.690818
0.869632
0.844598
0.876784
0.892878
0.878572
0.666976
0.816584
0.946522
0.692606
0.646710
0.797510
0.782609
0.679493
0.803471
0.820756
0.743866
0.922680
0.759959
0.886917
0.884533
0.812411
0.862479
0.931621
0.892878
0.871420
0.852942
0.837445
0.910759
0.923872
0.899434
0.910759
0.924468
1.045465
1.004934
0.969768
1.136661
1.172423
0.939965
1.006722
1.040697
1.118779
0.930429
0.960827
1.026988
1.204610
1.328588
1.183748
1.032948
1.308918
1.286864
1.439452
1.362562
1.461506
1.372695
1.421571
1.723766
1.637936
1.606941
1.586676
1.702905
1.907945
2.004504
2.234578
2.223849
2.696514
3.483891
14.689565
49.518943
165.421963
317.841768
628.834963
940.292478
1015.805602
1015.805602
1015.805602
1015.805602
1015.805602
894.754529
514.229536
292.678475
119.185448
55.709481
19.853711
11.605620
10.308623
10.725856
10.767579
10.900497
11.096597
11.321902
12.205839
12.519956
15.303493
17.925501
23.095608
##ZVALUE=375
0.701547
0.763535
0.655651
0.671744
0.780821
0.732541
0.917912
0.801682
0.618696
0.750422
0.733733
0.706911
0.793934
0.692606
0.824928
0.846982
0.751615
0.973940
0.807643
0.791550
0.825524
0.874996
0.947714
0.915527
0.754595
0.860691
0.923872
0.836849
0.889897
0.861883
0.747442
0.891685
0.955462
0.810623
0.844598
0.892878
0.905991
0.907779
1.030564
0.895858
0.950694
1.098514
1.061559
0.950694
1.141429
1.002550
1.110435
1.168847
1.161695
1.115799
1.199841
1.373887
1.064539
1.201630
1.267791
1.184940
1.387596
1.300573
1.414418
1.491904
1.389980
1.459718
1.523495
1.694560
1.661777
2.113581
2.134442
2.468824
2.994537
7.706881
27.574897
104.496479
222.574472
498.603582
787.926912
1015.800834
1015.800834
1015.800834
1015.800834
1015.800834
1005.123854
653.765798
408.190489
189.867616
94.803572
31.490922
13.748407
9.672642
9.729862
9.576678
9.988546
10.116696
10.098815
10.955930
10.867715
11.885762
##ZVALUE=380
0.636578
0.628829
0.699759
0.648499
0.730753
0.734925
0.736713
0.852942
0.721812
0.696778
0.787973
0.751615
0.683665
0.632405
0.485778
0.684857
0.707507
0.842810
0.731945
0.853539
0.880957
0.717640
0.645518
0.776649
0.824928
0.857711
0.887513
0.750422
0.849962
0.958443
0.793934
0.843406
0.925660
0.838637
0.988841
0.881553
0.824928
0.712872
0.918508
0.965595
0.919700
0.891685
0.877976
0.887513
0.969768
0.928640
1.042485
0.859499
1.117587
0.944734
0.992417
1.205802
1.177788
1.170635
1.030564
1.082420
1.088977
1.202822
1.267791
1.108646
1.293421
1.427531
1.435876
1.424551
1.476407
1.601577
1.918674
1.970530
2.100468
2.504587
2.876520
4.689693
16.336441
76.428652
171.352029
388.441682
647.276640
1015.805602
1015.805602
1015.805602
1015.805602
1015.805602
1015.805602
837.671757
564.465523
281.072855
145.847797
51.325560
21.315813
9.912848
8.858442
9.051561
9.225607
9.031892
9.581447
9.651780
##ZVALUE=385
0.648499
0.704527
0.742674
0.782609
0.757575
0.658631
0.716448
0.774860
0.722408
0.663996
0.745654
0.805855
0.743866
0.651479
0.730753
0.736713
0.667572
0.901818
0.703931
0.647902
0.760555
0.806451
0.905991
0.737906
0.789762
0.614524
0.864863
0.929832
1.011491
0.681877
0.742674
0.854731
0.723600
0.872612
0.846982
0.758767
0.808835
0.810623
0.920892
0.847578
0.768900
0.935793
0.907779
0.954866
0.971556
1.089573
0.892878
0.849962
0.949502
1.094937
0.973940
0.838637
1.004934
1.047850
1.065731
1.091957
1.122952
0.970960
1.145601
1.211762
1.281500
1.407862
1.416802
1.530647
1.554489
1.386404
1.519918
1.649857
1.900792
1.914501
2.097487
2.393723
2.474785
2.860427
8.261800
29.056668
110.382438
241.204500
524.208546
818.659663
1015.805006
1015.805006
1015.805006
1015.805006
1015.805006
1015.805006
698.155761
442.467928
200.052857
96.405745
32.044649
12.992620
8.211732
8.102655
8.134842
8.523464
##ZVALUE=390
0.578761
0.675917
0.554919
0.434518
0.561476
0.614524
0.671744
0.501871
0.542998
0.547767
0.423789
0.517964
0.549555
0.635982
0.634789
0.568628
0.457764
0.457764
0.513792
0.609756
0.610948
0.591874
0.608563
0.647902
0.787973
0.569820
0.737906
0.593662
0.636578
0.554919
0.603795
0.723600
0.666976
0.649691
0.623465
0.716448
0.709891
0.668764
0.785589
0.771880
0.763535
0.783801
0.790954
0.766516
0.635982
0.670552
0.752807
0.748634
0.739694
0.883937
0.834465
0.989437
0.905991
0.866652
0.988841
0.987649
0.982881
1.079440
0.937581
0.965595
1.042485
1.239777
0.956655
1.116991
1.182556
1.264811
1.236796
1.590848
1.554489
1.820922
1.949668
1.950860
2.032518
2.321601
2.002716
2.569556
3.744960
20.413995
67.152977
218.063593
419.868827
810.349584
1015.679836
1015.679836
1015.679836
1015.679836
1015.679836
1015.679836
931.578875
560.768843
326.102972
131.584406
59.735775
17.036796
8.778572
7.634759
##ZVALUE=395
0.711679
0.573993
0.610948
0.747442
0.634789
0.767708
0.666976
0.806451
0.648499
0.689626
0.502467
0.693798
0.643730
0.569820
0.784993
0.750422
0.725985
0.671744
0.766516
0.671744
0.791550
0.846982
0.669956
0.617504
0.748634
0.727773
0.684857
0.656843
0.744462
0.828505
0.881553
0.672936
0.727773
0.852942
0.801682
0.903606
0.797510
0.872612
0.938773
0.777841
0.797510
0.880957
1.025796
0.811815
0.832677
0.828505
0.789762
0.817776
0.795722
0.872612
0.856519
0.911951
0.811815
0.939965
0.941753
1.007915
1.027584
1.107454
1.290441
1.167655
1.149774
1.247525
1.166463
1.250505
1.273751
1.155734
1.464486
1.517534
1.530647
1.822710
1.920462
1.890659
2.318621
2.145767
2.006888
2.156496
2.120733
2.345443
3.064871
12.342930
45.321584
162.999630
314.814448
602.574944
892.022848
1015.805006
1015.805006
1015.805006
1015.805006
1015.805006
1015.805006
694.716573
426.846743
183.798671
88.090897
28.684735
##ZVALUE=400
0.615716
0.413656
0.507832
0.531673
0.479817
0.543594
0.529885
0.688434
0.542998
0.580549
0.472665
0.617504
0.516772
0.688434
0.640750
0.747442
0.749826
0.685453
0.608563
0.673532
0.562668
0.557899
0.615716
0.512600
0.619888
0.755787
0.600815
0.682473
0.728965
0.733733
0.768900
0.715852
0.788569
0.855923
0.580549
0.748634
0.682473
0.837445
0.833869
0.871420
0.857711
0.803471
0.780821
0.667572
0.912547
0.811815
0.764728
0.810623
1.004934
0.875592
1.010895
0.791550
0.844598
0.931621
0.961423
0.930429
0.891685
0.908971
1.022816
0.861883
1.061559
1.251698
1.045465
1.019835
1.145601
1.152754
1.391768
1.545548
1.617670
1.528859
1.793504
1.673698
1.860857
1.912713
1.751781
1.741648
1.919866
1.966953
2.044439
2.189875
2.592802
6.147623
21.685958
83.926916
187.594891
440.880656
712.361932
1015.740037
1015.740037
1015.740037
1015.740037
1015.740037
1015.740037
777.250528
514.158010
256.419778
##END
