##TITLE=
##FORMAT=SPECTACLE-ASCII V-1.2
##DATA TYPE=ULTRAVIOLET SPECTRUM
##SECOND TYPE=ULTRAVIOLET SPECTRUM
##DATE=09/27/17
##TIME=14:04:10
##SPECTROMETER/DATA SYSTEM=SPECTACLE
##XUNITS=NM EM
##YUNITS=ENERGY
##YFACTOR=1
##FIRSTX=220
##LASTX=410
##NPOINTS=96
##3DDATA=Equidistant
##ZUNITS=NM EX
##FIRSTZ=210
##LASTZ=400
##ZPOINTS=39
##XYDATA=(Y..Y)
##ZVALUE=210
3.781915
4.008412
4.154444
3.329515
3.140569
4.091859
4.067421
4.859567
5.184412
5.542636
5.192757
5.660653
6.106496
7.185936
6.815791
7.665753
7.909536
7.812977
8.783937
8.414984
10.985732
10.879636
11.514425
13.757944
14.303923
13.785958
15.499592
16.948581
15.999675
18.499494
18.083453
17.449856
18.423796
18.396974
21.505952
20.201802
20.717978
21.105409
21.786690
21.886826
22.288561
21.628737
21.400452
22.977591
21.642447
25.242567
24.525523
25.833845
25.029778
26.803613
25.851727
27.860999
27.363896
26.434660
28.244853
27.047992
27.482510
28.091669
28.707981
29.252768
29.121637
29.131770
28.139949
31.398535
30.952692
29.700994
33.572912
37.237406
41.075945
50.079823
58.845878
71.056485
80.278516
96.192956
106.401443
118.388534
122.206807
127.177835
127.713680
120.512843
113.956928
103.481412
90.977550
77.973604
67.626834
53.017735
42.760968
35.367608
31.424761
29.536486
26.823878
28.745532
26.816726
27.503967
27.703643
27.318597
##ZVALUE=215
17.528534
18.249750
15.725493
13.728738
11.896491
8.825660
7.060766
6.625652
7.462502
6.753802
7.573962
7.359982
7.497668
7.974505
6.431937
7.920861
7.770658
7.112622
8.608699
9.818673
10.152459
11.307597
11.034608
12.730956
12.964606
13.562441
15.274882
15.424490
15.306473
15.925765
19.554496
20.486712
18.011928
20.813942
20.398498
19.690990
22.440553
20.656586
20.867586
20.411611
23.239851
21.667480
20.763874
22.722483
22.976995
22.629499
22.758842
23.535490
24.397969
24.444461
24.459958
26.573539
26.479959
27.983785
26.351810
26.152730
28.152466
25.584698
26.507974
28.497577
28.627515
29.210448
26.364923
28.377771
29.445887
29.532909
31.591654
33.612847
36.431551
41.745901
49.931407
60.231686
68.113804
78.382492
84.676743
91.734529
95.039606
97.212791
100.240707
92.951655
89.653730
79.110861
70.078969
59.616566
49.643517
44.368505
36.684871
33.796430
28.149486
26.881695
26.280880
24.033785
23.855567
24.148822
24.874806
23.596883
##ZVALUE=220
59.404969
62.527657
69.365501
71.477890
64.222813
50.663948
39.729476
23.250580
16.330481
13.250709
12.971759
14.380813
13.512969
14.526844
12.143850
11.713505
10.371804
9.643435
8.411407
9.031892
9.642839
11.151433
11.456609
11.970997
11.753440
13.023615
15.499592
15.523434
15.716553
15.191436
17.430782
18.257499
18.610954
18.647909
20.084977
19.146800
20.726919
20.674467
20.126700
20.987988
21.052957
21.540523
20.878911
21.580458
23.282766
23.922920
22.071600
22.845864
25.390983
24.097562
25.029778
23.593903
25.430918
24.499893
24.827719
25.053620
25.259852
26.583672
26.773810
28.002858
27.643442
26.250482
27.866960
27.096868
29.267669
28.229952
29.790998
32.137632
35.105944
39.345622
48.446655
53.577423
62.015653
67.997575
76.784492
82.015991
86.186528
84.151626
86.810589
81.843734
79.176426
72.993636
65.333843
56.166649
49.422979
43.092966
36.469698
34.297705
28.088689
27.437806
25.678873
25.198460
24.337769
24.721622
25.804639
25.089979
##ZVALUE=225
101.282001
109.953880
142.025948
192.272663
210.514665
211.048722
195.679665
150.196552
109.337568
79.195499
41.299462
30.942559
28.147697
27.835965
28.398633
28.685927
25.334954
21.311641
18.450618
15.319586
11.748672
10.834932
12.402534
12.524724
12.172461
13.736486
14.994740
16.763806
15.771985
16.620755
17.341971
18.318892
18.899441
19.368529
19.283891
20.860434
22.792816
20.813942
22.262931
23.448467
22.066832
22.271872
22.528768
24.558902
26.014447
23.793578
24.679899
25.707483
26.701689
27.536750
26.627779
28.840899
30.190945
27.961731
28.116703
28.671622
29.282570
29.801726
28.255582
32.116771
32.001734
29.520988
31.190515
31.323433
33.452511
33.366680
34.866929
34.720898
38.914680
43.228865
47.905445
53.555965
59.210658
65.997839
68.896413
74.259639
74.789524
71.002841
72.098970
73.045492
65.403581
64.170957
59.150457
55.060983
47.250986
43.545961
37.463903
36.308765
34.625530
30.849576
30.875802
30.281544
29.402971
31.329989
29.236674
31.604767
##ZVALUE=230
83.556771
96.645951
150.599480
256.132483
346.365571
433.571935
479.830503
481.280684
451.871753
380.656719
248.332620
159.104466
86.627603
62.081814
47.008991
47.806501
50.913692
50.436854
46.589971
41.399002
33.897758
24.681687
20.239949
15.398860
13.864636
13.476610
15.195608
15.515685
16.266704
16.263723
17.020702
17.336607
17.461777
19.139647
20.326972
20.591617
19.993782
20.955801
24.294853
22.764802
23.371577
26.919842
26.157498
28.835535
27.981997
28.513670
28.812885
29.641986
30.267835
30.103922
33.456683
33.528805
33.071637
33.399463
34.040809
37.576556
34.146905
36.944747
37.205815
36.739707
38.129687
40.505528
41.178465
41.316748
41.026473
41.641593
44.632554
44.933558
49.159527
52.276850
56.441426
59.389472
65.378547
71.767569
73.297620
75.654984
75.961947
75.585842
77.717900
73.916912
70.237517
66.556931
61.998963
61.430931
56.225657
50.806999
45.917630
45.817494
44.256449
40.996671
40.984750
41.817427
38.812757
41.857958
40.151477
41.666627
##ZVALUE=235
27.446747
33.423901
71.223974
167.168975
277.279019
467.366576
619.222522
810.516477
906.563997
924.258828
819.562674
683.658719
443.998575
311.077833
178.392529
113.448501
79.844594
81.272721
83.896518
85.121989
80.483556
67.651868
55.817962
40.392876
31.806827
23.658872
18.868446
15.730858
16.065836
14.073849
16.381741
17.266870
17.765760
19.419789
18.603802
19.465685
21.079779
21.609664
23.519993
25.601983
24.966598
26.584864
28.540492
28.971434
29.798746
32.934546
33.567548
35.417676
36.718845
37.955642
40.050745
40.549636
40.737987
42.099953
44.042468
45.975447
46.084523
45.586824
46.419501
49.047470
47.706962
49.791932
52.618980
51.730871
50.491691
54.562688
54.961443
56.712627
59.268475
65.226555
65.327883
70.180893
77.527761
80.962777
90.318918
85.972548
86.542964
90.163946
85.847974
84.854960
79.708695
77.501535
75.149536
72.098970
65.503716
66.582561
61.278939
63.047409
59.345961
60.612559
60.193539
58.355927
55.249929
54.658651
53.556561
56.913495
##ZVALUE=240
3.740788
3.664494
15.291572
36.007762
107.611418
197.650790
407.036543
641.138554
977.753997
1015.805006
1015.805006
1015.805006
1015.805006
1012.071967
813.920498
484.755635
321.832895
185.048580
123.774409
107.446909
110.435486
118.022561
117.445588
109.452605
87.837577
71.626902
52.983761
41.206479
28.924942
25.051832
19.672513
20.794868
18.693805
20.414591
20.766854
21.393895
22.900701
24.256706
25.273561
28.328896
28.261542
29.491782
32.363534
33.488870
35.216808
37.151575
40.090680
42.068958
44.658780
45.202971
48.380494
48.995614
53.081512
53.971410
55.913925
58.142543
55.503845
55.510998
60.592890
59.174895
61.009526
62.745810
63.983798
62.498450
61.539412
65.141916
68.041682
67.257881
70.225596
75.484514
77.676773
86.037517
86.945891
92.560649
96.480846
98.515749
99.374652
99.817514
98.520517
94.758868
94.644427
88.992715
85.736513
82.129836
80.205798
75.139999
79.524517
75.710416
71.935654
70.329905
74.119568
67.862868
69.594979
69.843531
66.644549
69.743991
##ZVALUE=245
2.745986
3.069639
3.716946
4.045963
8.309484
24.839640
82.685947
180.903673
426.782966
678.911805
1015.847921
1015.847921
1015.847921
1015.847921
1015.847921
1015.847921
1015.847921
751.034021
495.404601
258.047581
158.325434
116.564631
115.477443
130.487680
132.244825
128.598809
113.180876
100.475550
78.145862
60.771704
42.910576
32.483935
26.593804
21.470785
20.966530
20.478964
22.793412
23.480654
24.751425
25.191903
28.650761
31.143427
31.165481
34.987926
37.456751
37.615895
39.681792
44.353604
46.319962
49.385428
50.974488
52.586794
50.420761
55.317879
55.132508
57.851672
54.643750
58.253407
57.305694
61.291456
58.701634
60.790777
64.322948
63.728690
61.756968
63.608885
65.881610
68.759918
69.636703
67.812800
75.253844
76.012611
79.874992
85.304976
90.309978
90.827942
93.130469
88.776946
86.386800
87.580681
83.462596
83.248615
81.964731
82.737803
75.126886
76.267719
74.276924
72.989464
72.856545
72.247982
69.460869
68.405867
70.072412
69.691539
67.910552
68.632960
##ZVALUE=250
2.976656
2.703667
2.551675
2.835989
3.279448
3.776550
4.298687
19.302964
54.299831
126.084685
353.562832
633.073449
1015.805006
1015.805006
1015.805006
1015.805006
1015.805006
1015.805006
1015.805006
1015.805006
740.310550
380.389690
224.407911
125.998855
113.258958
126.552582
142.601728
144.827962
139.202476
126.120448
110.167861
82.219839
66.453815
44.723749
35.557747
28.007627
24.945736
22.890568
24.355650
26.171803
28.719902
29.708743
30.640960
34.665465
36.811829
39.239526
40.611625
42.260885
44.767857
46.704412
48.004985
48.953891
52.053928
51.882863
53.582788
54.613948
54.531693
54.794550
56.313872
58.057904
54.465532
54.741502
54.827929
57.460666
56.406856
58.016777
59.800744
59.087873
62.139630
64.580441
65.176487
71.900487
72.094798
76.886415
78.130960
77.840686
79.263449
80.961585
77.788830
77.443719
76.138973
72.996616
76.572895
71.814656
71.495771
68.819523
69.660544
68.660975
64.932704
66.267848
66.683888
64.877868
65.513849
64.673424
65.514445
63.012838
##ZVALUE=255
2.345443
2.627969
2.506971
2.227426
2.750754
3.216863
3.490448
3.629923
4.320741
27.220845
34.525990
237.971544
279.156566
930.608511
980.224609
1015.805006
1015.805006
1015.805006
1015.805006
1015.805006
1015.805006
1015.805006
985.782743
550.640821
314.900875
156.696439
113.383532
114.525557
129.776597
148.677826
151.265860
146.414638
135.284662
113.892555
91.279745
67.229867
50.904751
36.554933
31.512976
27.583838
26.219487
28.087497
29.380918
31.902790
33.500791
35.565495
37.963986
40.521622
42.158961
44.050813
44.228435
46.310425
47.326684
45.176744
47.471523
49.127936
50.007701
49.685836
49.096942
50.422549
48.989654
49.257874
49.249530
50.884485
50.383806
50.935745
52.667856
51.129460
53.952932
56.854486
57.164431
60.880780
62.935948
67.242980
67.219734
69.276690
69.182515
70.978999
71.310997
66.325665
64.888597
67.336559
64.821839
63.334703
62.236786
63.236952
61.980486
61.982870
62.649846
62.983632
61.064959
61.126947
60.888529
60.300827
61.205626
57.726502
##ZVALUE=260
2.051592
2.226830
2.591610
2.553463
2.474785
2.518892
2.582669
3.451705
3.330708
3.621578
3.600717
5.311966
23.650527
67.800879
197.174549
407.648683
872.002840
1015.805006
1015.805006
1015.805006
1015.805006
1015.805006
1015.805006
1015.805006
1015.805006
805.595517
496.775508
240.294933
143.490434
102.868676
109.209418
138.337612
149.682760
158.976912
157.897472
140.630603
120.376945
92.853904
73.578954
51.317811
41.332841
33.895969
30.031800
29.400587
30.161738
31.134486
33.078790
34.703612
37.332773
39.879680
39.999485
39.338470
40.886998
41.526556
43.391585
42.641759
43.490529
43.419600
43.593645
43.145418
44.656992
42.814612
44.144988
45.330524
43.966770
44.478774
47.994852
47.186613
47.216415
50.644875
50.930977
54.338574
57.128668
58.752894
59.398413
59.773922
61.105490
61.553717
63.259602
60.657859
60.802698
59.377551
58.537722
57.461858
58.451891
56.912899
57.932734
58.208704
57.705641
57.785511
55.354834
55.458546
55.582523
56.988597
57.542920
56.179762
##ZVALUE=265
2.061725
2.099872
2.098680
2.568960
2.580881
2.430677
2.852678
2.592802
2.889633
3.192425
3.548861
3.565550
3.737807
4.834533
9.677410
50.249696
127.925873
343.721509
649.080873
1015.805602
1015.805602
1015.805602
1015.805602
1015.805602
1015.805602
1015.805602
1015.805602
1015.805602
668.728948
386.349559
245.178938
107.029676
94.630718
120.711923
139.916539
158.735514
161.705613
157.274008
144.469738
120.971799
98.378658
72.747469
56.065917
41.559935
37.727952
31.445622
32.606721
32.481551
33.231974
36.215782
35.933852
35.261512
38.801432
37.385821
38.916469
38.358569
40.083528
39.417744
39.343834
40.191412
40.785670
40.318966
40.853620
39.856434
42.201877
41.573644
42.290688
42.677522
45.261979
46.992898
49.027801
50.336719
51.667690
54.466724
54.234862
56.913495
56.948662
56.375861
56.274533
54.806471
55.091977
54.805875
53.868890
53.569674
53.903461
53.583980
54.530501
53.322911
53.742528
54.470897
52.954555
53.102970
52.118897
52.903891
54.509640
51.892996
##ZVALUE=270
2.183914
2.128482
2.324581
2.262592
2.439618
2.641678
2.238750
2.789497
2.812743
2.860427
2.651811
3.140569
3.079772
3.762841
4.061460
4.369617
7.066727
20.726919
25.335550
231.215954
491.167903
1002.086997
1015.805006
1015.805006
1015.805006
1015.805006
1015.805006
1015.805006
1015.805006
1015.805006
1015.190482
542.317629
293.843746
125.271678
87.180734
95.784664
117.485523
146.468878
162.010789
168.401599
166.800618
147.367716
127.054453
99.076629
80.470443
58.823824
47.735572
38.634539
35.486817
34.661889
35.366416
35.588741
36.521554
36.008954
37.175417
38.138628
37.501454
38.390756
39.961934
39.811730
39.482713
39.609671
40.691495
40.174723
41.836500
40.947795
41.492581
42.900443
44.273734
46.444535
45.661926
50.095916
50.796866
51.629543
54.554939
54.942966
52.290559
54.439902
53.741932
52.838922
52.616000
51.832795
51.543713
52.868724
52.432418
51.749945
51.105618
51.777959
51.151514
51.166415
50.928593
50.720572
50.351620
52.248836
51.369667
51.408410
##ZVALUE=275
2.226830
2.063513
2.004504
2.125502
2.025962
2.100468
2.311468
2.261996
2.429485
2.651811
2.487898
2.702475
2.779961
3.198981
2.988577
3.552437
3.583431
4.009604
4.761815
11.908412
45.464635
129.149556
402.861834
790.245533
1015.805602
1015.805602
1015.805602
1015.805602
1015.805602
1015.805602
1015.805602
1015.805602
1015.805602
806.122422
452.226996
182.713866
96.564889
76.542497
93.050003
122.644901
141.810775
162.624717
171.524882
165.447593
151.290894
127.553940
106.528997
82.093477
65.712929
50.790906
44.078827
39.586425
37.257671
36.707520
38.610697
39.201975
37.923455
39.882660
39.021969
39.749742
40.430427
41.440725
40.422678
41.636825
42.269826
41.880608
42.941570
43.389797
44.909716
45.483708
47.695637
49.751997
50.661564
52.823424
52.399635
54.236650
53.837895
52.449703
53.141713
53.355694
52.013993
51.435828
51.381588
49.940944
49.425960
51.357746
49.954653
49.993992
50.406456
49.608946
48.739910
48.470497
49.864650
48.474669
48.727989
47.893524
##ZVALUE=280
1.738667
1.949668
1.986623
1.950860
2.020597
2.041459
2.080798
2.339482
2.136827
2.064705
2.350807
2.379417
2.490878
2.280474
2.791882
2.864599
3.201962
3.458858
3.705621
4.303455
4.667640
6.961823
24.631619
120.486617
290.387869
711.408854
1015.805006
1015.805006
1015.805006
1015.805006
1015.805006
1015.805006
1015.805006
1015.805006
1015.805006
987.014771
606.822968
255.204439
126.791000
67.031980
72.688460
99.694729
122.700930
146.248937
164.100528
168.602467
163.040757
149.060488
131.084919
104.991794
85.539818
66.100955
54.338574
45.058727
41.161776
40.341616
40.219426
39.015412
39.963722
41.004419
42.206645
42.584538
41.742921
42.315722
43.087602
43.011904
42.999983
45.025945
45.272708
46.686530
49.040914
48.833489
50.711632
52.557588
53.481460
53.426623
52.274466
53.050518
52.291751
51.565766
51.163435
50.020814
50.578713
50.146580
49.531460
49.556494
48.919916
49.807429
48.453808
48.886538
47.964454
48.427582
47.326684
48.527718
48.467517
47.344565
##ZVALUE=285
1.652837
1.943707
1.913905
1.856685
1.785755
2.101660
2.069473
1.924634
1.923442
2.065897
2.033710
2.170801
2.359748
2.300739
2.455711
2.498627
2.638698
2.647638
2.804995
3.318787
3.368855
4.012585
4.702806
5.313754
14.816523
51.561594
187.363625
392.765999
875.653028
1015.805006
1015.805006
1015.805006
1015.805006
1015.805006
1015.805006
1015.805006
1015.805006
1015.805006
888.442397
414.328575
206.377506
79.264641
55.695772
71.023703
91.041923
121.137500
139.313936
157.119632
166.515708
163.796544
155.458450
132.394433
112.471581
86.828470
70.360899
54.730773
47.888756
43.880939
40.605664
40.573478
40.721893
42.354465
42.379498
42.665601
44.539571
43.455958
44.779778
45.443773
45.611858
48.069954
48.597455
50.545931
50.357580
51.504970
52.310824
51.292777
52.668452
51.261783
52.553415
52.342415
51.208735
50.709844
50.193667
50.077438
50.291419
49.617887
49.891472
48.836470
48.348904
47.845840
47.337413
47.347546
46.698451
47.242641
45.416951
46.534538
##ZVALUE=290
1.540780
1.665950
1.619458
1.592636
1.529455
1.726747
1.615882
1.750588
1.899600
2.003908
2.047420
2.039671
2.295971
2.164841
2.358556
2.408624
2.423525
2.328753
2.696514
3.047585
2.869964
3.324747
3.593564
3.775954
4.298687
5.058646
6.877780
20.805597
102.332830
251.192451
506.458879
1015.805006
1015.805006
1015.805006
1015.805006
1015.805006
1015.805006
1015.805006
1015.805006
1015.805006
1015.805006
599.742532
312.829614
113.847852
56.108832
50.621629
63.888431
87.607503
110.395551
137.815475
152.631998
162.832737
162.035823
148.842931
132.126808
106.222630
87.006688
66.729784
56.857467
47.740936
43.901801
41.012764
41.917562
42.540431
42.401552
42.817593
44.111609
44.656992
46.280622
47.276616
47.673583
49.036741
49.377680
51.330924
52.176714
51.905513
51.570535
51.089525
50.378442
49.713850
50.371885
49.391985
49.140453
49.627423
48.965812
48.968792
48.442483
48.560500
46.957731
47.115684
46.898723
46.126842
45.651793
45.648813
45.963526
45.333505
##ZVALUE=295
1.407862
1.414418
1.518726
1.779795
1.595616
1.591444
1.668930
1.784563
1.816750
1.595616
1.816750
1.799464
1.987815
1.931787
1.806617
2.218485
2.061725
2.039671
2.214909
2.456903
2.502799
2.896786
2.954602
3.058910
3.414750
3.793836
4.206896
4.466772
5.503893
9.755492
34.991503
158.928633
368.172526
890.525579
1015.805006
1015.805006
1015.805006
1015.805006
1015.805006
1015.805006
1015.805006
1015.805006
1015.805006
833.546519
449.175835
160.295963
72.524548
38.980842
44.019818
62.713623
81.506968
108.372569
127.465725
147.939920
153.899789
153.505802
142.749548
122.966766
106.620789
83.638430
69.999695
54.626465
48.318505
42.749643
41.653514
41.517615
42.343736
42.699575
43.479800
44.772625
46.299696
48.423409
49.196482
49.758554
49.648881
50.993562
50.779581
49.659610
49.660802
50.481558
49.377680
49.495697
48.840642
49.714446
49.676895
48.297644
48.452616
47.418475
47.254562
46.373606
46.131611
45.089722
46.069622
44.488907
45.261979
44.053793
##ZVALUE=300
1.384616
1.477599
1.522899
1.496673
1.549721
1.391768
1.460910
1.526475
1.496673
1.593828
1.710653
1.686811
1.614690
1.750588
1.922846
1.700521
1.734495
2.086759
2.042651
2.353787
2.440810
2.742410
2.365708
2.768636
2.949834
3.470778
3.162622
3.621578
4.139543
4.512668
5.241632
5.725622
21.532774
81.172585
290.226936
579.621792
1015.805006
1015.805006
1015.805006
1015.805006
1015.805006
1015.805006
1015.805006
1015.805006
1015.805006
1015.805006
623.461604
324.317813
112.232566
48.100948
34.350753
41.648746
58.653951
75.467825
100.396872
119.245648
140.290856
149.894953
149.806738
141.770840
123.634934
106.302500
82.782507
69.899559
54.823756
48.217773
43.012500
42.232871
42.276978
43.027997
45.254827
45.515895
46.783686
47.782660
48.491955
49.081445
49.038529
48.909783
48.814416
49.011707
49.117804
49.284697
49.069524
48.510432
48.948526
47.983527
47.488809
47.840476
47.506690
46.812892
45.930743
45.138001
45.227408
44.037700
44.111609
43.203831
##ZVALUE=305
1.129508
1.240969
1.345873
1.341701
1.466870
1.380444
1.316667
1.615882
1.462698
1.285672
1.601577
1.686811
1.553893
1.500845
1.660585
1.846552
1.651645
1.873970
1.995564
2.047420
2.089739
2.095699
2.193451
2.477765
2.519488
2.721548
2.986789
3.196597
3.281832
3.674626
3.731847
4.195571
4.518628
5.696416
9.731650
57.680607
167.542696
486.861467
896.364450
1015.805006
1015.805006
1015.805006
1015.805006
1015.805006
1015.805006
1015.805006
1015.805006
1015.805006
942.953825
430.645943
207.012892
67.270994
34.401417
33.288002
41.820407
57.981610
74.912906
97.391605
116.732717
135.917664
143.449903
142.565966
134.913921
118.900537
101.915598
81.185699
66.982508
55.156946
48.825741
45.184493
44.210553
44.266582
45.604706
47.084689
46.894550
47.803521
47.606826
49.247742
48.798919
48.494935
48.957467
49.483776
49.145818
48.624873
49.636960
49.241781
49.107671
47.726631
47.831535
47.145486
46.352744
46.415925
44.936538
44.806600
43.619871
43.444633
##ZVALUE=310
1.298785
1.339912
1.215935
1.285672
1.239777
1.261830
1.439452
1.405478
1.429915
1.361966
1.416802
1.449585
1.499653
1.483560
1.551509
1.671910
1.676679
1.855493
1.727939
1.886487
2.006888
1.926422
2.202988
2.231598
2.337694
2.327561
2.711415
2.694726
2.728701
2.780557
3.093481
3.480911
3.552437
4.026890
4.422665
4.890561
6.001592
24.994612
86.273551
297.861695
599.369407
1015.802026
1015.802026
1015.802026
1015.802026
1015.802026
1015.802026
1015.802026
1015.802026
1015.802026
1015.801430
675.032735
357.860923
125.467777
49.874783
27.620792
31.349659
39.762855
51.927567
71.292520
87.786913
110.115409
124.326944
135.490894
136.698484
129.029751
118.700862
99.934936
83.190799
68.491697
58.957934
50.998926
48.056841
46.440959
45.536757
46.955943
46.986938
46.751499
47.661662
48.925877
48.175454
49.337745
49.142838
49.974918
49.357414
48.570633
49.145818
48.797727
48.878789
48.231483
46.789646
46.216846
46.079755
45.633912
44.737458
44.227839
##ZVALUE=315
1.133680
1.194477
1.231432
1.037717
1.188517
1.242757
1.373887
1.267791
1.370907
1.285672
1.380444
1.547933
1.596808
1.371503
1.508594
1.499653
1.602769
1.601577
1.651645
1.899600
1.791716
1.905560
1.759529
1.895428
2.115965
2.195835
2.322793
2.309680
2.535582
2.617836
2.573729
2.765656
3.043413
3.224611
3.581643
3.882647
4.353523
4.812479
5.271435
11.666417
44.952631
193.802714
432.092547
954.913497
1015.805602
1015.805602
1015.805602
1015.805602
1015.805602
1015.805602
1015.805602
1015.805602
1015.805602
929.586887
500.800014
183.342695
74.533820
28.480887
25.776625
30.392408
36.018491
50.003529
63.286424
83.624721
100.245476
118.072629
128.341913
130.422711
127.019882
113.176703
99.794865
83.331466
71.240664
58.676600
51.895976
48.058629
47.241449
46.377778
46.839714
47.235489
46.398640
47.890544
47.872663
48.642755
48.453808
48.861504
48.955679
48.356652
48.077703
47.987700
47.109723
46.798587
46.469569
46.580434
45.224428
45.662522
##ZVALUE=320
1.117587
1.127720
1.187921
1.176000
1.216531
1.204610
1.327991
1.376867
1.159906
1.416802
1.287460
1.242757
1.221895
1.366735
1.426935
1.455545
1.471639
1.470447
1.675487
1.504421
1.477599
1.714826
1.627803
1.621842
1.895428
1.950860
1.878738
2.077818
2.135634
2.398491
2.435446
2.741814
2.752542
3.049970
2.947450
3.227592
3.273487
3.577471
4.191995
4.440546
4.774928
6.753802
20.722747
111.750960
283.912420
734.542608
1015.805006
1015.805006
1015.805006
1015.805006
1015.805006
1015.805006
1015.805006
1015.805006
1015.805006
1015.805006
705.300570
294.114947
129.956007
39.110780
23.565888
23.534894
26.884675
33.345819
43.099523
60.287714
76.268911
98.103881
111.533999
123.286843
127.617717
123.199821
113.703609
96.686482
83.553791
67.370534
58.536530
50.894618
47.645569
45.674443
45.349002
46.525598
46.792626
47.279000
46.941638
47.614574
47.740936
47.814846
47.897696
47.528744
46.992898
46.458840
46.081543
44.855475
44.654608
45.331717
##ZVALUE=325
1.196861
1.075864
0.947714
1.037717
1.093745
1.099706
1.190901
1.169443
1.214743
1.232624
1.171827
1.316667
1.227856
1.186728
1.327991
1.293421
1.333952
1.415610
1.523495
1.325607
1.462698
1.570582
1.574755
1.782775
1.750588
1.772642
1.917481
1.929998
1.878738
2.045631
2.245903
2.103448
2.389550
2.552867
2.462864
2.820492
2.828836
2.861619
3.205538
3.448725
3.950596
4.225969
4.767776
5.443692
11.232495
73.665977
198.431611
526.923537
944.014788
1015.805602
1015.805602
1015.805602
1015.805602
1015.805602
1015.805602
1015.805602
1015.805602
1015.805602
924.745798
408.305526
189.876556
55.046678
25.161505
20.588636
21.664500
26.426911
32.363534
43.909550
56.826472
77.665448
92.912912
109.530687
117.982626
121.279955
116.872787
104.882717
92.470646
76.108575
65.652728
55.087805
49.882531
45.908689
44.563413
45.081973
44.950843
45.733452
45.409799
45.937896
45.495629
45.192838
44.946671
43.956637
44.523478
43.895841
44.332743
44.593811
##ZVALUE=330
0.837445
0.994802
1.034737
0.870824
1.031756
1.157522
0.894666
1.071692
1.118779
1.074672
0.914931
1.075864
0.965595
1.037717
0.977516
0.980496
1.224875
1.181960
1.210570
1.209974
1.325607
1.373887
1.349449
1.524687
1.444817
1.555681
1.672506
1.727939
1.641512
1.745820
1.947880
1.801848
1.969934
2.108812
2.185702
2.180934
2.411604
2.471805
2.547503
2.889633
3.117919
3.471971
3.429651
3.816485
4.492998
5.295873
6.562471
31.467676
105.961561
358.041525
695.042610
1015.676856
1015.676856
1015.676856
1015.676856
1015.676856
1015.676856
1015.676856
1015.676856
1015.676856
1015.676856
580.161810
290.953517
97.603798
36.603808
20.691752
20.095706
21.923780
26.099682
33.899546
42.936802
58.094859
72.340965
92.067719
105.194449
113.716722
116.520524
111.610889
102.042556
86.363554
75.038671
61.916709
54.496527
49.002767
45.476556
43.447614
43.214560
42.811632
43.113828
42.836666
42.571425
43.209791
43.057799
42.580962
42.118430
43.629408
##ZVALUE=335
0.943542
1.108646
0.983477
0.858903
1.026988
1.084805
0.949502
1.098514
0.934601
1.058578
0.973940
1.155734
1.149774
1.039505
1.095533
0.995994
1.387596
1.241565
1.231432
1.330972
1.345873
1.493692
1.404881
1.310706
1.476407
1.532435
1.454949
1.673698
1.594424
1.912713
1.706481
1.883507
1.833439
1.928806
1.970530
2.255440
2.143979
2.352595
2.302527
2.570748
2.520680
2.840757
3.103614
3.144741
3.427863
3.936887
4.231930
4.791617
5.511642
14.473796
54.969788
224.744678
478.569865
993.039608
1015.805006
1015.805006
1015.805006
1015.805006
1015.805006
1015.805006
1015.805006
1015.805006
1015.805006
831.139684
443.844795
155.233741
58.111548
22.198558
20.079613
21.974444
23.636818
27.873516
33.172965
44.888854
56.206584
73.073506
86.359978
99.981427
107.393861
109.092593
105.446577
95.396638
85.344911
71.777701
62.942505
53.126812
47.779679
44.219494
42.618513
41.143894
40.553808
40.370822
41.208863
40.563941
41.053891
41.084886
##ZVALUE=340
1.067519
1.018643
1.061559
0.856519
0.924468
0.980496
0.979900
1.045465
0.986457
1.036525
1.059771
1.095533
1.064539
1.137853
1.138449
1.244545
1.132488
1.189709
1.044869
1.345873
1.262426
1.162887
1.354814
1.227856
1.264811
1.483560
1.380444
1.522899
1.617670
1.610518
1.813769
1.736879
1.565814
1.877546
1.876950
1.942515
2.034903
2.156496
2.259612
2.096891
2.449751
2.503991
2.648830
2.725720
2.926588
3.259778
3.411770
3.838539
3.984571
4.656911
5.058646
7.818937
26.418567
137.660503
340.875983
850.840807
1015.816927
1015.816927
1015.816927
1015.816927
1015.816927
1015.816927
1015.816927
1015.816927
1015.816927
972.185731
568.362474
226.207972
88.062882
26.387572
21.230578
21.590590
22.536516
24.817586
27.933717
34.077764
41.937828
54.411888
66.345930
82.929730
94.034672
102.431774
103.494525
99.678636
92.552900
80.982447
70.710778
60.084462
52.449703
45.645833
42.115450
39.716959
39.095879
39.013624
38.289428
38.968921
##ZVALUE=345
1.021624
1.013875
1.016855
0.912547
0.838637
0.979900
0.763535
1.039505
0.948906
1.033545
0.928640
1.058578
1.165867
1.104474
1.019835
1.104474
1.141429
1.141429
1.064539
1.197457
1.106858
1.341701
1.257658
1.326799
1.364946
1.434684
1.487732
1.497865
1.505613
1.548529
1.519918
1.620650
1.593828
1.616478
1.810789
1.668930
1.845956
1.949668
2.115965
2.081990
2.178550
2.283454
2.218485
2.132654
2.561808
2.800822
2.773404
3.110766
3.388524
3.616810
3.692508
4.432797
4.563928
5.706549
11.957884
75.513721
222.548842
610.661507
1000.729799
1015.827656
1015.827656
1015.827656
1015.827656
1015.827656
1015.827656
1015.827656
1015.827656
1015.827656
796.581507
315.428972
138.603449
42.187572
23.121834
21.716952
22.152662
22.498965
23.953915
26.168823
30.948520
40.012598
49.708486
64.321756
75.005889
86.819530
92.781782
96.472502
94.837546
87.563992
79.058409
67.588687
58.740973
49.146414
43.932796
39.759874
38.201809
36.727786
##ZVALUE=350
0.829697
0.862479
0.931621
1.083612
0.759959
0.855923
1.000762
1.127720
1.017451
1.014471
1.112819
1.043677
1.024604
0.850558
0.962615
0.942945
1.248717
1.197457
1.104474
1.152754
1.161695
1.319647
1.218915
1.238585
1.190901
1.218915
1.197457
1.388788
1.444817
1.364946
1.656413
1.591444
1.525879
1.692772
1.632571
1.573563
1.946688
1.717806
1.772642
1.848936
1.880527
1.911521
1.861453
2.237558
2.266765
2.209544
2.523661
2.691746
2.799630
2.867579
3.301501
3.527999
3.740788
4.266500
4.481673
5.129576
7.652640
38.160682
125.569701
407.261848
776.763558
1015.805006
1015.805006
1015.805006
1015.805006
1015.805006
1015.805006
1015.805006
1015.805006
1015.805006
971.439481
464.264750
213.184953
57.454705
25.564432
19.844770
20.050406
20.024776
20.289421
21.989942
24.806857
30.104518
36.391616
46.525002
55.905581
69.402456
77.334642
85.978508
88.635683
87.529421
82.637668
72.268844
64.157844
54.604411
48.477650
41.936636
##ZVALUE=355
0.968575
0.984669
0.930429
0.984669
1.005530
1.062751
1.043677
0.992417
1.094937
1.021624
1.151562
1.165867
1.104474
0.915527
1.084805
1.087785
1.070499
1.139641
1.189709
1.246929
1.144409
1.392961
1.152754
1.195669
1.319647
1.276731
1.284480
1.479983
1.485944
1.447797
1.263618
1.529455
1.625419
1.592636
1.605749
1.575947
1.607537
1.796484
1.796484
1.881719
1.814961
1.927614
2.213717
2.087951
2.255440
2.154708
2.314448
2.344847
2.580881
2.580881
2.785921
3.152490
3.082752
3.522635
3.898740
4.062653
4.302859
5.179644
5.765557
18.415451
68.565607
275.385976
568.346977
1015.805006
1015.805006
1015.805006
1015.805006
1015.805006
1015.805006
1015.805006
1015.805006
1015.805006
1015.805006
576.259494
277.929902
81.300735
31.353831
18.939972
18.876791
18.989444
19.447803
20.216703
21.183491
24.157763
27.383566
33.506751
41.166544
52.502751
60.546994
71.697831
78.100562
81.692934
81.837773
75.296760
69.211721
60.346723
##ZVALUE=360
1.044869
0.988841
1.030564
1.002550
0.873804
0.939965
1.073480
0.813603
1.075864
0.916719
1.098514
0.998974
1.171827
1.084805
1.145601
1.116991
1.176000
1.063943
1.178980
1.059771
1.237988
1.238585
1.222491
1.357794
1.455545
1.319647
1.364946
1.323819
1.421571
1.484752
1.448989
1.474619
1.418591
1.636744
1.686811
1.498461
1.763701
1.730919
1.707673
1.962781
1.827478
2.020597
1.918674
1.923442
2.170801
2.203584
2.196431
2.418756
2.343655
2.455711
2.636909
2.770424
3.010631
3.012419
3.327727
3.612638
3.730655
3.991723
4.328489
4.851818
5.510449
9.161830
28.996468
138.222575
344.184041
863.272548
1015.805006
1015.805006
1015.805006
1015.805006
1015.805006
1015.805006
1015.805006
1015.805006
1015.805006
778.021812
405.406952
144.647956
53.338408
20.153522
18.489957
18.561482
18.661618
19.212961
19.823909
20.611882
22.218823
25.372505
29.688478
36.525726
44.377446
55.304766
62.925816
71.662664
74.665546
75.501800
##ZVALUE=365
0.776649
1.039505
0.972748
0.912547
1.097918
1.011491
1.000762
1.023412
1.137853
1.197457
1.188517
1.066923
1.123548
1.150966
0.976920
1.167655
1.022816
1.168847
1.210570
1.166463
1.307726
1.248717
1.375675
1.244545
1.321435
1.271963
1.369715
1.490712
1.612902
1.505613
1.532435
1.594424
1.487732
1.517534
1.573563
1.776814
1.821518
1.641512
1.691580
1.864433
1.953840
1.763701
2.091527
1.886487
2.076626
2.328753
2.145767
2.286434
2.288818
2.561808
2.353787
2.744794
2.567768
2.842546
3.078580
3.245473
3.405809
3.866553
3.776550
4.166961
4.671812
5.088449
5.896688
6.749630
13.739467
78.746080
215.987563
578.390956
997.145772
1015.805006
1015.805006
1015.805006
1015.805006
1015.805006
1015.805006
1015.805006
1015.805006
1001.857519
586.530566
211.305022
80.943704
24.190545
18.682480
18.158555
17.847419
18.056631
18.161535
18.795729
18.737912
20.456910
22.685528
27.008653
32.162666
40.692687
48.596859
57.136416
##ZVALUE=370
1.030564
0.966787
0.994802
1.067519
1.186728
1.141429
0.977516
1.099706
0.965595
1.080632
1.075864
1.088977
1.082420
1.166463
1.138449
1.189709
1.216531
1.287460
1.250505
1.272559
1.098514
1.284480
1.362562
1.210570
1.399517
1.364946
1.306534
1.553893
1.379848
1.475811
1.443624
1.417994
1.541972
1.455545
1.594424
1.823902
1.721978
1.730919
1.794696
1.928806
1.675487
1.799464
1.921654
1.971722
1.912713
2.093911
1.995564
2.052784
2.127886
2.294779
2.232790
2.381802
2.453923
2.615452
2.669692
2.665520
2.993941
3.091693
3.319979
3.636479
3.681779
4.062653
4.335642
4.789829
5.127788
6.087422
8.524656
38.369894
130.789876
435.214639
820.944905
1015.805006
1015.805006
1015.805006
1015.805006
1015.805006
1015.805006
1015.805006
1015.805006
1015.805006
747.869015
294.336677
132.803917
41.662455
20.169616
16.196966
16.108751
16.228557
16.310811
16.512871
17.005801
17.781854
18.638968
21.511912
24.397969
29.985905
##ZVALUE=375
1.099706
1.081824
1.016855
1.143813
0.898838
0.948906
1.138449
1.072884
1.170635
1.016855
1.182556
1.213551
1.050830
1.002550
1.265407
1.257658
1.136661
1.137853
1.163483
1.165867
1.167655
1.284480
1.142621
1.344681
1.430511
1.199841
1.469851
1.366735
1.274943
1.367927
1.650453
1.453757
1.416802
1.610518
1.500845
1.533628
1.616478
1.657605
1.734495
1.806617
1.893640
1.830459
1.674891
1.823902
1.768470
1.722574
1.927614
2.017617
1.944900
2.142787
2.082586
2.133846
2.181530
2.162457
2.458692
2.405643
2.392530
2.690554
2.597570
2.959967
2.791882
3.210902
3.344417
3.659725
3.686547
4.324913
4.586577
5.191565
6.393790
19.966960
69.520473
265.810490
574.454665
1015.805006
1015.805006
1015.805006
1015.805006
1015.805006
1015.805006
1015.805006
1015.805006
1015.805006
998.950601
522.053838
260.313749
78.156590
27.996898
15.040636
14.738441
14.381409
14.829636
14.934540
14.910698
15.465617
16.455650
17.318726
##ZVALUE=380
0.980496
1.064539
1.083612
1.084805
0.936985
0.945926
1.067519
0.967979
1.136661
1.067519
1.076460
1.072884
1.027584
1.197457
1.170635
1.242757
1.171827
1.118779
1.125932
1.114607
1.307726
1.159906
1.325607
1.215935
1.298785
1.131892
1.413822
1.249909
1.317859
1.407862
1.445413
1.334548
1.307726
1.465678
1.424551
1.407862
1.445413
1.349449
1.339912
1.589656
1.606941
1.681447
1.592636
1.675487
1.684427
1.541972
1.676679
1.721978
1.687407
1.736879
1.723766
1.980662
1.980662
1.931787
1.967549
1.960993
2.094507
2.298951
2.296567
2.635717
2.434850
2.627969
2.840757
2.932549
3.136992
3.359914
3.493428
3.938675
4.464984
5.367994
6.119609
10.660887
38.775802
188.880563
443.539023
983.033776
1015.805006
1015.805006
1015.805006
1015.805006
1015.805006
1015.805006
1015.805006
1015.805006
1015.805006
701.650977
360.153913
121.644735
45.500994
16.588569
13.893843
13.458729
13.601780
13.633966
13.735890
14.156699
##ZVALUE=385
0.988841
0.820756
0.868440
0.879765
0.922680
0.861883
0.900626
0.986457
1.128912
1.006722
1.021624
1.076460
0.942945
0.988841
1.017451
1.059771
0.915527
1.001954
1.066923
1.100898
1.012683
1.126528
1.223683
1.172423
1.040697
1.128912
1.191497
1.229644
1.239777
1.106858
1.177788
1.280904
1.363754
1.238585
1.484752
1.310706
1.364946
1.371503
1.439452
1.335740
1.435876
1.300573
1.478791
1.441836
1.479983
1.451969
1.553893
1.489520
1.492500
1.524687
1.549721
1.401901
1.661777
1.808405
1.857877
1.754761
1.865625
1.921654
2.059937
2.034903
1.991987
2.085567
2.247691
2.312660
2.622604
2.786517
2.972484
3.381968
3.654957
4.301667
4.643798
5.288720
5.611777
7.084608
17.947555
106.106997
280.267000
719.871521
1015.805006
1015.805006
1015.805006
1015.805006
1015.805006
1015.805006
1015.805006
1015.805006
1015.805006
976.894498
579.379797
234.048963
90.426803
21.820664
13.170838
12.359619
12.181997
12.305975
##ZVALUE=390
0.934601
0.940561
0.959635
0.899434
0.811815
0.855923
0.837445
1.013875
0.904799
0.949502
0.891685
0.938773
1.005530
0.934601
0.976920
1.003742
0.988841
0.924468
1.071692
0.892878
0.941753
0.987649
1.240969
0.936985
1.004934
1.184940
1.130700
1.077652
1.021624
1.087785
1.259446
1.154542
1.217723
1.131892
1.210570
1.193881
1.409650
1.100898
1.235604
1.146793
1.230836
1.453757
1.451969
1.169443
1.243949
1.501441
1.266599
1.317859
1.386404
1.389980
1.605749
1.471639
1.672506
1.604557
1.459718
1.618862
1.782775
1.745820
1.806617
1.741648
1.798868
2.086759
2.082586
2.280474
2.194643
2.440810
2.698898
3.196597
3.456473
3.829598
4.300475
4.352927
4.762411
5.083680
5.035996
5.822778
9.767413
54.983497
178.781748
555.502772
981.734991
1015.807986
1015.807986
1015.807986
1015.807986
1015.807986
1015.807986
1015.807986
1015.807986
1015.807986
838.950872
340.550542
151.483417
37.002563
14.868975
11.248589
##ZVALUE=395
0.837445
0.794530
0.891685
0.853539
0.837445
0.927448
0.820756
0.785589
0.702739
0.832677
0.788569
0.873804
0.780821
0.853539
0.943542
0.886917
0.876784
0.914931
0.954866
0.866652
0.993609
0.861883
0.762939
0.873804
1.023412
1.045465
0.824928
0.958443
1.115799
1.112819
0.996590
1.094937
1.287460
1.008511
1.191497
0.960827
1.228452
1.070499
1.172423
1.173615
1.182556
1.243949
1.195669
0.969768
1.269579
1.103878
1.311898
1.382828
1.313686
1.528859
1.440644
1.506805
1.481771
1.517534
1.485944
1.614690
1.754761
1.559854
1.670718
1.804829
1.797676
1.895428
1.995564
2.063513
2.262592
2.410412
2.667904
2.984405
3.279448
3.817677
3.839731
4.087687
4.381537
4.225969
4.286766
4.189610
4.615784
5.138516
6.580949
31.935573
120.007396
414.299965
784.589648
1015.805006
1015.805006
1015.805006
1015.805006
1015.805006
1015.805006
1015.805006
1015.805006
1015.805006
1008.098722
473.709702
221.170783
66.429973
##ZVALUE=400
0.840425
0.812411
0.746846
0.687838
0.715852
0.669956
0.753999
0.697970
0.772476
0.660419
0.834465
0.877976
0.783801
0.895858
0.966787
0.837445
0.722408
0.914931
0.862479
0.736713
0.684857
0.861883
0.845790
0.913739
0.841618
0.963807
1.040697
1.102686
0.935793
1.026988
0.878572
1.059771
0.964999
1.007915
1.005530
0.928640
1.151562
1.143813
1.064539
1.309514
1.109838
0.951886
1.206994
1.105666
1.191497
1.156926
1.283884
1.235604
1.479983
1.286864
1.512766
1.224875
1.444817
1.491904
1.437664
1.496673
1.672506
1.745820
1.638532
1.728535
1.839995
1.783967
1.804829
1.955628
2.000928
2.259612
2.582669
2.799630
2.907515
3.390908
3.614426
3.980994
3.785491
3.786683
3.847480
3.989935
3.979802
4.185438
4.540682
5.104542
5.639791
15.468597
61.267614
246.786475
525.347590
1015.806794
1015.806794
1015.806794
1015.806794
1015.806794
1015.806794
1015.806794
1015.806794
1015.806794
1015.806794
706.321001
##END
