##TITLE=
##FORMAT=SPECTACLE-ASCII V-1.2
##DATA TYPE=ULTRAVIOLET SPECTRUM
##SECOND TYPE=ULTRAVIOLET SPECTRUM
##DATE=09/27/17
##TIME=13:28:01
##SPECTROMETER/DATA SYSTEM=SPECTACLE
##XUNITS=NM EM
##YUNITS=ENERGY
##YFACTOR=1
##FIRSTX=220
##LASTX=410
##NPOINTS=96
##3DDATA=Equidistant
##ZUNITS=NM EX
##FIRSTZ=210
##LASTZ=400
##ZPOINTS=39
##XYDATA=(Y..Y)
##ZVALUE=210
4.334450
4.003644
4.147887
3.683567
3.738999
3.812909
3.784895
3.440976
4.126430
3.643632
3.674626
3.217459
3.630519
3.799796
3.920794
4.663467
4.028678
4.636645
4.107952
4.711747
4.961491
5.324483
5.845428
6.184578
6.271601
6.558895
6.330609
8.147955
7.839799
8.557439
8.414984
8.618832
8.971691
9.742975
9.893775
9.204745
10.178685
10.156631
10.167956
10.371804
9.447932
9.590983
10.668635
10.550618
11.249781
10.221601
10.430813
9.965897
10.724664
11.258721
10.273457
10.894537
11.145473
10.989904
11.194944
11.240840
11.277795
11.160970
11.073947
11.298656
11.836886
11.747479
11.856556
11.948943
12.520552
12.426972
14.365911
13.500452
16.248822
16.746521
19.501448
25.711656
28.991699
30.733943
34.317970
34.817457
35.113692
36.444664
33.542514
31.664968
30.446649
26.822686
23.323894
20.017624
18.188953
16.128421
13.697743
12.800694
10.443926
10.556579
10.148883
9.621978
11.003613
12.461543
11.106730
11.826754
##ZVALUE=215
15.703440
15.536547
14.648438
10.560751
8.907914
8.923411
6.700754
6.849766
7.193685
6.362796
7.421970
6.665587
6.163716
5.449653
4.860759
4.896522
4.453659
4.102588
5.171895
5.580783
5.919933
5.806684
6.049871
6.374717
6.844997
7.655621
8.776784
9.201765
9.408593
9.786487
10.683537
10.244846
10.236502
10.460615
11.585951
10.142922
11.288524
11.695623
11.876822
12.118816
11.884570
11.927485
11.479855
11.650920
12.827516
10.977983
11.929870
11.428595
12.461543
13.370514
12.556911
12.876987
12.297630
12.670755
12.623668
13.300776
13.152957
13.413429
12.186766
12.012720
12.344718
13.427734
12.707710
13.177991
13.087988
12.537837
13.779998
16.707778
16.643405
18.418431
22.614598
25.210977
28.561950
32.704473
34.735799
36.660433
37.187934
35.636425
35.818815
34.278631
27.986765
27.189851
23.652911
21.359921
19.064546
15.080571
14.405847
13.277531
10.759830
12.028813
12.401938
10.979772
10.896921
10.669827
10.937452
11.150837
##ZVALUE=220
45.096874
49.072504
55.805445
50.190687
48.053861
37.493706
29.233694
20.376444
16.052723
15.201569
15.767813
14.999509
15.732646
13.338923
11.529922
9.793639
7.159710
6.985664
5.385876
5.436540
5.174875
6.594658
6.301999
7.090569
8.305907
8.343458
8.154511
9.211898
9.998679
10.162592
11.293888
11.555552
12.931824
12.275577
12.251735
12.653470
12.803674
13.260841
13.967752
12.172461
12.885928
13.382435
13.328791
12.697577
13.458729
13.231635
13.799667
14.093518
14.329553
13.036728
14.046431
14.129877
13.750792
14.570951
12.857914
14.065504
14.747977
14.571548
13.756752
13.441443
15.351772
13.662577
14.800429
15.337467
15.117526
15.472770
16.439557
15.808940
18.589497
21.384954
24.009943
25.602579
29.939413
36.559701
38.896799
41.000843
40.232539
40.577650
37.313700
35.274625
34.320951
28.351545
26.425719
23.306608
20.372868
18.425584
15.511513
14.620423
12.957454
13.087988
13.180971
11.812449
11.892915
11.938810
11.403561
12.061000
##ZVALUE=225
70.174932
75.515509
99.739432
129.940510
140.974522
137.695670
127.949715
100.289583
76.669455
53.157806
33.849478
27.556419
28.597713
28.804541
28.427839
28.091669
23.363829
19.870996
15.114546
10.252595
9.498596
6.555915
6.446838
7.029772
8.006692
8.923411
9.557605
8.960962
11.346936
10.104775
11.876822
11.094809
12.344718
12.626648
13.114810
12.600422
14.259815
15.658736
14.497638
14.649630
14.517903
14.122725
15.685558
15.520453
14.711618
15.012622
15.432835
15.227795
16.428828
17.830729
16.984940
15.985966
16.818643
16.291738
17.462969
16.267896
16.618967
17.022491
17.217994
16.606450
17.146468
17.250776
17.896891
17.414689
17.636418
18.055439
18.814802
19.362569
20.971894
22.590756
24.923682
26.117563
29.318929
33.634901
35.560727
38.363934
36.777854
37.013888
35.753846
35.472512
31.960607
29.066801
28.416514
22.125840
20.670891
18.102527
16.678572
14.725924
14.752746
14.810562
14.915466
14.184713
14.836788
13.149977
13.204813
13.685822
##ZVALUE=230
57.777762
64.365864
105.891824
173.614621
222.752690
286.464691
307.392478
301.059484
277.927518
233.742595
157.393813
109.490752
68.050623
52.779913
50.404668
53.893924
53.810477
52.922964
46.814680
38.321614
29.356480
20.964742
14.954805
11.886954
9.053946
9.085536
9.181499
9.525418
10.473728
11.115670
11.194944
11.257529
11.543632
12.111664
12.554526
12.631416
14.606714
14.580488
15.474558
14.830828
16.628504
17.380714
18.082857
18.314719
19.193888
19.855499
19.597411
22.502542
19.314885
21.418929
21.066666
22.256970
22.464991
22.506714
21.881461
21.692514
22.940636
22.555590
23.356676
23.607612
23.866892
23.070574
23.745894
24.851561
22.496581
24.193525
25.454760
26.833415
29.329658
30.528903
32.329559
34.877658
37.648678
40.888786
41.999817
43.159723
41.359663
44.584870
39.934516
36.568642
35.698414
32.517910
28.930902
27.728677
25.665760
23.265481
22.086501
18.736720
19.825697
18.217564
16.952753
18.552542
17.023683
16.249418
15.008450
16.918778
##ZVALUE=235
20.436645
26.026964
53.506494
124.912858
210.380554
340.737700
444.727540
573.405623
620.103478
615.609884
535.665751
438.838005
288.168788
199.355483
126.446486
93.916655
79.562664
83.975792
85.139871
88.988543
80.933571
67.819953
54.661632
38.890839
31.665564
18.704534
14.594793
12.494922
10.850430
12.097955
11.928678
12.136698
13.244748
14.129877
13.749599
14.609694
16.851425
15.928745
19.164681
18.239617
19.995570
21.376610
21.677613
24.855733
24.715662
27.874708
28.174520
29.035807
28.581619
28.838515
30.058622
32.237768
30.366778
32.090545
32.053590
31.112432
31.216741
31.687617
32.038689
31.266809
31.898618
31.066537
32.510757
32.682419
32.991767
33.918619
36.255717
36.248565
35.438538
36.917925
40.599704
40.191412
45.105815
48.362613
47.038794
46.944618
45.635700
43.159723
42.694807
38.487911
39.254427
35.519600
35.443902
30.963421
28.054714
28.382540
25.349855
24.318695
24.520755
23.948550
22.453666
20.447969
21.284819
21.074414
21.925569
20.691752
##ZVALUE=240
3.690720
3.496408
12.065768
36.321878
77.538490
182.611942
301.549435
495.894551
651.881695
819.177628
880.674720
860.942006
799.143910
624.601841
477.880836
308.220983
206.662416
130.470991
105.810761
108.252764
115.202665
117.042661
116.202831
108.336806
85.513592
68.548918
51.695704
37.341714
23.484826
19.293427
14.311671
15.491843
15.936494
14.611483
15.518665
15.929937
17.901659
18.947721
20.001531
21.881461
24.280548
25.435686
26.326776
28.941631
32.201409
33.615828
36.172867
35.575628
38.741827
39.576888
40.308833
43.134689
41.299462
41.138530
42.176843
40.075779
40.911436
40.072799
39.868951
40.805936
39.692521
39.834976
40.013790
40.766001
41.554570
38.947463
40.808916
39.368868
41.392446
41.629672
43.913722
46.271682
49.367547
51.805973
55.298805
49.838424
49.811602
49.062967
45.620799
43.772459
39.275885
37.766695
37.719607
33.568740
32.118559
29.152632
28.009415
26.139617
26.578903
25.774837
22.668839
24.963617
23.223758
21.970868
23.238659
22.808909
##ZVALUE=245
2.343655
2.533793
3.250837
3.035665
5.539656
24.622679
59.611797
154.150724
269.449949
424.371958
677.568913
855.138898
1015.805006
1015.805006
999.697447
883.975625
642.811656
468.147993
331.829786
191.485882
131.991506
111.161470
120.463967
125.123858
132.422447
126.378536
116.051435
95.791817
78.398585
56.082606
42.254925
28.904676
21.703839
19.323826
17.946959
17.179847
17.621517
20.022988
20.253658
22.861958
25.958419
26.341677
29.838681
32.355785
34.510493
35.349727
36.622882
38.424730
39.832592
41.354895
42.275786
43.774843
45.819879
44.645667
46.202540
47.055483
45.978427
43.587685
42.958856
43.177605
42.347908
41.007996
41.165948
39.524436
38.347840
40.342808
40.067434
38.577914
39.438605
40.328503
41.513443
39.572716
44.819713
42.047501
46.067834
43.867826
44.169426
43.335557
40.952563
37.081838
35.847425
34.762621
32.842755
28.884411
29.876828
27.174950
25.726557
25.349855
24.846792
23.157001
22.735000
21.878481
21.893978
21.373630
20.406842
20.340681
##ZVALUE=250
2.351999
2.154708
2.263784
2.399683
2.369881
2.569556
3.068447
11.234879
33.195615
99.600554
197.805762
400.844812
587.442517
864.256024
1014.523506
1015.805006
1015.805006
1015.805006
887.609720
608.969927
418.778658
237.690806
151.071548
112.417936
109.331012
124.577880
139.376521
143.387914
137.039423
125.442743
104.691982
85.479617
61.059594
45.247674
30.862689
25.011897
19.788742
19.879937
20.543933
22.760630
25.141835
26.143789
28.369427
29.742718
34.814477
37.324429
37.310719
39.269924
40.906668
41.855574
42.894483
44.267774
45.421720
43.059587
44.331551
44.452548
44.581890
43.412447
42.353868
40.558577
38.934946
38.619637
39.459467
37.886500
35.404563
34.267902
36.411881
36.518574
34.395456
33.850670
35.182834
35.405755
35.771728
36.380887
36.573410
34.420490
35.633445
35.277605
32.364726
30.578971
27.594566
25.627613
24.957657
23.269653
22.693872
22.804737
20.578504
20.279884
19.826889
18.709898
18.433928
18.454790
18.043518
17.229915
17.696619
16.849637
##ZVALUE=255
2.015829
1.978874
2.092719
1.957417
1.939535
2.288818
1.909733
2.382994
2.801418
5.138516
22.871494
61.707497
165.800452
295.636654
532.092452
761.978626
1013.448834
1015.805006
1015.805006
1015.805006
1015.805006
832.999945
596.677661
339.954495
203.549862
116.610527
100.588799
113.441944
129.792690
143.909454
149.175525
146.772861
135.187507
108.915567
87.557435
62.460899
44.738650
30.358434
25.651455
22.635460
23.585558
23.097992
25.311708
28.233528
30.062795
31.174421
33.463836
34.406781
34.373999
37.108660
37.368536
38.476586
37.642717
39.600730
37.431717
35.983920
37.774444
37.781596
35.746694
35.089850
34.394860
32.631755
32.950640
31.229854
29.873848
28.515458
27.924776
28.250813
29.278994
28.641820
28.535724
28.605461
28.676987
29.398799
29.811859
29.181838
26.651621
27.389526
26.215911
24.160743
22.576451
21.777749
20.530820
19.553900
19.977689
17.640591
18.071532
16.098619
17.332435
16.817451
16.452670
14.689565
14.505982
15.453696
14.504790
14.564991
##ZVALUE=260
1.779795
1.708865
1.732707
1.632571
1.835823
1.924634
2.227426
1.961589
2.207756
2.499819
2.460480
3.398657
10.202527
44.177771
98.635554
245.519876
415.560603
706.927776
959.074497
1015.805006
1015.805006
1015.805006
1015.805006
1015.804410
744.510889
509.703755
281.429887
172.820687
101.008415
89.395642
105.798841
128.588676
146.409869
156.641603
151.594877
135.915875
116.518736
87.984800
69.417953
47.221780
37.481785
28.345585
24.435520
23.537874
25.067925
25.839806
27.618408
28.218627
28.632879
30.294657
30.663610
30.634999
30.386448
30.397773
30.823946
29.257536
28.582811
28.502941
28.334856
27.753711
26.478767
26.762486
25.506616
23.986697
24.559498
24.539828
23.194551
22.835732
22.287965
22.921562
22.999644
22.761822
23.889542
24.330616
23.755431
23.985505
22.811890
22.449493
21.315813
20.305514
18.752813
17.483830
17.309785
15.951991
16.317964
15.594959
15.635490
14.493465
14.463663
14.184713
14.111996
14.069676
13.476610
12.787580
13.190508
12.978911
##ZVALUE=265
1.380444
1.569986
1.531839
1.476407
1.658797
1.580715
1.541972
1.686811
2.126694
1.817942
1.907945
1.740456
2.328753
2.655983
5.389452
28.730631
72.601438
189.582705
346.692801
668.913722
966.286659
1015.635729
1015.635729
1015.635729
1015.635729
1015.635729
982.484818
711.196661
396.159887
237.455964
137.084723
83.076954
86.480975
113.013983
134.044886
155.667663
161.604881
153.047442
136.039853
113.364458
91.016889
65.184832
49.895644
35.015941
28.624535
24.295449
23.567677
22.745728
24.588704
24.954677
24.903417
25.042892
25.300980
24.544001
25.216937
23.744702
22.875667
23.095608
22.675991
21.940470
21.118522
20.095706
19.575953
20.229816
19.745827
19.065738
19.401908
19.366741
18.983483
20.057559
18.812418
19.712448
19.453764
20.786524
19.806623
19.771457
18.221736
19.029975
18.216968
17.579794
16.441941
15.298724
14.453530
14.448762
14.012456
12.984872
12.599826
12.768507
12.908578
12.447834
12.650490
12.521744
11.342764
11.248589
12.122989
12.229681
##ZVALUE=270
1.374483
1.535416
1.456738
1.739860
1.548529
1.601577
1.635551
1.820922
1.885891
1.721978
1.883507
2.076626
2.238750
2.380610
2.566576
2.854466
3.732443
13.849735
43.822527
143.874884
286.918879
459.234715
923.115015
1015.805602
1015.805602
1015.805602
1015.805602
1015.805602
1015.805602
973.876715
593.529940
365.105867
170.235634
96.686482
72.301626
86.389780
116.028786
135.795474
158.289671
162.626505
155.021548
142.176747
118.639469
95.509887
67.436695
51.388741
36.771894
29.219985
23.701787
22.100806
22.232533
21.241903
21.373630
21.503568
21.143556
20.981431
20.056963
19.278526
19.345880
19.754767
19.554496
18.434525
17.769933
17.318726
16.898513
17.681718
17.313957
16.779900
17.569661
18.158555
17.993450
18.609762
19.311905
18.681884
19.613504
18.704534
19.229650
17.244816
16.042590
15.939474
15.000701
14.102459
13.429523
13.318658
13.057590
12.981892
12.440681
12.150407
12.054443
12.210608
11.294484
11.297464
11.466742
11.256933
10.700822
11.314750
##ZVALUE=275
1.349449
1.401901
1.473427
1.599789
1.474619
1.514554
1.734495
1.536608
1.561642
1.699924
1.900792
1.819730
1.738667
2.062917
1.960993
2.434850
2.366900
2.250671
3.135800
6.243587
25.207996
122.804642
270.277858
581.957698
919.543505
1015.805006
1015.805006
1015.805006
1015.805006
1015.805006
1015.805006
1015.805006
847.431421
456.286669
263.119936
116.931796
68.614483
66.628456
85.797906
116.026998
136.590600
155.427456
161.356926
154.765844
144.006610
114.804506
94.215870
67.202449
52.176714
35.230517
27.533770
22.843480
19.582510
18.849969
18.621683
18.436909
18.500686
17.155409
17.358661
18.031597
17.625690
17.268658
17.009974
16.525984
16.777515
15.369654
16.226768
15.995502
16.460419
16.536713
17.399788
18.380880
17.913580
18.952489
18.237829
18.761754
17.435551
17.013550
16.436577
15.136600
15.018582
14.003515
13.260841
12.773871
12.556911
11.919737
11.432767
11.271834
11.498928
11.186600
10.852814
10.478497
10.369420
10.134578
9.656549
10.413527
##ZVALUE=280
1.228452
1.304746
1.274943
1.439452
1.424551
1.271963
1.721978
1.504421
1.448989
1.427531
1.736879
1.300573
1.475811
1.914501
1.838803
1.790524
1.847744
2.102852
2.379417
2.612472
2.951622
3.580451
17.430782
67.142844
237.185955
428.286791
778.510571
1015.805602
1015.805602
1015.805602
1015.805602
1015.805602
1015.805602
1015.805602
997.254848
595.795512
354.651809
154.843926
79.622865
51.671863
61.602592
86.903572
109.895468
135.538578
151.457787
158.093572
150.794983
134.879947
117.102861
87.757707
68.228841
46.297908
35.586953
24.827719
19.941926
17.073750
16.137958
16.531944
15.815496
16.618967
15.378594
15.344620
15.433431
15.641451
15.732646
15.032887
15.500784
15.067458
15.259981
15.636683
16.696453
16.479492
17.801523
17.393827
16.629696
17.012954
16.931891
16.170740
15.147924
14.327765
13.775826
13.167858
12.077689
12.340546
11.765957
11.639595
11.461973
10.622740
10.405779
10.234714
9.971857
9.633899
9.307861
8.866787
8.707643
9.420514
##ZVALUE=285
1.014471
1.089573
1.037717
1.359582
1.128912
1.316667
1.170635
1.295805
1.681447
1.405478
1.422763
1.628995
1.458526
1.391768
1.599789
1.744628
1.630783
1.534820
2.112985
1.945496
1.985431
2.402663
2.577901
2.963543
8.433461
28.995872
108.245611
225.625634
496.211648
799.494982
1015.805006
1015.805006
1015.805006
1015.805006
1015.805006
1015.805006
1015.805006
808.905959
506.659746
236.696005
119.133592
50.579906
41.794777
58.861971
78.731775
108.529925
128.976703
146.433711
152.284503
147.233605
136.714578
111.289620
92.264414
65.622926
48.031807
30.653477
23.287535
17.600656
15.408993
14.454722
13.551712
13.872981
14.103651
13.085604
13.982654
13.622642
13.351440
14.107823
14.261603
14.210939
14.575720
14.936924
15.225410
15.226603
14.976859
14.930964
14.895797
13.882518
13.528466
12.903810
12.724996
12.472868
11.188984
11.037588
10.784864
10.166764
9.948611
10.387897
9.657741
9.353757
9.234548
9.479523
9.149909
8.950830
8.350611
8.598566
##ZVALUE=290
1.132488
1.120567
1.269579
1.098514
1.167655
1.109838
1.190901
1.272559
1.195669
1.212955
1.394749
1.319647
1.615882
1.293421
1.361966
1.455545
1.612902
1.628995
1.643896
1.719594
1.718998
2.106428
2.268553
2.383590
2.711415
2.929568
3.646612
11.832714
57.005882
131.535530
258.251429
580.373406
922.502875
1015.805006
1015.805006
1015.805006
1015.805006
1015.805006
1015.805006
990.732908
675.240755
338.258743
173.084736
62.206984
35.363436
39.116740
52.418709
75.851679
97.826719
122.338533
138.345957
145.366788
143.342614
128.550529
111.885667
84.922910
63.480735
42.005777
30.633807
21.084547
16.146898
13.707876
12.475848
12.654662
12.567639
11.983514
11.911988
12.573600
12.809634
12.693405
13.175607
13.646483
13.493896
13.449788
14.168620
13.265610
12.826920
12.194514
12.158751
11.471510
11.106730
10.367632
10.859966
9.733438
10.155439
9.436607
9.551644
9.239912
9.062886
8.881688
8.850694
8.290410
8.057952
8.685589
8.522868
7.551908
##ZVALUE=295
1.078844
1.079440
1.068711
1.112819
1.017451
0.933409
1.120567
1.113415
1.297593
1.139641
1.262426
1.289845
1.354814
1.345873
1.277924
1.461506
1.401901
1.472831
1.436472
1.396537
1.553893
1.759529
1.815557
2.109408
2.258420
2.153516
2.172589
2.576709
3.118515
5.496740
18.810630
83.674788
193.307400
472.511053
784.521699
1015.805006
1015.805006
1015.805006
1015.805006
1015.805006
1015.805006
1015.805006
876.415968
471.383929
255.595446
92.676878
42.674541
26.684999
32.072663
49.083829
67.821741
93.043447
112.182498
131.478906
138.357878
134.362578
124.258995
101.791620
83.575845
59.034824
43.946505
28.006434
19.772649
15.109777
12.682676
11.134744
10.978580
11.128783
11.161566
11.186600
11.511445
11.907816
12.108684
12.002587
11.867881
11.726618
11.190772
11.166930
10.583997
10.163784
9.893775
9.259582
9.529591
8.764863
9.372830
8.619428
8.489490
8.330941
8.572936
8.037686
8.161664
7.873774
7.844567
7.300973
7.627606
7.578731
##ZVALUE=300
0.821948
0.916719
0.884533
0.806451
1.070499
1.066923
0.908971
0.996590
1.008511
1.059771
1.069903
1.076460
1.173615
1.218915
1.076460
1.182556
1.201630
1.382828
1.435876
1.431704
1.426935
1.393557
1.628995
1.781583
1.828671
1.907945
1.997948
2.136827
2.262592
2.572536
2.951622
3.675818
8.572936
51.322579
131.493807
347.576737
611.662865
1015.805006
1015.805006
1015.805006
1015.805006
1015.805006
1015.805006
1015.805006
1015.805006
626.263022
366.062522
158.568621
72.885752
26.040673
21.341443
30.726790
41.659474
64.510703
83.542466
107.162595
122.145414
131.059885
130.439997
118.141770
102.200508
78.268647
60.431957
42.046905
30.078888
18.739700
14.485717
11.528730
10.450482
10.643601
10.407567
10.739565
10.649562
11.336803
10.863543
10.801554
10.179877
10.363460
9.782910
9.816885
9.173751
9.011626
8.803606
8.262992
8.595586
8.389950
7.836819
8.092523
7.811785
7.900000
7.534623
7.430911
7.226467
7.318854
7.054806
7.150769
##ZVALUE=305
1.012683
0.806451
0.930429
0.873804
0.943542
1.086593
1.059771
1.097918
1.017451
1.064539
1.033545
0.985861
1.118779
1.197457
1.184940
1.234412
1.105666
1.294613
1.233816
1.306534
1.371503
1.503825
1.569986
1.399517
1.583695
1.720786
1.907945
1.807809
1.919866
2.209544
2.201796
2.545714
2.943873
3.035665
5.304813
33.216476
93.927979
268.734694
497.017503
949.317813
1015.805006
1015.805006
1015.805006
1015.805006
1015.805006
1015.805006
1015.804410
838.615894
520.974994
232.621431
110.780597
35.470724
18.943548
20.426512
27.788877
44.085979
59.582591
83.206892
100.978613
116.968751
123.643875
122.684836
114.009976
95.731616
78.204870
55.186749
40.393472
27.313828
18.774867
13.577938
11.528730
10.918975
10.343790
10.610819
9.855628
9.729862
9.591579
9.338856
9.202957
9.024739
8.843541
8.457899
9.011626
8.500814
8.423924
7.885695
7.861853
7.876754
7.633567
7.603765
7.575750
7.599592
6.986856
6.931424
7.138848
7.112622
##ZVALUE=310
0.888705
0.818968
0.869632
0.797510
0.857711
0.952482
0.929832
0.941753
0.842810
0.985861
0.980496
1.056790
0.835657
1.050830
1.046658
0.964999
1.280904
1.065731
1.105666
1.204610
0.991821
1.160502
1.261830
1.294613
1.364946
1.250505
1.668930
1.741648
1.694560
1.820922
1.855493
1.928806
2.153516
2.394915
2.445579
2.987981
3.338456
13.393760
47.176480
163.040757
329.448581
695.682764
1013.678908
1015.805006
1015.805006
1015.805006
1015.805006
1015.805006
1015.805006
1015.804410
731.313825
360.069871
187.840462
63.689947
25.471449
14.857650
17.435551
26.001930
35.698414
54.672956
70.179701
93.013644
105.138421
115.985870
117.046833
106.089711
96.026659
75.408816
57.580471
39.213896
28.346777
19.624829
14.737844
11.752844
10.446906
9.563565
9.161830
8.877516
8.820891
8.718967
8.464456
8.353591
8.272529
8.139610
7.994771
7.856488
8.132458
7.842779
7.543564
7.378459
7.388592
7.379651
7.068515
7.002950
7.021427
7.141829
##ZVALUE=315
0.799894
0.925660
0.869632
0.903606
0.907779
0.751615
0.893474
0.911951
0.819564
1.063943
0.956655
0.900626
0.910759
0.910759
0.952482
1.120567
1.003742
1.120567
1.019835
1.064539
0.995994
1.110435
1.035929
1.151562
1.471639
1.387596
1.443624
1.449585
1.514554
1.506805
1.537800
1.747608
1.709461
2.061725
1.982450
2.095699
2.432466
2.910495
3.054738
6.289482
24.071932
103.998780
233.742595
538.458824
894.556642
1015.805006
1015.805006
1015.805006
1015.805006
1015.805006
1015.805006
1015.805006
947.593451
501.604676
270.502567
95.177889
36.386847
14.311671
13.188720
16.515851
22.466779
35.418868
47.370791
67.714453
83.025694
101.476908
109.191537
110.881925
104.912519
87.108612
73.302984
53.581595
40.768981
26.115775
18.912554
13.186932
10.759830
9.399652
8.854866
8.434653
8.532405
8.089542
8.223653
8.191466
7.779598
7.945895
8.140802
7.784963
7.859468
7.660985
7.345676
7.316470
7.407665
7.259846
6.884933
6.854534
##ZVALUE=320
0.799894
0.767708
0.911951
0.788569
0.835657
0.757575
0.733733
0.769496
0.913739
0.728965
0.898838
0.899434
0.746846
0.995994
1.070499
0.894666
1.004934
1.112819
0.988841
0.936985
0.946522
1.078844
1.265407
1.132488
1.155734
1.318455
1.294613
1.246929
1.290441
1.336932
1.526475
1.477599
1.547933
1.658797
1.573563
1.726747
1.829863
2.144575
2.397895
2.590418
2.925992
3.659725
14.043450
51.504970
188.491940
378.233790
775.792599
1015.805006
1015.805006
1015.805006
1015.805006
1015.805006
1015.805006
1015.805006
1015.805006
727.022886
334.068537
170.568824
58.169961
23.190975
11.859536
11.826754
15.088916
20.253658
30.907989
41.884780
61.386824
76.398849
93.213916
102.905631
103.889704
98.909736
84.605813
70.686936
52.161813
38.390756
24.758577
17.776489
12.371540
9.793639
8.728504
8.258820
8.081794
7.804632
7.746816
7.679462
7.264614
7.449985
7.715821
7.558465
7.690787
7.362962
7.152557
7.198453
7.053614
6.868839
##ZVALUE=325
0.702739
0.716448
0.629425
0.710487
0.746846
0.826716
0.904799
0.726581
0.860691
0.746846
0.819564
0.786781
0.923872
0.776649
0.990629
0.677705
0.990629
0.900626
0.967979
1.025796
1.122952
0.898838
0.914931
0.906587
1.050830
1.137853
1.174808
1.219511
1.214743
1.312494
1.163483
1.316667
1.234412
1.422763
1.515746
1.670718
1.728535
1.707673
1.802444
1.997948
2.292991
2.353787
2.691746
3.165603
6.978512
28.796792
116.536617
245.754719
544.268489
889.623761
1015.805006
1015.805006
1015.805006
1015.805006
1015.805006
1015.805006
1015.805006
854.021907
449.879766
245.811939
86.704493
33.896565
12.342930
10.078549
11.188984
12.734532
19.033551
27.438402
43.631792
57.641864
77.154636
87.652802
96.792579
97.787976
90.996623
79.799891
63.201785
48.877001
33.161640
23.619533
15.885830
11.714697
9.508729
8.945465
8.076429
7.651448
7.957816
7.770658
7.405877
7.365942
7.184744
6.990433
7.064939
7.032752
7.050633
6.846786
##ZVALUE=330
0.823736
0.779629
0.711679
0.792742
0.524521
0.765920
0.640750
0.659823
0.806451
0.914931
0.694990
0.832677
1.005530
0.869632
0.736713
0.854731
0.770688
0.741482
0.957847
0.978708
0.918508
0.968575
0.976920
0.961423
0.959635
0.961423
1.097918
1.104474
1.147985
1.095533
1.118779
1.267791
1.238585
1.299977
1.416802
1.434684
1.534820
1.588464
1.703501
1.767874
1.651645
1.923442
2.195835
2.251863
2.361536
2.929568
3.966689
12.723804
72.498918
176.843405
431.898832
717.943907
1015.805006
1015.805006
1015.805006
1015.805006
1015.805006
1015.805006
1015.805006
1015.805006
608.356595
346.683860
136.930943
56.242943
15.930533
10.097623
9.399652
10.224581
13.454556
18.447638
29.195547
39.226413
55.239797
69.777966
83.576441
90.113878
90.167522
86.003542
72.523952
60.142875
42.969584
32.459497
22.488832
15.984774
11.795759
9.659529
8.087754
7.630587
7.392764
7.040501
7.247925
7.118583
6.890893
6.777644
6.992817
7.046461
##ZVALUE=335
0.682473
0.736713
0.824928
0.884533
0.828505
0.561476
0.681877
0.851750
0.739694
0.716448
0.835657
0.737906
0.875592
0.741482
0.897646
0.936985
0.730753
0.722408
0.677705
0.822544
0.915527
0.839829
0.951886
0.947714
0.944734
1.005530
1.074672
0.903606
1.024604
1.066923
1.158714
1.082420
1.243949
1.264811
1.222491
1.264811
1.267791
1.434684
1.629591
1.445413
1.720786
1.587868
1.592636
1.980662
1.945496
2.053976
2.577901
2.709627
2.947450
7.669926
29.169917
119.555593
255.738497
575.887561
929.879546
1015.808582
1015.808582
1015.808582
1015.808582
1015.808582
1015.808582
1015.808582
849.630833
440.666676
231.648684
79.024434
29.153824
10.818839
9.375811
9.393692
10.462999
13.321638
17.884970
26.872754
37.244558
52.787662
65.039992
78.019500
83.514452
84.054470
79.333782
67.435503
56.533813
42.314529
32.455921
22.322536
16.414523
11.609793
9.543896
7.900000
7.293820
6.716847
6.716847
6.592870
6.418824
6.603599
##ZVALUE=340
0.719428
0.729561
0.754595
0.707507
0.673532
0.807643
0.581741
0.567436
0.687838
0.698566
0.726581
0.801682
0.782609
0.719428
0.654459
0.637770
0.860691
0.629425
0.812411
0.816584
0.854731
0.870824
0.801682
0.767708
0.930429
0.970960
0.972748
1.027584
1.004934
0.948906
0.944734
1.064539
1.125932
0.951886
1.070499
1.104474
1.401901
1.263618
1.290441
1.397729
1.423955
1.655817
1.548529
1.598597
1.680851
1.897812
2.015829
2.078414
2.333522
2.554655
2.897978
4.348755
13.204813
71.819425
178.287625
456.059575
789.690018
1015.800834
1015.800834
1015.800834
1015.800834
1015.800834
1015.800834
1015.800834
991.782546
547.446609
302.791595
117.592812
43.126941
12.778640
9.571910
9.298921
9.273887
10.479689
12.232661
17.489791
24.037957
36.215782
47.487617
62.359571
71.577430
78.285933
78.770518
73.531866
66.791773
53.464770
42.392612
30.444860
22.613406
15.704632
11.702776
8.782744
7.194877
6.837845
6.682873
6.498694
##ZVALUE=345
0.720620
0.795722
0.822544
0.779629
0.757575
0.796914
0.699759
0.825524
0.685453
0.772476
0.831485
0.766516
0.761747
0.762939
0.857711
0.869632
0.871420
0.879765
0.848770
0.888705
0.983477
0.842810
0.982881
0.787973
0.889897
1.060963
1.001954
0.960827
1.045465
0.855923
0.926852
0.837445
1.164675
0.976920
1.072884
1.199841
1.224875
1.323819
1.235604
1.436472
1.257658
1.211762
1.468658
1.489520
1.415610
1.545548
1.679659
1.756549
1.909733
2.101660
2.297759
2.458692
2.797842
3.143549
7.324815
30.118823
129.784942
273.195505
588.957667
922.631621
1015.902758
1015.902758
1015.902758
1015.902758
1015.902758
1015.902758
1015.902758
777.713060
356.221795
174.560547
53.977966
21.052957
10.186434
9.125471
8.436441
8.456707
9.189844
10.768771
15.279651
21.626949
33.435822
42.807460
55.656433
63.929558
72.347522
73.320866
70.451498
63.220859
51.666498
41.814446
30.175447
22.301674
15.002489
11.603832
8.369684
7.545948
##ZVALUE=350
0.663996
0.743866
0.768900
0.663996
0.696778
0.721812
0.650883
0.638962
0.618696
0.619888
0.590682
0.750422
0.808835
0.691414
0.628829
0.620484
0.825524
0.783801
0.712872
0.763535
0.821948
0.650883
0.675917
0.721812
0.728965
1.012683
0.943542
0.842810
0.962615
0.941753
1.124740
1.028776
0.976920
1.045465
0.967979
0.947714
0.948906
1.197457
1.049638
1.138449
1.097918
1.063943
1.141429
1.287460
1.304746
1.319647
1.557469
1.477599
1.567602
1.655817
1.639724
1.785755
1.968741
2.200603
2.381802
2.792478
4.350543
14.949441
72.925687
172.666907
425.345898
718.832612
1015.805006
1015.805006
1015.805006
1015.805006
1015.805006
1015.805006
1015.804410
900.114775
460.824966
252.996683
94.782710
34.409761
10.931492
8.498430
7.739663
7.527471
7.491708
7.885695
10.332465
13.437867
20.118952
26.721954
38.163662
47.488809
58.534741
64.018965
66.810846
64.775944
57.842731
49.736500
38.160682
29.836893
20.483732
15.475750
##ZVALUE=355
0.699759
0.734925
0.764728
0.723600
0.849962
0.657439
0.778437
0.603795
0.653863
0.838637
0.726581
0.700951
0.878572
0.580549
0.690818
0.783801
0.687838
0.599623
0.708699
0.777841
0.731945
0.852942
0.778437
0.913739
0.827909
0.873804
0.901818
0.868440
0.953674
0.931621
0.970960
0.797510
0.845790
0.834465
0.994802
0.838637
1.035929
0.997782
1.012683
1.239777
1.101494
1.001954
1.192689
1.098514
1.082420
1.280904
1.368523
1.350641
1.440644
1.460910
1.501441
1.746416
1.707673
1.997948
1.948476
2.035499
2.368689
2.746582
2.960563
8.949637
33.329725
135.208368
281.321406
594.238639
951.704979
1015.805006
1015.805006
1015.805006
1015.805006
1015.805006
1015.805006
994.367599
665.592551
304.106474
144.274831
41.253567
14.491677
8.251667
7.836819
6.885529
6.913543
6.889701
7.334948
9.216666
11.518598
17.639995
23.761988
33.956766
42.444468
52.370429
56.813955
60.592890
59.570670
53.640604
46.069622
36.327839
##ZVALUE=360
0.575781
0.639558
0.811815
0.592470
0.599623
0.745654
0.682473
0.769496
0.709891
0.581741
0.817776
0.658631
0.720620
0.781417
0.612736
0.785589
0.860691
0.613928
0.770688
0.741482
0.834465
0.646710
0.880957
0.681877
0.904799
0.872612
0.823736
0.887513
0.920892
0.878572
0.872612
0.905991
0.924468
0.968575
1.000762
0.959635
1.092553
1.047850
1.059771
1.030564
0.995994
1.185536
1.091957
1.210570
1.292825
1.211762
1.321435
1.303554
1.280904
1.547933
1.403689
1.512766
1.733899
1.658797
1.860857
1.736879
2.072453
2.048612
2.306700
2.452731
2.959967
3.655553
17.885566
60.458779
199.381709
384.164453
758.075714
1015.805602
1015.805602
1015.805602
1015.805602
1015.805602
1015.805602
1015.805602
746.620893
454.930663
194.829702
83.495975
21.510720
9.498596
7.478595
7.271767
6.826520
6.445646
6.261468
6.743670
8.038878
9.590983
14.292598
19.495487
28.361678
35.359859
44.955611
50.537586
54.484606
55.304766
##ZVALUE=365
0.651479
0.652671
0.593662
0.764728
0.765920
0.623465
0.704527
0.613928
0.686646
0.685453
0.593662
0.835657
0.775456
0.741482
0.731945
0.787973
0.759959
0.684857
0.850558
0.711679
0.802875
0.911951
0.583529
0.818968
0.782609
0.743866
0.756979
0.763535
0.873804
0.768900
0.969768
0.799894
0.997782
1.076460
1.005530
0.919700
1.009703
1.030564
1.018643
1.174808
0.956655
1.047850
1.014471
1.063943
1.228452
1.135468
1.185536
1.203418
1.284480
1.292825
1.407862
1.590848
1.577735
1.542568
1.742840
1.622438
1.709461
2.006888
2.011657
2.049804
2.513528
2.656579
2.749562
3.538728
6.716847
37.968755
102.664828
272.806883
509.665012
958.573818
1015.805006
1015.805006
1015.805006
1015.805006
1015.805006
1015.805006
962.140560
542.521477
296.830535
104.144812
38.404465
10.678768
7.443428
6.858706
6.515980
6.041527
6.108880
5.561709
5.727410
6.268620
8.406639
11.833906
16.020536
24.135709
30.515790
39.457679
##ZVALUE=370
0.672936
0.547767
0.773668
0.681877
0.770688
0.621676
0.727773
0.674725
0.469685
0.722408
0.768900
0.728965
0.696778
0.788569
0.705719
0.860691
0.753999
0.757575
0.695586
0.844598
0.666976
0.583529
0.621676
0.919700
0.848770
0.794530
0.804663
0.940561
0.871420
0.651479
0.795722
0.765920
0.940561
0.869632
1.079440
0.917912
0.760555
1.112819
0.840425
0.947714
1.043677
1.044869
1.113415
1.108646
1.119971
0.959635
1.147985
1.158714
1.164675
1.094937
1.145601
1.149774
1.401901
1.228452
1.337528
1.508594
1.468658
1.522899
1.729727
1.747608
1.879930
2.075434
2.051592
2.453923
2.552867
2.951622
3.800988
17.685890
60.443878
200.299621
394.056439
799.063444
1015.805006
1015.805006
1015.805006
1015.805006
1015.805006
1015.805006
1015.804410
664.546490
380.691886
148.768425
65.996647
19.625425
8.624792
6.304979
6.005764
5.659461
5.367994
5.386472
5.157590
5.311966
5.807877
7.726550
9.991527
14.595985
##ZVALUE=375
0.562668
0.677705
0.692606
0.610948
0.605583
0.482798
0.431538
0.657439
0.605583
0.594854
0.675917
0.645518
0.703931
0.694990
0.662804
0.706911
0.835657
0.752807
0.608563
0.767708
0.840425
0.562668
0.703931
0.873804
0.769496
0.702739
0.785589
0.733733
0.834465
0.804663
0.853539
0.799894
0.807643
0.813603
0.773668
0.991821
0.958443
0.859499
0.998974
1.115799
0.890493
0.945926
1.042485
0.996590
1.073480
1.022816
1.077652
1.017451
0.833869
0.970960
1.037717
1.131892
1.208782
1.135468
1.236796
1.234412
1.304746
1.433492
1.498461
1.482964
1.648664
1.566410
1.535416
1.824498
1.794696
2.215505
2.371669
2.545714
3.345609
7.738471
42.972565
113.023520
302.418470
555.782914
993.412733
1015.805006
1015.805006
1015.805006
1015.805006
1015.805006
1015.805006
911.362767
515.933633
295.238495
117.255449
47.437549
11.574626
6.491542
5.769730
5.587935
5.092621
4.815459
4.879832
4.746914
4.698634
5.014539
##ZVALUE=380
0.586510
0.795722
0.691414
0.619888
0.555515
0.636578
0.638962
0.607967
0.637770
0.693798
0.625849
0.528693
0.615716
0.434518
0.637770
0.596642
0.695586
0.578761
0.694990
0.679493
0.654459
0.722408
0.842810
0.689626
0.908971
0.923872
0.666976
0.678897
0.747442
0.933409
0.686646
0.670552
0.663996
0.751615
0.803471
0.786781
0.813603
0.632405
0.771880
0.807643
0.777841
0.895858
0.799894
0.832677
0.785589
0.967979
0.759959
0.889897
0.958443
1.049638
0.956655
0.909567
0.958443
0.985861
1.007915
1.138449
1.048446
1.134872
1.373887
1.277924
1.189709
1.290441
1.386404
1.309514
1.696944
1.724958
1.829863
1.997948
2.365708
2.600551
3.102422
4.452467
21.440983
70.085526
220.468640
416.788459
819.394588
1015.805006
1015.805006
1015.805006
1015.805006
1015.805006
1015.805006
1015.805006
653.625727
385.517478
162.872672
72.723627
17.932653
7.237792
5.450845
5.084872
4.770756
4.393458
4.379749
4.239678
##ZVALUE=385
0.612736
0.597835
0.497699
0.657439
0.595450
0.446439
0.571609
0.565648
0.538826
0.646710
0.612736
0.561476
0.695586
0.435710
0.606775
0.599623
0.731945
0.630617
0.710487
0.648499
0.662804
0.413656
0.663996
0.603795
0.524521
0.630617
0.504851
0.534654
0.752807
0.681877
0.688434
0.799894
0.853539
0.767708
0.714660
0.571609
0.762939
0.737906
0.845790
0.828505
0.747442
0.847578
0.956655
0.763535
0.771880
0.793934
0.853539
0.797510
0.833869
1.002550
0.843406
0.736713
0.957847
0.996590
1.046658
1.018643
1.027584
1.035929
1.200438
1.147985
1.180768
1.144409
1.321435
1.376867
1.522899
1.556873
1.506805
1.763701
1.783967
2.205968
2.344847
2.620816
2.827644
3.156662
9.493828
34.752488
138.104558
301.086903
659.050941
986.848474
1015.805006
1015.805006
1015.805006
1015.805006
1015.805006
1015.805006
853.050947
545.215011
248.977542
122.722983
38.230419
12.212992
5.508661
4.817843
4.460812
4.580617
##ZVALUE=390
0.507832
0.514984
0.513792
0.607967
0.550747
0.830889
0.692606
0.587702
0.635982
0.523925
0.554919
0.615716
0.554919
0.467896
0.507832
0.573993
0.570416
0.530481
0.571609
0.546575
0.541806
0.678897
0.601411
0.617504
0.761747
0.556707
0.632405
0.794530
0.695586
0.620484
0.803471
0.770688
0.624657
0.753999
0.684857
0.799894
0.646710
0.743866
0.663996
0.796914
0.689626
0.747442
0.810623
0.803471
0.808835
0.869632
0.817776
1.028776
0.941753
0.800490
0.826716
1.019835
0.984669
0.991821
0.811815
1.021624
1.073480
1.025796
1.029968
1.006722
1.176596
1.125932
0.968575
1.122952
1.243949
1.449585
1.463890
1.543760
1.909733
1.782775
2.195835
2.072453
2.548695
2.455711
2.442598
2.735853
4.805923
19.088984
94.348788
228.612423
538.477898
866.412520
1015.805602
1015.805602
1015.805602
1015.805602
1015.805602
1015.805602
1015.805602
763.739944
377.301574
187.587738
61.325431
20.988584
6.283522
5.215406
##ZVALUE=395
0.438690
0.558496
0.584722
0.563860
0.523925
0.564456
0.509620
0.566840
0.694990
0.600815
0.579953
0.478625
0.518560
0.565648
0.595450
0.570416
0.638962
0.541806
0.750422
0.464916
0.484586
0.606775
0.475645
0.538826
0.567436
0.580549
0.747442
0.791550
0.674725
0.634789
0.805855
0.734925
0.669956
0.677705
0.623465
0.587702
0.636578
0.675917
0.807643
0.788569
0.635982
0.649691
0.619888
0.925660
0.732541
0.799894
0.676513
0.861883
0.886917
0.863671
0.974536
0.842810
0.811815
0.942945
0.942945
0.980496
0.912547
1.047850
0.884533
1.022816
1.044869
1.099706
1.121759
1.279712
1.140833
1.201630
1.414418
1.385808
1.555681
1.843572
2.071857
2.318621
2.311468
2.427697
2.046824
2.214909
2.334714
2.544522
3.448725
10.338426
61.118007
153.837800
381.032825
663.299561
1015.805006
1015.805006
1015.805006
1015.805006
1015.805006
1015.805006
1015.805006
957.787037
500.576496
264.188647
94.049573
38.149953
##ZVALUE=400
0.472665
0.537634
0.507832
0.719428
0.617504
0.445843
0.521541
0.495911
0.490546
0.554919
0.504851
0.691414
0.449419
0.606775
0.549555
0.673532
0.619888
0.516772
0.521541
0.460744
0.539422
0.412464
0.560880
0.605583
0.721812
0.655651
0.697970
0.694990
0.704527
0.642538
0.647902
0.711679
0.469685
0.626445
0.727773
0.636578
0.614524
0.591874
0.503659
0.640750
0.721812
0.795722
0.809431
0.807643
0.788569
0.771880
0.864863
0.741482
0.840425
0.699759
0.866652
0.754595
1.000762
0.874996
0.817776
0.759959
0.840425
0.964999
0.879765
0.993609
0.938773
1.029968
1.044869
1.121759
1.064539
1.222491
1.335740
1.419783
1.638532
1.712441
1.893640
1.951456
1.819730
1.929998
1.985431
1.850724
1.870990
2.112985
2.250671
2.570748
2.623796
6.988645
26.860833
111.157894
240.782499
537.944436
863.317847
1015.805006
1015.805006
1015.805006
1015.805006
1015.805006
1015.805006
1005.833745
702.366829
354.676843
##END
