##TITLE=
##FORMAT=SPECTACLE-ASCII V-1.2
##DATA TYPE=ULTRAVIOLET SPECTRUM
##SECOND TYPE=ULTRAVIOLET SPECTRUM
##DATE=09/27/17
##TIME=12:00:24
##SPECTROMETER/DATA SYSTEM=SPECTACLE
##XUNITS=NM EM
##YUNITS=ENERGY
##YFACTOR=1
##FIRSTX=220
##LASTX=410
##NPOINTS=96
##3DDATA=Equidistant
##ZUNITS=NM EX
##FIRSTZ=210
##LASTZ=400
##ZPOINTS=39
##XYDATA=(Y..Y)
##ZVALUE=210
5.206466
6.094575
4.585981
5.175471
4.640818
4.636645
4.994869
5.603433
4.967451
4.022717
4.737973
4.721880
5.106926
4.878640
5.719662
4.962683
6.254911
6.417632
6.021857
6.124973
6.889701
7.700920
7.995963
8.227825
8.546710
7.780790
9.928942
9.088516
10.657907
9.748936
11.556745
10.975599
10.682940
12.736917
12.114644
11.887550
12.194514
11.981726
13.337731
11.729598
13.187528
13.557673
13.051629
12.147427
13.452768
12.325644
14.006495
14.074445
13.916492
14.210939
13.594627
15.040636
14.497638
15.863776
14.922619
15.874505
15.979409
17.099977
15.874505
16.407967
15.727878
16.215444
16.280413
16.951561
16.152859
16.723871
17.737746
18.700957
21.374822
25.021434
28.162599
35.540462
39.555430
44.825673
50.086975
51.870942
55.789948
57.365894
55.713654
55.209994
48.561692
46.383739
41.379929
35.578609
29.275417
24.327636
21.416545
17.973781
16.280413
14.887452
15.359521
15.079975
15.633702
15.471578
13.941526
14.301538
##ZVALUE=215
16.971827
18.100739
18.416643
12.881756
10.020733
7.952452
7.123947
7.935762
7.547736
8.678436
7.949471
8.060932
6.776452
6.875992
4.968643
5.279779
5.763769
5.428791
6.330609
7.384419
6.595850
7.123947
6.965995
7.369518
7.713437
8.345842
8.972883
9.863973
9.486675
10.946989
10.879636
11.175871
10.953546
12.822747
11.978745
12.002587
12.370944
12.926459
13.922453
13.915896
13.554692
13.490915
13.391972
12.621880
13.442636
14.208555
13.452768
14.792681
14.228821
14.333725
13.373494
14.911890
13.166666
15.177727
14.550686
14.321804
13.521910
14.383793
15.021563
15.551448
15.333891
15.465617
14.809966
15.764832
14.093518
15.647411
17.445683
18.184781
19.676685
23.212433
23.661852
29.352903
33.611655
38.905740
41.542649
43.246746
47.303438
42.614937
45.700669
43.325424
39.520860
37.874579
32.297969
26.578903
24.587512
22.019744
18.970966
15.864968
15.039444
13.468862
14.212728
14.889836
12.755990
13.249516
12.206435
11.790991
##ZVALUE=220
54.994822
54.021478
58.202744
56.925416
50.670505
40.306449
31.126738
21.952987
17.377734
14.760494
14.326572
15.714765
14.743805
14.007688
11.420846
11.040568
9.116530
7.399917
6.923676
5.983710
6.752610
7.272959
6.776452
7.946491
7.856488
8.563995
8.811951
9.807944
11.448860
11.236668
11.665821
12.396574
13.072491
13.535619
13.588667
13.878942
15.252829
13.682842
13.189912
13.499856
15.592575
14.138818
14.612675
16.217828
14.761686
15.170574
14.650822
13.729930
15.203953
16.140938
15.812516
16.362667
15.822649
15.598536
16.191602
16.058683
16.222596
16.639829
15.146732
16.146898
16.734600
17.090440
17.135739
17.721653
17.663836
17.198920
17.691851
16.487837
19.585490
22.239685
23.702979
28.014779
30.612946
34.840703
39.843917
38.745999
42.086840
40.246844
39.139986
39.411783
36.382675
32.034516
30.047894
26.772618
23.804903
21.226406
18.610954
15.830994
14.953613
13.442636
13.124943
13.174415
12.579560
13.721585
12.670755
11.986494
##ZVALUE=225
86.768866
91.895461
117.128491
144.045949
151.187778
144.004822
130.013824
99.472404
72.009563
53.543448
34.336448
29.503703
29.121637
28.992891
29.908419
26.815534
21.865964
20.723939
14.956594
11.011958
9.645820
8.313656
7.761717
7.749796
8.323789
9.060502
9.618998
11.119843
10.789633
11.081696
11.352897
12.968779
13.539791
14.084578
13.995767
14.878511
16.132593
15.285611
15.589595
16.864538
16.806722
16.380548
15.360713
16.007423
17.019510
16.110539
17.897487
16.479492
17.855763
18.095970
17.881989
18.420815
18.469691
18.837452
19.284487
20.066500
19.053817
18.071532
20.611882
19.907951
19.875765
19.909739
19.492507
18.779635
20.508766
21.830797
22.390485
20.958781
23.304820
24.025440
26.308894
29.256940
31.931996
32.494664
34.868717
37.373900
36.196709
36.927462
35.809875
33.505559
31.223893
29.117465
26.542544
24.279952
21.564960
20.025969
17.686486
17.767549
15.899539
15.526414
15.256405
15.893579
15.608668
14.980435
14.325976
14.530420
##ZVALUE=230
69.959760
82.554817
122.104883
196.980834
248.311758
301.202536
332.328677
320.890546
288.890004
238.617659
159.116983
109.483600
66.185594
54.441690
51.764846
52.087903
52.218437
51.604509
45.581460
37.764907
29.849410
21.611452
16.817451
10.690689
9.706616
9.313822
9.296536
10.049939
10.389686
11.210442
11.062622
13.501644
11.929870
13.495684
14.184713
14.676452
14.651418
14.270544
16.534925
16.363859
16.381741
18.519759
18.623471
19.335747
19.273758
19.394755
20.375848
20.383596
19.966960
20.759702
22.206903
22.487640
23.234487
24.898648
23.380518
23.443699
24.464726
24.883747
25.591850
26.831627
26.457906
26.731491
26.442409
26.460886
25.759935
27.498603
26.696920
27.446747
29.414892
32.891631
33.122897
34.997463
37.729740
40.144920
40.520430
41.205883
41.652918
40.633678
38.919449
37.595630
35.483837
31.245947
29.497743
27.148724
25.678873
24.213791
22.110939
21.500587
20.745993
21.630526
20.161867
18.767715
19.936562
19.168854
19.709468
17.116666
##ZVALUE=235
28.017759
33.589602
64.125657
138.410926
266.838670
326.977968
461.164713
534.479618
590.956807
583.669543
535.319448
427.393913
291.056633
202.695727
129.736662
92.626810
77.172518
84.756613
85.272789
86.462498
70.598722
67.908764
49.200654
38.724542
26.858449
14.934540
13.692975
11.120439
10.631680
11.115670
11.651516
12.004972
12.113452
11.845827
13.794899
15.545487
16.210675
15.544891
16.462803
16.283989
19.609928
19.971728
19.447803
22.383928
23.449659
23.370981
24.196506
25.830865
27.892590
28.072596
27.743578
32.499433
31.983852
28.946996
32.896996
34.521818
34.112930
33.635497
32.260418
35.496950
35.040975
32.855868
34.974813
36.502481
37.900805
36.968589
35.480857
34.928918
37.524700
38.010478
41.360855
43.452978
45.940876
46.497583
47.507882
44.958591
45.580864
46.981573
44.318438
42.170882
40.098429
37.142634
36.436915
35.991669
30.553937
30.765533
29.194951
26.236773
23.770928
29.918551
25.711656
25.593638
25.422573
23.873448
24.083853
23.276806
##ZVALUE=240
3.523827
4.142523
13.201833
35.189986
73.768497
156.278610
262.629986
443.877578
590.701699
761.045814
860.505700
866.299868
801.260471
644.052625
498.683453
320.599675
215.008855
134.445429
105.062723
104.285479
112.086535
119.065642
113.364458
105.120540
84.664822
66.019893
50.204992
34.447908
24.930835
18.688440
16.091466
14.941692
12.983680
13.983846
15.074611
14.882684
15.340447
17.609596
19.745827
20.534992
20.429492
23.322701
24.868846
26.421547
28.372407
30.706525
30.707717
30.714869
35.388470
36.076903
36.951900
37.139654
38.579702
39.744973
40.330887
41.310787
40.902495
43.162704
42.663813
42.769909
43.670535
44.755936
41.986704
43.337941
44.645667
42.631626
45.344830
42.161942
44.586658
45.028925
51.234961
49.044490
50.198436
52.422881
52.866936
51.152706
54.054856
50.778985
49.748421
45.245886
43.455958
44.789910
39.716959
36.435723
38.194656
35.327673
34.476519
32.576919
32.517910
30.392408
30.381680
29.409528
27.744770
29.976964
26.108623
26.223660
##ZVALUE=245
3.316998
2.978444
2.826452
3.373623
7.422566
27.053952
59.987903
149.271488
266.484618
415.165424
655.366778
840.483904
999.830961
1015.805006
996.079445
872.538686
650.692582
482.097864
334.669948
189.023614
126.932859
106.303692
111.056566
129.333735
133.701563
124.964714
114.410520
94.895959
76.304674
53.269863
39.814711
27.158856
20.670891
16.975999
15.147924
15.161633
17.720461
18.342733
19.533634
20.785928
23.008585
25.343895
26.022792
29.131770
30.385852
32.714605
33.447742
33.738613
35.815835
40.328503
39.919615
40.755868
41.145682
41.895509
42.361617
43.484569
44.583678
43.253899
43.712854
42.943954
44.527650
43.562651
40.750504
41.853786
41.545630
41.152835
39.892793
41.571856
44.445992
42.566657
45.830607
43.726563
47.179461
44.488907
45.242906
47.033429
49.005747
44.756532
41.867495
40.717721
39.374828
38.603544
37.863851
34.790635
32.981634
32.670498
32.076836
30.685663
29.994845
27.629733
27.694702
27.059913
26.927590
25.527477
25.787950
24.980903
##ZVALUE=250
2.554655
2.472997
2.763867
2.917647
2.949834
3.172755
5.302429
12.478828
50.966740
111.445785
255.816579
422.470570
616.472960
878.701806
1015.805006
1015.805006
1015.805006
1015.805006
883.826017
603.966713
416.576862
260.492563
146.771669
111.912489
108.222961
119.550824
137.224793
141.064525
140.299797
122.341514
108.652711
85.548759
62.960982
39.989948
29.474497
21.236539
18.425584
17.255545
18.255711
20.731688
22.204518
22.962689
26.376843
27.448535
28.445721
31.366944
33.087730
33.583641
36.873817
36.082864
38.231611
37.958622
38.663745
39.363503
40.424466
41.042566
40.019751
41.302443
40.522814
39.257407
39.469600
40.058494
39.299726
37.475824
36.434531
36.546588
37.205815
36.547780
37.761927
36.234856
37.294626
38.291812
37.305951
39.195418
40.778518
38.122535
37.406683
38.004518
35.629869
33.885837
32.487512
31.819940
31.521916
30.441880
29.475689
28.967857
26.767850
26.193857
24.866462
24.781823
23.877621
23.575425
23.686886
23.879409
23.160577
22.091866
##ZVALUE=255
2.456903
2.244711
2.265573
2.629757
2.589822
2.488494
2.987981
3.072619
3.600717
7.166862
36.229491
84.317923
168.540478
362.660885
558.382869
873.736739
1015.808582
1015.808582
1015.808582
1015.808582
1015.808582
878.359675
552.075505
347.490907
179.407001
122.166872
99.890828
106.718540
129.001737
142.758489
148.015618
147.969723
132.110715
106.740594
86.204410
62.652826
45.184493
31.350851
24.758577
21.193624
22.005439
22.607446
23.998618
25.325418
25.698543
28.218627
30.327439
32.424927
32.377839
33.607483
32.427907
34.000874
34.017563
34.869909
35.152435
36.663413
35.494566
35.640597
35.593510
33.778548
33.242702
32.974482
32.007694
32.575727
32.385588
32.643676
31.321645
30.534863
29.973984
31.456947
32.064915
32.291412
33.276677
33.312440
33.427477
31.774640
31.376481
30.376911
30.567646
29.340982
27.887821
27.396679
25.038719
24.601817
24.248958
23.837686
22.224784
21.863580
22.608638
22.025704
21.538734
21.182895
20.986795
20.731688
19.798875
20.349622
##ZVALUE=260
2.338886
2.338886
2.246499
2.266765
2.275705
2.443790
2.597570
2.532601
2.637506
2.839565
3.279448
4.055500
12.899637
56.045651
121.222734
292.081833
480.005741
788.030624
1008.981466
1015.818715
1015.818715
1015.818715
1015.818715
1015.818715
733.508468
499.381423
277.167559
168.153644
99.960566
90.182424
105.642676
129.002929
143.095851
155.513883
150.595903
134.332776
118.222833
86.959600
68.740845
48.058629
35.903454
28.087497
25.331974
23.354888
23.728609
24.890900
25.467873
26.776791
27.491450
29.793978
29.889941
29.396415
29.557943
30.365586
30.309558
30.595660
29.539466
31.439662
29.647946
29.624701
29.722452
28.373599
27.952790
27.898550
27.804971
26.160479
26.695728
27.496815
27.252436
27.948618
27.692914
26.711822
29.316545
28.865933
28.906465
29.430985
28.406978
26.150942
25.796890
26.055574
23.890734
23.901463
23.130774
21.987557
21.547675
21.019578
19.959807
20.883679
19.881725
19.246936
18.493533
18.438697
18.354654
18.528700
18.221736
18.689632
##ZVALUE=265
1.811981
1.929998
2.237558
1.869798
2.035499
2.308488
2.207756
1.952648
2.288818
2.596974
2.440810
2.777576
2.607703
3.593564
7.076859
37.182570
89.810491
225.920677
395.371914
736.782551
999.438763
1015.799642
1015.799642
1015.799642
1015.799642
1015.799642
973.065495
688.951015
375.469923
227.200985
181.331635
84.750652
85.925460
116.962790
135.579705
156.723857
161.916614
154.000521
137.286782
114.989877
94.131827
66.066980
50.903559
35.343766
29.319525
25.554895
23.899674
24.272799
26.316643
26.633739
25.781989
27.623773
27.232766
27.420521
27.748942
26.766658
27.273893
27.064681
26.455522
26.730895
27.447939
26.219487
26.063919
26.070476
25.246739
24.539828
25.265813
24.987459
24.549961
24.515986
25.646687
25.919676
26.074648
26.896596
25.791526
26.719570
25.305748
24.132729
24.161935
23.946762
22.422671
21.939874
21.468997
20.151734
20.725727
19.371510
19.426942
18.749833
18.342733
17.836690
18.347502
17.670989
17.753839
17.747879
17.110705
16.427636
##ZVALUE=270
1.867414
1.923442
2.036691
1.859665
1.976490
2.051592
2.113581
1.925826
1.943707
2.298951
2.419949
2.523661
2.207756
2.443790
2.813935
3.061891
4.763603
13.979673
43.035746
149.083734
299.958587
621.997714
929.393768
1015.805006
1015.805006
1015.805006
1015.805006
1015.805006
1015.805006
876.485705
597.789884
304.624438
173.711777
86.690784
72.886944
91.075897
113.901496
142.524838
156.899691
165.047646
161.615610
141.336918
122.044683
92.998743
74.197650
49.627423
39.622784
29.965639
27.040839
25.125742
25.632977
25.676489
26.027560
25.950670
25.948882
26.345849
26.376843
26.127696
26.857853
26.032925
25.874972
26.441813
25.510788
25.096536
25.588870
24.452806
25.507808
24.379492
25.915504
24.997592
25.564432
25.343895
26.436448
25.125742
25.509000
25.920868
23.863912
23.563504
22.764802
23.315549
21.832585
21.614432
21.075606
20.109415
20.024776
19.068718
18.769503
18.048882
17.777681
17.526746
17.318726
17.284751
17.030835
16.376972
15.756488
15.997887
##ZVALUE=275
1.791716
1.726747
1.598597
1.737475
1.625419
1.669526
1.709461
1.788735
1.663566
1.853704
2.065897
2.123713
2.175570
2.376437
2.436638
2.565980
2.731681
2.751946
3.415942
7.961988
30.140877
86.929798
250.224471
470.333695
871.856809
1015.864611
1015.864611
1015.864611
1015.864611
1015.864611
1015.864611
1015.864611
823.836923
442.406535
251.608491
108.809471
68.756938
67.683458
87.106824
117.858648
138.097405
156.240463
166.287422
158.416629
142.719746
117.572546
97.788572
70.283413
53.575635
39.318800
31.976700
27.602911
26.438832
25.775433
25.556684
25.494695
25.978684
25.843978
25.466681
25.820732
26.164651
26.534796
27.057528
26.794672
25.617480
26.438832
25.162697
25.872588
25.718808
25.989413
25.652647
25.776625
25.250912
26.181936
25.904775
25.964975
25.016665
25.129914
22.989511
22.778511
21.945834
21.553636
20.269752
19.698739
18.848777
19.270778
18.628836
17.583966
17.411709
16.581416
17.297864
16.620755
15.524626
15.524626
15.297532
16.117692
##ZVALUE=280
1.614690
1.351833
1.617670
1.559854
1.821518
1.578927
1.725554
1.843572
1.796484
1.474619
1.952648
1.986623
1.860857
2.041459
2.273917
2.193451
2.313852
2.600551
2.662539
2.824664
3.093481
4.719496
16.508698
75.805783
178.767443
413.133502
658.241510
1015.805006
1015.805006
1015.805006
1015.805006
1015.805006
1015.805006
1015.805006
971.788764
565.066934
333.120823
143.846869
78.285933
54.974556
64.116716
90.878606
113.598704
140.745640
154.365897
158.358812
155.945420
138.477683
121.420622
93.364716
75.022578
53.187609
41.495562
31.721592
28.688908
26.331544
24.506450
25.896430
26.232600
26.596785
26.830435
25.434494
26.731491
26.809573
26.467443
25.955439
25.433898
25.967956
26.763678
26.493669
26.503801
25.365949
26.232600
25.854707
25.808811
24.885535
24.913549
23.351908
23.939610
21.848679
20.995736
20.900965
19.989610
19.014478
18.883944
18.079877
17.767549
17.310977
17.305613
16.916990
16.746521
16.386509
15.525818
15.593767
15.053749
15.655756
##ZVALUE=285
1.361966
1.435876
1.416802
1.369715
1.648664
1.481771
1.612902
1.489520
1.549721
1.695752
1.850724
1.683831
1.745820
1.601577
1.855493
1.838803
2.182722
2.035499
2.158880
2.456903
2.327561
2.715588
2.878904
3.382564
9.365678
33.167601
114.383698
233.965516
500.393510
798.244476
1015.743017
1015.743017
1015.743017
1015.743017
1015.743017
1015.743017
1015.742421
760.509372
474.483967
225.508809
116.564631
51.647425
44.103861
60.618520
80.829859
112.063885
130.402446
149.660707
154.974461
152.435899
139.723420
117.822886
97.000599
73.060989
56.669712
40.175915
32.459497
28.435588
26.239753
26.178956
26.607513
27.144551
26.701689
26.234984
26.982427
25.744438
26.310682
25.541782
26.574731
26.570559
26.926994
26.004910
26.277900
25.938749
25.607944
25.184751
24.055839
23.657680
23.144484
21.284819
21.165609
20.406842
20.064712
19.664764
18.917918
18.287897
18.086433
17.043948
16.988516
16.828775
15.729666
16.027689
16.056895
15.305877
14.748573
14.197826
##ZVALUE=290
1.298785
1.337528
1.321435
1.377463
1.433492
1.428723
1.582503
1.501441
1.490712
1.536608
1.681447
1.649857
1.711845
1.803637
1.787543
1.665950
1.988411
1.802444
1.709461
2.046824
2.437830
2.292991
2.612472
2.654791
2.872944
3.083944
4.646778
13.310909
61.018467
147.612691
294.332504
624.536872
960.875750
1015.803814
1015.803814
1015.803814
1015.803814
1015.803814
1015.803814
963.026881
646.010637
319.426656
167.652965
64.533949
36.332607
40.268898
54.434538
79.649687
99.558830
126.200914
141.954422
151.649714
148.440599
138.462782
120.384693
93.322992
74.494481
54.321885
42.626858
33.190846
29.923916
27.302504
26.579499
26.323795
25.476813
25.643706
25.779605
26.585460
26.118755
26.523471
26.487708
25.906563
26.796460
25.002956
24.779439
24.357438
23.668408
22.272468
22.089481
21.362901
21.560788
19.908547
19.719601
19.347668
18.782616
18.099546
17.686486
17.204881
16.484857
16.252995
16.122460
15.208721
15.523434
14.586449
14.747977
14.536977
##ZVALUE=295
1.403689
1.246929
1.246929
1.404881
1.187921
1.416802
1.415610
1.364946
1.456738
1.676679
1.464486
1.487732
1.460910
1.666546
1.658797
1.665950
1.551509
1.575947
1.913905
2.013445
1.996756
2.008677
2.274513
2.310872
2.477765
2.742410
2.586842
3.045797
3.359914
6.176829
31.842589
87.444782
249.013901
467.301607
881.404877
1015.805006
1015.805006
1015.805006
1015.805006
1015.805006
1015.805006
1015.805006
771.677494
479.056835
214.133859
103.281736
38.637519
27.954578
36.856532
51.701665
77.065825
97.397566
122.202635
138.384700
148.126483
146.321654
128.734708
116.655827
92.729926
75.520873
56.002736
44.042468
34.716725
29.562712
26.805997
25.293827
25.442839
25.074482
24.782419
24.986863
24.610758
24.304986
24.509430
24.406910
23.510456
23.233891
22.715926
22.082925
21.326542
20.983815
19.049644
19.711852
19.239783
18.641949
18.236637
17.593503
17.439723
17.363429
16.414523
16.083717
15.168786
15.102625
14.818907
14.661551
14.620423
14.008880
##ZVALUE=300
1.213551
1.180768
1.271963
1.180768
1.187921
1.445413
1.355410
1.286864
1.415610
1.232624
1.436472
1.381636
1.360774
1.365542
1.255870
1.325607
1.426935
1.609921
1.529455
1.661777
1.861453
1.817942
1.818538
1.883507
2.251863
2.094507
2.377629
2.211928
2.297759
2.649426
3.249645
3.643632
14.123917
48.474669
165.345669
323.731899
674.940944
994.557738
1015.805006
1015.805006
1015.805006
1015.805006
1015.805006
1015.805006
964.840651
641.053915
324.572921
171.322823
61.265826
30.307770
27.113557
35.002828
53.424835
69.417953
94.306469
114.053488
134.495497
140.779614
142.305493
133.624673
113.644004
96.212626
72.164536
57.203770
41.977763
33.651590
27.752519
25.985837
24.589896
24.128556
23.801923
23.981929
22.984743
23.085475
22.399426
21.506548
21.273494
21.044612
20.191669
20.126700
19.014478
18.961430
18.441677
17.569661
16.932487
17.211437
17.040968
16.342998
16.437769
15.662909
15.358925
14.595985
14.800429
14.591813
14.412999
14.001727
##ZVALUE=305
1.232624
1.156926
1.322627
1.129508
1.322627
1.178980
1.136661
1.215935
1.278520
1.329780
1.330972
1.267791
1.342893
1.369715
1.463890
1.571774
1.490712
1.378655
1.562834
1.564622
1.627803
1.559854
1.632571
1.678467
1.706481
1.884699
2.152920
1.872778
2.315640
2.375841
2.478957
2.791882
2.921820
3.386736
5.966425
33.718944
92.402697
264.839530
483.629704
899.595618
1015.805006
1015.805006
1015.805006
1015.805006
1015.805006
1015.805006
1015.805006
770.526528
481.767654
218.819976
108.502507
39.799809
24.375916
27.524829
35.073757
51.966906
68.890452
93.473792
109.943748
128.741860
136.211514
133.588910
125.495791
107.596517
90.902448
66.726804
52.471757
38.979650
31.617880
25.931001
23.512840
22.390485
21.968484
21.060705
21.056533
20.354986
19.883513
19.659996
19.215941
18.921494
18.392801
18.153787
17.469525
17.688870
16.832948
16.419888
16.573668
16.011596
16.205907
15.170574
15.230775
14.562607
14.762878
14.328957
14.122725
14.256835
##ZVALUE=310
1.084805
1.171827
1.052618
1.319647
1.171827
1.299977
1.199841
1.131892
1.236796
1.186728
1.212955
1.219511
1.104474
1.119971
1.147985
1.245737
1.327991
1.480579
1.402497
1.375675
1.453757
1.412630
1.371503
1.671910
1.739860
1.799464
1.984835
1.868606
1.902580
2.233982
2.102852
2.232790
2.500415
2.743602
2.804995
3.211498
3.713965
14.723539
48.681498
161.885619
322.971940
675.244927
995.361805
1015.805602
1015.805602
1015.805602
1015.805602
1015.805602
1015.805602
987.434387
680.985451
341.669917
182.885528
67.462921
31.511784
21.770597
25.308728
35.115480
45.751929
64.395666
80.783963
103.482604
114.996433
124.662519
126.815438
117.715001
105.443001
84.552765
67.649484
49.341917
38.179755
29.132962
24.228692
21.263957
19.841790
19.056797
18.824935
18.192530
17.739534
17.287731
16.838908
16.735792
16.885996
16.556978
16.289949
16.220808
15.842915
15.582442
15.036464
14.844537
14.813542
14.832616
14.445782
13.996959
13.735890
13.571978
##ZVALUE=315
1.154542
1.189709
1.101494
1.142621
1.043677
1.062751
1.185536
1.069903
1.077652
1.024604
1.061559
1.179576
1.186728
1.095533
1.257658
1.110435
1.385808
1.355410
1.335740
1.477599
1.278520
1.482964
1.695752
1.606941
1.636744
1.531839
1.570582
1.761913
1.810789
1.824498
1.832843
2.053976
2.006888
2.176762
2.337694
2.365708
2.474785
3.076792
3.534555
7.260442
25.363564
104.101896
229.151845
520.709753
853.771567
1015.805006
1015.805006
1015.805006
1015.805006
1015.805006
1015.805006
1015.804410
875.565410
462.167859
253.145695
94.224811
41.842461
20.805597
19.828677
24.139881
29.393435
43.138862
55.493712
74.605942
91.930628
109.426975
116.011500
118.009448
109.725595
94.732642
80.045462
60.965419
47.712922
33.174753
26.039481
20.398498
18.323660
17.173886
16.525984
15.952587
15.757680
16.033649
15.654564
15.900731
15.339851
15.337467
15.206933
14.669895
14.481544
14.486909
14.061928
14.003515
13.903975
13.660789
13.390779
13.539791
##ZVALUE=320
1.090765
1.031756
1.206994
0.915527
1.234412
1.135468
1.161695
1.079440
1.055598
1.143813
1.151562
1.008511
1.154542
1.241565
1.030564
1.212955
0.999570
1.217723
1.390576
1.229644
1.237988
1.251698
1.352429
1.444817
1.435876
1.419783
1.426935
1.369715
1.460910
1.661777
1.618862
1.797676
2.008677
1.963973
2.021790
2.152920
2.173781
2.436638
2.503991
2.672672
2.940893
4.058480
11.512637
58.465600
150.967836
397.256017
658.922791
1015.805006
1015.805006
1015.805006
1015.805006
1015.805006
1015.805006
1015.805006
1009.584665
594.880581
342.887640
145.154595
65.230727
23.168921
16.249418
16.663671
18.909574
25.555491
33.847690
49.406886
63.500404
83.455443
97.116828
106.796622
108.546615
102.788806
91.414452
72.738528
57.295561
40.892959
31.458735
22.657514
19.276738
16.275644
14.729500
14.529824
14.449954
14.063716
13.979673
13.852715
13.965964
13.828874
13.674498
13.461709
13.331771
13.707876
13.378859
12.650490
12.736917
13.019443
##ZVALUE=325
0.957847
1.016855
1.010895
0.975728
1.007915
1.104474
0.963807
0.984669
0.911951
0.898838
0.896454
0.992417
1.172423
0.915527
1.145601
1.095533
1.101494
1.132488
1.191497
1.052618
1.290441
1.220703
1.263618
1.295805
1.365542
1.357794
1.483560
1.475811
1.351833
1.355410
1.543760
1.513958
1.598597
1.740456
1.798868
1.682639
1.797676
2.038479
2.245903
2.216697
2.381802
2.522469
2.913475
3.232956
8.014441
29.486418
112.735629
241.512656
547.346473
868.517756
1015.805006
1015.805006
1015.805006
1015.805006
1015.805006
1015.805006
1015.805006
790.469646
414.565802
226.704478
82.206726
34.484863
13.558865
11.822581
12.988448
15.390515
22.013783
29.748678
46.553612
61.070919
80.302954
91.820955
99.113584
100.368857
93.875527
83.678961
66.302419
52.583814
36.653876
27.731657
20.021796
16.944408
14.173985
13.974905
13.342500
13.330579
13.184547
12.884736
13.041496
12.858510
12.211800
12.756586
12.460947
11.947751
12.240410
12.331605
##ZVALUE=330
0.962615
0.968575
1.008511
0.803471
0.911951
0.816584
0.879765
0.842810
0.959635
0.933409
0.960827
1.088977
1.046658
1.002550
0.901818
1.078844
1.124740
1.154542
1.091957
1.147985
1.077652
0.928640
1.075864
1.254678
1.303554
1.246929
1.068711
1.179576
1.352429
1.410842
1.365542
1.539588
1.815557
1.617670
1.552701
1.697540
1.721978
1.772642
1.737475
1.830459
1.961589
2.146959
2.206564
2.235770
2.485514
3.063679
3.865957
17.356873
54.224730
180.876851
351.883769
709.829926
1007.276773
1015.805006
1015.805006
1015.805006
1015.805006
1015.805006
1015.805006
905.326605
581.834912
269.118547
135.354400
46.878457
18.845797
10.658503
10.161996
11.743903
13.673902
20.342469
28.331876
42.651892
55.132508
73.704720
85.384846
93.562603
94.755888
87.109804
78.457594
61.168671
48.953891
34.487844
26.444793
20.490885
16.601682
13.982654
13.028979
12.394786
12.046695
11.696815
11.881590
11.833906
11.882782
11.756420
11.852980
11.555552
##ZVALUE=335
0.745654
0.672936
0.761747
0.628829
0.650883
0.638962
0.738502
0.651479
0.741482
0.663996
0.682473
0.763535
0.755787
0.722408
0.864863
0.821948
0.763535
0.885725
0.772476
0.819564
0.834465
0.815988
0.735521
0.928640
1.032948
0.898838
0.939965
1.015663
1.004934
1.093745
1.094937
1.048446
1.075864
1.150966
1.316667
1.169443
1.220703
1.374483
1.395941
1.543760
1.514554
1.661777
1.747608
1.864433
2.092719
2.252460
2.394915
2.602935
2.942681
8.003712
28.571486
113.194585
237.352848
534.859896
863.105655
1015.588641
1015.588641
1015.588641
1015.588641
1015.588641
1015.588641
1010.711789
728.863478
377.590656
197.458863
66.394806
26.041865
11.363626
9.788871
10.291934
11.004806
14.130473
18.158555
28.373599
38.706660
55.323839
66.389441
79.096556
85.694790
87.172985
82.205534
70.478916
59.881806
45.308471
36.523938
25.111437
20.041466
15.304685
13.369918
11.977553
11.416674
10.880828
10.922551
10.395646
10.844469
10.750890
##ZVALUE=340
0.802875
0.816584
0.776649
0.959635
0.901818
0.697970
0.737906
0.675917
0.913739
0.865459
0.805855
0.743866
0.846982
0.892878
0.968575
0.812411
0.918508
0.602603
0.876784
0.929832
0.970960
0.952482
0.920892
1.073480
0.988841
1.131892
1.134872
0.987649
1.082420
1.139641
1.158714
1.286864
1.313686
1.119971
1.199841
1.113415
1.444817
1.373887
1.493692
1.589656
1.466870
1.492500
1.464486
1.608729
1.686811
1.728535
1.968741
2.163649
2.338886
2.473593
2.566576
4.344583
14.022589
68.167448
165.563822
415.422916
702.162981
1015.740633
1015.740633
1015.740633
1015.740633
1015.740633
1015.740633
1015.740633
890.823603
465.928912
258.531570
102.894902
40.496588
13.186932
9.873509
10.145903
9.759665
11.232495
13.449788
18.721819
25.839806
37.627816
48.875809
64.663887
74.021816
80.463886
81.831813
77.336431
69.729686
55.542588
45.517683
33.625960
26.582479
18.612742
14.909506
12.577772
11.610985
10.748506
10.450482
10.441542
##ZVALUE=345
0.900626
0.967979
0.855923
0.740886
0.894666
0.964999
0.855923
0.836849
1.026988
0.842810
0.935793
0.919700
0.788569
0.926852
0.847578
0.861883
0.964999
1.016855
0.915527
0.997782
0.900626
0.972748
1.012683
1.058578
1.212955
1.116991
1.262426
1.068711
1.083612
1.166463
1.182556
1.187921
1.117587
1.148582
1.228452
1.268983
1.236796
1.281500
1.540780
1.399517
1.368523
1.414418
1.468658
1.578927
1.665950
1.752973
1.756549
1.734495
1.928806
2.259612
2.352595
2.595782
2.553463
2.938509
6.546974
38.342476
104.692578
281.450748
506.804585
925.879478
1015.807986
1015.807986
1015.807986
1015.807986
1015.807986
1015.807986
1009.184718
625.705719
356.987715
141.044855
62.978864
19.451976
11.081696
9.576678
9.346604
9.223819
10.105968
12.232661
15.906692
23.969412
32.736659
46.860576
56.466460
67.970753
73.399544
76.095462
72.564483
64.839721
55.955648
43.974519
34.216642
24.064779
19.162893
14.338493
12.425780
10.822415
##ZVALUE=350
0.677705
0.948906
0.915527
0.728965
0.989437
0.843406
0.915527
0.820756
0.824928
0.896454
0.868440
0.851750
1.024604
0.791550
0.941753
1.007915
0.978708
0.883937
0.933409
0.999570
0.988841
1.002550
0.985861
0.971556
1.022816
0.979900
0.957847
1.144409
0.956655
1.083612
0.954866
1.156926
1.047850
1.007915
1.150966
1.324415
1.374483
1.233816
1.381636
1.349449
1.317859
1.199841
1.402497
1.432896
1.382828
1.466870
1.579523
1.673698
1.968741
1.892447
1.876950
2.087951
1.958609
2.246499
2.526641
2.780557
3.910661
19.773841
61.758757
192.317963
365.474820
737.306476
1015.818715
1015.818715
1015.818715
1015.818715
1015.818715
1015.818715
1015.818715
741.466880
449.160933
201.032758
93.609691
26.022792
11.776686
9.303689
8.698702
8.391738
8.487701
9.480715
11.277795
15.904903
21.366477
30.452609
39.041638
51.221848
59.243441
66.482425
68.777800
66.677928
61.123967
50.572753
42.107701
31.720996
24.988651
17.961860
##ZVALUE=355
0.974536
0.824928
0.789762
0.883937
0.793934
0.899434
0.871420
0.878572
0.868440
0.838637
0.923872
0.989437
1.003742
1.119971
0.938773
0.908971
1.012683
0.868440
0.913739
1.166463
0.986457
1.097918
0.954866
1.141429
1.016855
1.042485
1.205802
1.114607
1.192689
1.076460
1.071692
1.061559
1.076460
1.180768
1.026988
1.187921
1.174808
1.227856
1.239777
1.147985
1.375675
1.368523
1.442432
1.611710
1.540780
1.451969
1.651645
1.635551
1.471639
1.584888
1.710653
1.855493
1.767874
2.087951
2.189875
2.377629
2.675653
2.915859
3.134608
9.731650
33.963919
127.651691
259.323716
543.291569
861.509442
1015.833020
1015.833020
1015.833020
1015.833020
1015.833020
1015.833020
874.181986
556.160808
247.148871
118.496418
35.699606
14.452934
9.009838
8.357763
8.103848
7.792711
7.896423
8.490682
10.270476
13.277531
19.228458
25.329590
35.483837
43.678880
53.661466
59.706569
62.464476
61.513782
56.213737
49.243569
39.442778
##ZVALUE=360
0.959635
0.753999
0.788569
0.736713
0.893474
0.927448
0.774860
0.845790
1.042485
0.830889
0.814795
0.784993
0.792742
0.944734
0.862479
0.799894
0.979900
0.785589
0.813603
0.910759
0.768900
1.022816
1.147985
0.915527
1.119971
1.049638
1.015663
1.026988
1.006722
1.080632
1.053810
1.103878
1.188517
1.165867
1.114607
1.165867
1.064539
1.259446
1.193881
1.313686
1.171827
1.212955
1.327991
1.347661
1.231432
1.225471
1.344681
1.434684
1.395941
1.522899
1.690984
1.594424
1.729727
1.898408
2.087951
2.030730
2.193451
2.266765
2.524853
2.758503
3.243685
4.796982
15.131831
66.278577
155.131817
378.795862
650.776029
1015.805602
1015.805602
1015.805602
1015.805602
1015.805602
1015.805602
995.897651
693.107843
342.504978
177.733898
64.310431
24.752617
9.312630
8.095503
7.731915
7.521510
7.580519
7.501841
7.800460
8.872747
11.664629
14.788508
21.523833
28.312802
38.677454
46.194792
53.020716
56.125522
56.920648
##ZVALUE=365
0.774860
0.886917
0.905991
0.817776
0.741482
0.774860
0.843406
0.695586
0.907779
0.845790
0.949502
0.937581
0.868440
0.963807
0.953674
0.786781
0.877976
0.974536
0.867844
0.929832
1.037717
0.900626
0.800490
0.932813
0.749826
1.103878
1.001954
1.064539
1.060963
1.020432
1.089573
1.128912
1.102686
1.286864
0.984669
1.097918
1.150966
1.238585
1.286864
1.106858
1.235604
1.230836
1.230836
1.250505
1.164675
1.186728
1.241565
1.299977
1.373887
1.603961
1.450777
1.650453
1.493692
1.696944
1.744628
1.747608
1.901984
1.912713
1.992583
2.371669
2.319813
2.625585
2.848506
3.384948
6.728768
35.470724
97.682476
274.508595
497.403741
892.263651
1015.805006
1015.805006
1015.805006
1015.805006
1015.805006
1015.804410
837.517977
461.307764
253.490806
93.140602
37.397742
11.128783
7.674694
7.395744
7.269979
7.139444
6.940961
6.927848
7.060766
7.998943
9.636879
13.541579
17.785430
25.179982
32.233000
40.708780
##ZVALUE=370
0.548959
0.692606
0.626445
0.685453
0.640750
0.781417
0.762939
0.814795
0.918508
0.635982
0.723600
0.535846
0.630617
0.769496
0.659823
0.633597
0.661612
0.656843
0.753999
0.736713
0.623465
0.777841
0.821948
0.741482
0.723600
0.797510
0.864863
0.750422
0.746846
0.977516
0.885725
0.923872
0.745654
0.861883
0.914931
0.940561
0.976920
1.120567
1.013875
1.009703
0.878572
0.975728
0.882745
1.007915
1.015663
1.089573
1.219511
1.160502
1.093745
1.134872
1.193881
1.430511
1.274943
1.317859
1.343489
1.487732
1.407862
1.551509
1.578927
1.603961
1.672506
1.877546
1.907945
2.230406
2.381802
2.778769
3.992915
18.852949
60.573816
195.627809
373.114944
714.972615
1003.486514
1015.623808
1015.623808
1015.623808
1015.623808
1015.623808
975.700021
563.043952
316.182971
123.142600
55.928826
18.004775
8.727908
6.967783
6.271601
6.242990
5.929470
5.871654
5.844831
6.095767
6.688833
8.539557
11.029840
15.804768
##ZVALUE=375
0.865459
0.750422
0.901818
0.897646
0.855923
0.895858
0.784993
0.859499
0.927448
0.828505
0.825524
1.048446
0.717640
0.893474
0.855923
0.852942
0.826716
0.923872
0.873804
0.875592
0.833869
0.685453
0.780821
0.776649
1.038909
0.883937
0.897646
1.040697
0.782609
1.001954
1.043677
1.005530
0.858903
1.069903
0.928640
0.907779
1.041889
0.964999
0.956655
1.237988
1.122952
1.043677
1.060963
0.995994
1.036525
1.098514
1.171827
1.108646
1.212955
1.121759
1.257658
1.123548
1.252890
1.439452
1.249909
1.279712
1.366735
1.493692
1.468658
1.529455
1.681447
1.698732
1.715422
1.869798
2.114773
2.165437
2.535582
2.627969
3.174543
9.409785
33.118725
118.969679
253.193974
564.971566
881.869793
1015.805006
1015.805006
1015.805006
1015.805006
1015.805006
1015.805006
726.878643
454.388857
209.645629
104.547739
32.979846
12.454987
6.629825
6.177425
6.259680
5.683899
5.729795
5.654693
5.557537
5.506873
6.044507
##ZVALUE=380
0.876784
0.696778
0.789762
0.761747
0.777841
0.622869
0.799894
0.745654
0.777841
0.886917
0.794530
0.870824
0.862479
0.863671
0.802875
0.910759
0.842810
0.849962
0.656843
0.941753
0.875592
0.998974
0.782609
0.869632
0.841618
0.918508
0.994802
0.766516
0.953674
0.863671
0.873804
0.904799
1.002550
0.942945
0.937581
0.887513
0.875592
1.005530
1.046658
0.853539
1.015663
0.978708
0.994802
1.120567
1.157522
0.993609
1.037717
1.088977
1.037717
0.969768
1.163483
1.066923
1.163483
1.211762
1.430511
1.380444
1.467466
1.273751
1.341701
1.443624
1.349449
1.441836
1.424551
1.490712
1.498461
1.845956
2.054572
2.045631
2.167821
2.677441
3.185868
5.313754
18.451810
83.690882
192.801952
457.884669
743.137598
1015.805006
1015.805006
1015.805006
1015.805006
1015.805006
1015.805006
907.665491
611.397624
301.899910
154.394507
53.147674
20.733476
7.562637
5.897880
5.786419
5.539656
5.479455
5.225539
5.025864
##ZVALUE=385
0.877976
0.866652
0.845790
0.734925
0.990629
0.866652
0.803471
0.926852
0.796914
0.835657
0.796914
0.954866
0.784993
0.815988
0.929832
1.023412
0.953674
0.856519
1.038909
0.965595
0.953674
0.902414
0.854731
0.978708
0.954866
0.980496
0.876784
0.981688
1.044869
0.950694
1.006722
0.984669
1.009703
0.938773
0.986457
1.135468
1.057982
1.033545
1.064539
1.189709
1.108646
0.945926
1.165867
1.080632
0.971556
1.079440
0.992417
1.070499
1.070499
1.084805
1.271963
1.169443
1.200438
1.292825
1.147985
1.338720
1.214743
1.341701
1.459718
1.383424
1.209974
1.462698
1.577735
1.520514
1.413822
1.790524
1.764894
1.861453
2.225637
2.358556
2.590418
2.670884
2.922416
3.449917
11.058450
37.067533
133.864880
283.820629
610.993505
937.042832
1015.933752
1015.933752
1015.933752
1015.933752
1015.933752
1015.933752
734.415650
466.747880
210.879445
103.076696
33.302903
12.038946
6.052852
5.377531
5.072951
4.899502
##ZVALUE=390
0.780821
0.652671
0.730753
0.777841
0.861883
0.603795
0.749826
0.616908
0.446439
0.723600
0.827909
0.682473
0.716448
0.565648
0.818968
0.709891
0.753999
0.872612
0.691414
0.850558
0.779629
0.699759
0.919700
0.833869
0.751615
0.853539
0.835657
0.843406
0.871420
0.761747
0.794530
0.990629
0.981688
0.837445
0.887513
0.935793
0.853539
0.962615
0.847578
0.823736
0.932813
0.980496
0.929832
0.791550
0.947714
0.908971
0.968575
1.097918
1.012683
1.055598
1.030564
0.970960
1.062751
0.986457
0.949502
1.020432
1.086593
1.115799
1.153946
1.173615
1.233816
1.275539
1.360774
1.246929
1.347661
1.576543
1.510978
1.773834
1.859665
1.896620
2.113581
2.499819
2.381802
2.345443
2.467632
2.723932
4.380941
26.167631
78.530908
237.585902
448.732972
840.941668
1015.805602
1015.805602
1015.805602
1015.805602
1015.805602
1015.805602
978.661776
601.249933
346.393585
140.142441
63.006878
16.375780
6.782413
5.096793
##ZVALUE=395
0.697970
0.674725
0.679493
0.631809
0.662804
0.602603
0.631809
0.858903
0.694990
0.728965
0.674725
0.738502
0.787973
0.680685
0.829697
0.694990
0.646710
0.762939
0.748634
0.900626
0.705719
0.834465
0.835657
0.845790
0.726581
0.769496
0.757575
0.656843
0.764728
0.858903
0.745654
0.776649
0.780821
0.902414
0.874996
0.944734
0.910759
0.796914
0.884533
0.910759
0.867844
0.841618
0.806451
0.904799
0.848770
1.067519
0.997782
0.930429
1.100898
0.916719
1.068711
1.085997
1.093745
1.008511
1.033545
1.072884
1.266599
1.012683
1.087785
1.231432
1.107454
1.097918
1.239777
1.207590
1.185536
1.486540
1.446605
1.546741
1.740456
1.932979
2.027750
1.966953
2.110600
2.132654
2.276897
2.204776
2.263784
2.545714
3.150702
14.755726
51.368475
174.687505
332.092643
628.634691
933.837891
1015.805006
1015.805006
1015.805006
1015.805006
1015.805006
1015.805006
726.775527
451.386571
197.258592
93.151927
29.932857
##ZVALUE=400
0.674725
0.685453
0.877976
0.790954
0.712872
0.669956
0.644922
0.682473
0.741482
0.761747
0.698566
0.667572
0.766516
0.709891
0.686646
0.736713
0.767708
0.885725
0.660419
0.705719
0.821948
0.790954
0.743866
0.713468
0.651479
0.708699
0.668764
0.782609
0.755787
0.771880
0.730753
0.802875
0.766516
0.791550
0.784993
0.865459
0.695586
0.647902
0.909567
0.944734
0.819564
0.911951
0.991821
0.930429
0.877976
0.928640
0.939965
0.984669
0.914931
0.840425
1.018643
0.833869
0.994802
0.979900
0.927448
0.971556
1.130700
1.068711
1.104474
1.233816
1.163483
1.154542
1.089573
1.289845
1.195669
1.428723
1.440644
1.511574
1.611710
1.804829
1.977682
1.873970
2.052784
2.055764
1.953840
1.989603
1.973510
2.019405
2.233982
2.332926
2.657771
7.839799
27.524829
98.827481
211.780667
474.761724
756.905675
1015.806794
1015.806794
1015.806794
1015.806794
1015.806794
1015.806794
848.471522
559.960008
279.438496
##END
