##TITLE=
##FORMAT=SPECTACLE-ASCII V-1.2
##DATA TYPE=ULTRAVIOLET SPECTRUM
##SECOND TYPE=ULTRAVIOLET SPECTRUM
##DATE=09/27/17
##TIME=10:54:02
##SPECTROMETER/DATA SYSTEM=SPECTACLE
##XUNITS=NM EM
##YUNITS=ENERGY
##YFACTOR=1
##FIRSTX=220
##LASTX=410
##NPOINTS=96
##3DDATA=Equidistant
##ZUNITS=NM EX
##FIRSTZ=210
##LASTZ=400
##ZPOINTS=39
##XYDATA=(Y..Y)
##ZVALUE=210
3.578663
2.939701
3.228784
3.373623
3.278852
3.653765
3.674626
4.174709
3.577471
4.238486
3.574491
3.690720
3.645420
3.603697
4.139543
4.133582
5.070567
3.851652
4.205704
4.846454
4.402995
5.392432
4.426837
5.972981
4.934669
5.043745
6.840825
6.435513
5.079508
5.996823
6.103516
6.119609
6.063581
5.928874
5.944967
6.703734
6.550550
6.873608
6.568432
6.869435
6.695986
6.323457
6.451607
7.253885
6.735921
6.011724
7.085800
7.043481
6.884933
7.487535
7.842779
7.296801
6.840825
8.250475
7.572770
6.943941
6.763935
7.442832
7.895827
7.676482
6.681681
8.010864
8.450747
7.484555
7.903576
6.897449
8.224845
8.063912
8.642673
11.052489
13.305545
13.660789
14.821887
16.512871
16.919971
18.863678
19.072890
19.139647
18.458962
16.135573
16.118884
14.392734
12.420416
11.953712
9.434819
8.265972
7.355809
7.290840
7.541776
6.971955
6.750822
7.059574
6.382465
7.370710
7.598996
8.267760
##ZVALUE=215
5.214810
6.475449
5.969405
5.377531
4.988909
4.933476
5.146861
5.071759
5.429983
5.895495
5.671978
4.838705
5.022883
4.300475
3.884435
4.037619
3.948808
4.624724
4.599690
4.400611
4.488826
5.193949
4.787445
5.113482
5.528927
5.746484
5.988479
6.067753
6.468892
6.535649
6.362796
7.275939
7.588863
6.810427
6.993413
6.704926
6.918907
7.059574
6.865859
6.306767
7.869601
7.375479
7.021427
6.983876
6.671548
7.319450
7.451773
6.679893
7.108450
6.850958
6.943941
7.946491
7.962584
7.318854
8.452535
7.709861
8.117557
7.669926
7.343888
7.827878
7.892847
8.926988
8.403659
8.051991
7.871985
8.728504
8.883476
7.620454
9.647608
9.797812
11.139512
13.240576
12.915730
13.943911
14.325976
13.986826
14.108419
14.456511
14.169812
14.748573
13.037920
12.509823
11.056662
10.258555
9.565949
8.298755
8.317828
7.471442
7.913709
7.340908
8.381605
7.179976
7.257462
7.112622
7.321835
7.284880
##ZVALUE=220
15.777946
16.168952
17.910600
19.692779
17.940998
16.278625
14.310479
10.718703
10.454655
10.710955
10.670424
11.697412
11.298656
10.643601
9.567738
9.173751
6.089807
5.224943
5.483627
5.218983
4.810691
5.020499
5.233884
5.013943
5.200505
5.906820
6.515980
5.828738
7.356405
8.095503
7.595420
7.658601
7.738471
8.097887
9.775758
8.650422
8.423924
8.850694
8.883476
9.135604
10.097623
8.903742
8.724928
8.585453
9.553432
7.458925
7.890463
8.209944
8.860826
9.268522
8.821487
9.580851
9.729862
9.491444
9.478927
10.124445
8.894801
9.147525
10.506511
9.113550
9.129643
9.562969
8.709431
9.162426
10.667443
9.469986
10.571480
10.471940
10.952950
12.004972
12.371540
13.475418
15.006661
15.970469
16.550422
16.937852
15.354753
17.315745
16.640425
15.031695
15.709996
14.414787
12.358427
12.481809
10.502934
11.861920
10.335445
8.953810
9.181499
9.365678
9.181499
8.830428
9.738803
9.258986
8.146763
8.137822
##ZVALUE=225
27.847886
29.401779
39.011836
54.012537
57.291985
58.559775
55.399537
46.266913
37.458539
29.185414
22.974610
20.794868
21.475554
23.642778
25.196671
23.163557
19.282699
16.131997
13.576746
8.965731
7.497668
5.313754
5.435944
5.582571
5.569458
6.318688
6.679893
7.248521
7.793903
8.278489
9.123683
9.045601
9.582639
8.981824
10.989904
9.822845
9.991527
11.839867
10.578632
11.613965
10.919571
10.958910
11.350513
9.916425
10.814667
11.789799
11.347532
11.387467
11.573434
11.455417
11.983514
12.822747
12.309551
12.801886
13.498664
12.470484
13.015866
12.360811
13.744831
14.151931
14.818907
14.161468
14.874935
13.207793
14.460683
14.302731
15.111566
14.178753
15.519857
16.224980
17.487407
17.548800
19.714832
19.542575
20.596981
20.424724
20.848513
20.628572
19.252896
18.946528
17.637610
18.380880
15.965700
15.869737
14.633536
14.364719
13.873577
14.907718
14.254451
15.111566
13.133883
12.690425
13.389587
13.540983
12.601614
13.096929
##ZVALUE=230
24.367571
28.388500
47.288537
78.598857
103.784800
128.733516
151.737928
154.150724
146.864653
122.842789
86.335540
63.708425
46.421885
43.355823
42.056441
46.446919
48.338771
46.869516
44.045448
35.415888
28.503537
18.365979
12.652874
9.416938
7.464886
6.919503
6.556511
7.510781
7.071495
8.038878
8.263588
9.279847
8.533597
9.282827
9.926558
10.907650
10.503531
11.685491
11.391640
13.330579
13.097525
12.418628
13.501644
15.275478
14.539957
13.909936
14.814734
14.031529
16.300678
16.662478
17.665625
18.754601
16.990900
17.180443
18.047690
18.721819
18.901825
20.416975
19.041896
20.055771
21.433830
21.326542
21.654963
22.245646
23.051500
22.167563
20.584464
24.383664
24.554729
26.147962
25.931001
27.545691
26.825666
28.878450
30.037761
31.028986
28.028488
27.808547
27.685761
27.165413
26.892424
26.092529
24.860501
24.896860
22.107959
23.151636
24.830699
24.035573
20.732880
22.572875
22.180676
22.031665
21.032691
20.562410
19.843578
19.667745
##ZVALUE=235
10.132790
11.736751
27.121902
52.030683
89.865923
155.797601
207.911730
282.050967
317.184925
313.865542
293.335915
225.441456
173.300505
117.102861
89.650750
70.129633
68.056583
74.680448
80.290437
82.096457
75.483918
67.265630
51.652789
36.895871
25.422573
16.912818
11.993647
8.985996
7.566810
8.001924
9.418726
9.381771
9.838939
8.969903
9.592772
10.815859
11.199713
13.385415
14.636517
14.223456
15.632510
15.535951
17.303824
18.668771
18.944740
19.561648
20.986795
22.177696
22.469759
23.303628
23.898482
26.723742
27.087927
26.226640
27.942657
27.531981
26.742816
30.857921
30.846596
29.018521
32.754540
33.443570
34.213662
35.256743
34.033656
35.974979
35.271645
36.532879
38.260818
37.203431
39.989948
42.321682
41.050911
41.807890
41.045547
42.614937
42.155981
41.186810
40.921569
41.911602
40.335655
36.221743
38.638711
39.785504
36.973953
32.807589
35.516620
35.536885
33.703446
33.657551
34.345984
32.769442
30.838847
32.696724
29.928684
28.965473
##ZVALUE=240
3.345609
3.290772
6.706715
15.822649
32.302737
77.705979
130.254626
234.937668
323.183537
413.649678
492.895842
512.657762
463.111997
396.176577
295.187831
212.386847
130.876899
105.073452
91.928840
98.412633
105.840564
113.512874
110.851526
100.320578
84.607601
62.272549
45.474768
29.754639
22.244453
14.032722
11.721849
10.268688
9.623766
11.278987
11.405945
13.013482
12.877584
14.119744
14.749765
17.736554
17.822981
19.143820
19.965768
23.580790
24.464726
26.877522
27.614832
29.318929
30.760765
32.845736
36.753416
34.890771
36.703944
36.896467
37.735701
39.709806
37.908554
38.539767
39.574504
42.358637
44.404864
42.013526
43.145418
41.661859
44.965744
45.564771
44.683814
46.362877
45.936704
48.507452
47.656894
50.486922
51.815510
54.926872
49.548745
50.545931
49.144626
51.203966
52.730441
49.491525
50.457716
50.600767
47.881603
45.072436
47.410727
46.363473
43.026805
43.671727
43.498874
41.960478
41.248798
43.569803
40.508509
39.014816
39.867759
41.780472
##ZVALUE=245
2.847910
2.931952
3.328919
3.158450
4.333854
13.284683
31.496882
79.385638
142.894983
270.573497
385.663509
494.861603
606.913567
637.443662
607.883930
539.241433
408.361554
301.960707
188.692808
134.758949
104.004741
99.985003
117.159486
122.862458
130.691528
127.708912
116.584897
94.009638
75.243711
52.504539
37.188530
25.658607
18.005967
14.220476
13.639927
13.857484
14.165640
14.578700
16.694665
17.519593
19.321442
21.966696
23.592710
25.704503
27.921796
30.007958
31.243563
33.744574
34.010410
36.085844
39.046407
40.335655
41.054487
41.541457
40.564537
41.168928
40.946603
43.684840
42.598844
43.025613
43.220520
42.156577
44.297576
44.743419
42.702556
42.818785
43.918490
45.104623
45.273900
45.177937
46.628714
47.078729
47.548413
49.962997
49.533844
49.381852
48.441887
49.089789
49.871802
50.632954
49.657822
47.061443
46.231747
46.253800
45.787692
44.807792
45.373440
40.520430
43.082833
41.071773
41.318536
39.681792
39.734840
40.885806
38.692951
40.429831
##ZVALUE=250
2.606511
2.719760
2.811551
2.693534
2.758503
3.014803
3.830791
7.252693
30.109882
68.372488
162.806511
266.628861
384.876728
545.904636
646.924973
723.860860
727.265477
647.809505
548.643470
384.398699
265.850425
177.015662
111.503601
95.272660
105.607510
120.232701
135.394931
139.305592
136.537552
125.013590
101.798773
80.484748
63.612461
39.477944
28.559566
18.366575
16.741753
16.172528
16.170740
18.697977
19.569993
20.877719
23.777485
25.643706
27.416945
29.034615
31.099916
33.936501
34.880638
34.831762
36.635995
39.401650
40.972829
40.661693
41.216612
41.413903
40.545464
40.414929
40.031672
40.339828
41.581988
38.719773
41.108727
41.060448
38.315654
38.120747
39.740801
39.133430
38.090944
38.947463
39.596558
40.983558
41.800737
40.700436
41.407943
42.522550
41.708946
41.204691
41.493773
41.219592
39.971471
40.668845
40.626526
39.969683
38.434863
38.824677
40.820837
38.696527
39.018989
38.844943
38.463473
35.915971
37.147999
37.430525
36.478639
38.084984
##ZVALUE=255
2.331734
2.594590
2.443790
2.309680
2.669692
2.644658
2.638698
2.852678
3.362894
4.598498
21.497607
52.982569
110.065937
230.512023
355.354548
553.147793
673.437715
799.009800
829.069018
781.593919
679.132938
541.714430
344.627500
223.359466
125.595927
95.829964
90.654492
103.724599
126.920938
142.064691
148.346424
143.191814
135.941505
106.051564
86.918473
60.161948
44.407845
28.416514
22.559762
18.984675
19.147992
19.740462
20.177960
23.261905
24.180412
27.061701
28.200746
29.540658
31.196475
31.917691
33.261776
35.498738
36.014915
35.467744
34.370422
35.869479
35.007000
34.947991
34.977794
34.827590
33.848882
34.152865
33.779740
32.623410
33.395886
33.011436
33.884645
31.925440
33.450723
35.118461
34.147501
34.683943
35.941601
35.767555
35.606623
36.026835
36.540627
34.495592
35.776496
35.929680
36.737919
35.981536
34.201741
34.340620
35.985708
37.333965
36.302805
35.738945
34.407973
34.353733
35.990477
34.518838
34.319758
34.507513
34.483671
35.068989
##ZVALUE=260
2.340674
2.371669
2.282858
2.405643
2.301931
2.563596
2.333522
2.213717
2.431870
2.819896
3.119707
3.570914
8.669496
34.552813
77.541471
186.954737
304.867625
499.192476
657.991767
835.174918
919.867754
923.171639
815.583467
671.847463
450.361967
307.849646
175.967813
113.524795
82.894564
86.902976
102.611780
133.195519
147.260427
158.556700
152.503848
134.956837
116.929412
85.618496
66.094995
44.679642
33.905506
25.680661
22.545457
21.294951
22.307634
22.343993
22.757649
24.869442
25.564432
26.738644
27.628541
28.757453
28.380752
27.979612
29.171705
28.191805
29.807687
29.356480
29.734969
28.862953
28.244853
28.034449
28.165579
28.009415
28.215647
28.204918
28.701425
28.197765
28.331876
28.998852
30.006766
29.362440
30.215979
30.412674
31.292439
32.541752
31.767488
32.099485
31.296611
31.835437
31.905770
31.586885
32.354593
32.543540
32.340884
31.997561
31.502843
32.265782
32.614470
32.411814
31.881928
31.005740
31.440854
31.641722
32.149553
32.661557
##ZVALUE=265
1.953840
1.978874
2.198815
2.049804
2.209544
2.122521
2.029538
2.039671
2.547503
2.404451
2.821684
2.771616
2.855659
3.048778
5.058646
21.101832
52.576661
136.939883
242.226720
454.163551
638.013482
820.499659
979.642868
1011.678576
917.712450
799.074769
584.277511
412.521958
227.787495
144.982934
86.127520
73.727965
84.937811
112.731457
134.265423
153.480768
159.125924
154.350996
139.790773
112.705827
90.765953
65.568686
48.503876
32.941699
26.847720
21.620989
21.539927
22.496581
23.112893
22.960901
23.758411
23.676753
24.501681
24.510622
24.497509
25.111437
24.819970
24.459958
24.435520
23.814440
23.792982
24.904609
24.458766
23.807883
25.344491
24.969578
24.797916
25.936961
25.626421
26.635528
26.864409
26.700497
28.121471
27.644634
28.601885
27.951598
29.476881
30.019879
28.963685
30.808449
29.991865
29.474497
31.815767
29.332638
29.572845
30.014515
30.470490
30.717850
30.521750
28.780699
29.455423
30.600429
30.753613
31.163692
29.414892
30.821562
##ZVALUE=270
2.028942
1.970530
2.056956
2.042651
1.752973
1.896620
2.330542
2.117753
1.953840
2.313852
2.130866
2.073646
2.254844
2.194643
2.481937
2.791882
3.444552
8.284450
23.818612
85.404515
175.904632
377.785563
569.508672
823.513865
981.979966
1015.805006
1015.805006
909.200907
760.669708
524.538755
353.371501
186.583996
111.999512
67.629814
67.533851
89.621544
112.689734
139.409900
155.722499
161.261559
157.948732
141.432881
120.591521
90.931654
70.510507
47.916770
36.310554
27.871728
23.620725
22.273660
21.730661
22.444725
21.714568
21.974444
22.726655
22.904873
23.257732
22.933483
23.091435
23.332834
23.882985
23.357868
23.250580
23.944974
24.005771
23.134947
24.152994
24.893880
25.167465
26.189685
26.049614
27.421713
27.480721
28.119683
28.175712
28.258562
29.434562
28.876662
28.727651
29.328465
29.362440
28.190613
28.511882
28.973818
28.707981
28.632879
29.480457
29.183626
29.483438
29.447675
27.889609
28.383732
28.478503
28.640628
28.469563
27.698874
##ZVALUE=275
1.639724
1.671910
1.650453
1.716614
2.133846
1.957417
1.901984
1.940727
1.931787
1.808405
1.728535
1.990795
1.986623
1.883507
2.290606
2.277493
2.372861
2.490878
2.676845
5.235672
15.802979
45.428872
146.012902
283.300877
536.997914
728.987455
963.854790
1015.805006
1015.805006
1015.805006
930.976868
684.906840
486.051440
256.353617
151.359439
74.243546
56.697726
66.155791
85.649490
115.521550
134.414434
154.241920
163.431764
154.152513
143.262744
114.565492
94.873905
68.810582
53.684711
38.120747
29.487610
25.466681
22.764802
22.756457
22.691488
21.784902
22.910833
23.902655
23.272634
23.368001
23.384690
24.765730
24.390817
24.775863
25.473833
25.665760
24.852753
25.838614
25.753975
26.162863
26.214719
27.653575
26.948452
28.758645
28.640628
28.883815
29.198527
27.974844
28.449893
28.981566
28.643608
29.258728
28.565526
29.001832
28.510690
28.350949
27.522445
28.986931
28.244853
28.085709
28.884411
27.485490
28.077960
28.380752
27.278662
27.184486
##ZVALUE=280
1.624823
1.563430
1.678467
1.623631
1.704693
1.743436
1.759529
1.753569
1.747608
1.790524
1.903772
1.841784
1.943707
1.758933
1.950860
2.070665
2.020597
2.221465
2.329946
2.354980
2.808571
3.303885
13.015866
36.470890
114.497542
229.659677
397.116542
681.918859
894.519687
1015.805006
1015.805006
1015.805006
1015.763879
783.946514
572.085977
332.305431
193.517804
90.591908
55.498481
48.630834
62.195659
89.889765
111.385584
137.766004
153.358579
159.355998
155.280828
137.179494
121.178627
90.473890
70.773959
49.937963
38.943887
29.318929
24.942756
23.628473
22.946000
23.058653
23.579597
24.220943
23.945570
25.055408
24.546981
25.376678
26.079416
26.498437
25.829673
26.314855
27.707815
27.211905
28.066635
28.642416
28.408766
28.793812
28.651953
29.814839
29.164553
29.366612
29.204488
29.435754
29.021502
28.612614
28.536916
29.569864
28.315783
28.689504
29.160976
27.432442
28.292537
27.614832
27.777553
27.289987
26.070476
26.484728
26.145577
27.213693
##ZVALUE=285
1.508594
1.562834
1.754761
1.609921
1.502633
1.591444
1.497865
1.548529
1.717806
1.788735
1.700521
1.790524
1.912713
1.856685
1.905560
1.926422
1.877546
1.904964
2.040863
2.149940
2.199411
2.436638
2.683997
2.628565
6.682873
20.453930
65.718889
137.002468
311.311483
501.773953
793.859959
1003.350616
1015.805006
1015.805006
1015.805006
959.710479
738.625526
447.847843
279.785991
134.999752
71.673989
39.891005
41.200519
59.944987
79.984665
109.097958
127.967000
147.217512
152.577758
149.124861
138.365626
115.776658
97.502470
71.090460
54.424405
37.416816
30.460954
25.712848
24.383664
25.203824
24.686456
24.842620
25.645494
25.649667
25.457740
27.208924
26.894808
28.074980
28.364658
28.324723
28.392673
29.633641
28.841496
29.565692
30.002594
30.029416
29.815435
29.324889
30.064583
29.559731
29.492974
28.662682
29.057860
29.648542
28.685927
28.395653
28.205514
28.548837
28.091669
27.518868
27.396679
27.438998
26.785731
26.186705
25.941730
26.191473
##ZVALUE=290
1.541972
1.483560
1.542568
1.582503
1.382828
1.496673
1.372695
1.429915
1.673698
1.636744
1.490712
1.510978
1.927614
1.658797
1.612902
1.901984
1.738667
1.904964
1.943707
1.920462
2.003908
2.036691
2.102852
2.544522
2.499819
2.573729
3.188848
9.352565
39.834976
87.337494
170.899630
368.308425
585.444570
915.372968
1015.803814
1015.803814
1015.803814
1015.803814
889.526010
588.919520
388.003588
191.951990
102.187991
44.119954
30.148625
38.137436
52.522421
76.272488
98.721981
125.076771
140.661597
150.470734
149.618983
132.974982
119.070411
90.577602
71.777701
52.005649
40.542483
31.870604
27.367473
25.500655
25.207996
25.505424
25.418997
26.076436
27.280450
27.119517
27.500987
28.035641
28.182864
29.107928
29.046535
29.928684
30.106902
29.946566
29.457808
28.858781
29.318929
29.724836
29.543638
29.549599
29.409528
28.911829
28.487444
28.117895
28.496981
28.426647
27.889609
27.807951
27.489662
27.373433
27.015805
26.592612
26.097894
25.766492
##ZVALUE=295
1.336932
1.377463
1.486540
1.382828
1.531839
1.399517
1.381636
1.389980
1.447797
1.486540
1.653433
1.502633
1.568794
1.666546
1.614690
1.525879
1.575947
1.647472
1.759529
1.669526
1.811981
1.764894
1.919866
1.972914
2.182722
2.247691
2.273917
2.203584
2.528429
4.908442
15.601516
59.794784
129.611492
295.755863
484.925508
794.480443
1002.790928
1015.805006
1015.805006
1015.805006
1002.982855
713.011622
485.186577
252.139568
138.203502
54.427981
29.716492
25.343895
33.173561
52.104592
70.486665
96.748471
116.462708
135.867596
144.657493
143.104792
133.466721
111.208558
94.783902
71.063638
54.601431
40.092468
32.891631
28.773546
26.106834
26.116967
25.276542
26.385784
26.412606
27.403831
28.077960
27.590990
27.975440
28.040409
28.705597
29.531717
29.227734
29.497743
28.727651
28.988719
28.857589
29.479861
28.472543
28.925538
28.961897
28.565526
28.080940
27.407408
27.924776
27.503967
26.700497
26.225448
25.857687
26.830435
26.109815
26.080608
##ZVALUE=300
1.330972
1.260638
1.397729
1.427531
1.315475
1.340508
1.473427
1.440644
1.438856
1.587868
1.287460
1.304746
1.522899
1.466870
1.260638
1.529455
1.542568
1.438856
1.680851
1.693964
1.704693
1.590848
1.889467
1.906753
1.975894
1.918674
2.132654
2.121925
2.403855
2.449751
2.483726
2.553463
7.948875
25.829673
88.086724
177.043676
374.454856
582.990646
879.755020
1015.805006
1015.805006
1015.805006
1015.805006
865.845680
572.217703
368.949771
184.986591
100.338459
40.269494
23.062825
23.442507
32.042861
48.507452
65.641999
90.444684
110.360980
129.680634
138.467550
136.641860
129.810572
110.029578
93.019605
70.451498
56.076646
40.493608
34.291744
27.984977
26.618838
26.196837
26.616454
26.240945
26.979446
27.604699
27.290583
27.618408
28.632879
27.900934
27.773976
28.088689
28.568506
28.361678
29.066801
28.651953
28.487444
28.802752
28.472543
28.580427
27.824640
27.810931
27.944446
26.614666
26.729703
26.136637
26.188493
26.077628
25.382638
##ZVALUE=305
1.233816
1.372695
1.298785
1.280904
1.348853
1.356602
1.286864
1.303554
1.290441
1.329780
1.335740
1.372695
1.426935
1.488924
1.226664
1.497865
1.478791
1.558661
1.442432
1.713634
1.353621
1.712441
1.566410
1.643896
1.735687
1.527667
1.786947
1.738667
1.871586
2.020597
1.962781
2.053976
2.115965
2.484918
3.610849
16.847849
47.351718
138.347745
257.354379
489.408970
702.833533
972.926617
1015.805006
1015.805006
1015.805006
884.238482
690.298676
433.167815
269.726515
124.113560
63.064694
26.909709
19.362569
24.149418
32.490492
49.628615
65.056682
89.658499
107.181668
125.755668
132.648945
131.025910
125.029683
107.302666
90.869665
68.906546
54.153800
40.632486
33.818483
28.730631
26.630759
25.902987
26.602745
26.540756
27.465820
27.691722
27.862787
28.400421
28.331876
29.058456
28.676987
28.825998
29.061437
29.737949
28.847456
28.917789
29.373765
28.774738
28.178692
27.818680
28.178692
27.259588
27.077794
27.079582
26.311874
26.084781
##ZVALUE=310
1.308918
1.349449
1.074672
1.178980
1.225471
1.472831
1.320839
1.349449
1.275539
1.286864
1.271963
1.265407
1.427531
1.284480
1.441836
1.272559
1.133680
1.485944
1.359582
1.391768
1.335740
1.431704
1.376867
1.482964
1.525879
1.513958
1.585484
1.549721
1.812577
1.743436
1.870990
1.731515
2.092719
2.074838
2.236962
2.347827
2.811551
6.266832
28.940439
69.900751
181.056857
317.950845
570.948720
787.343979
1012.215614
1015.805006
1015.805006
1006.269455
782.315731
580.564737
339.801908
201.881528
89.559555
45.166612
20.289421
17.872453
23.031831
30.057430
43.888688
58.339834
81.029534
98.537803
116.683841
124.422908
126.520991
120.065808
105.465651
90.306997
67.198873
54.295659
40.550828
33.774972
29.417872
27.488470
26.623607
27.454495
26.715994
28.027892
27.998686
27.922988
29.235482
28.651953
29.364824
29.552579
29.173493
29.056668
29.511452
29.065609
28.934479
28.643608
28.554797
27.315617
27.858615
27.672648
26.606917
26.769638
##ZVALUE=315
1.371503
1.408458
1.221895
1.280904
1.426935
1.222491
1.293421
1.385808
1.394749
1.541972
1.349449
1.337528
1.310706
1.455545
1.375675
1.566410
1.396537
1.345873
1.462698
1.281500
1.304746
1.591444
1.538992
1.617670
1.653433
1.705885
1.684427
1.719594
1.808405
1.733899
1.904964
1.986623
1.792908
2.043843
1.987815
2.008677
2.102852
2.570748
2.474785
4.156828
12.513995
49.251914
109.924674
257.633924
430.879593
711.503029
900.025964
1015.932560
1015.932560
1015.932560
914.778709
664.721727
470.035672
249.669552
138.839483
55.400729
27.671456
16.802549
17.167926
22.229552
28.418899
42.171478
54.984689
75.745583
92.276931
111.619830
118.211508
121.969581
115.779638
99.839568
86.477995
67.939758
53.805709
41.342974
34.283996
29.996634
27.772784
27.300715
27.587414
28.313994
28.128624
28.729439
28.908849
29.312968
29.511452
29.619932
29.787421
29.377937
29.782653
28.952956
28.904676
28.078556
28.322935
27.880669
27.755499
27.380586
##ZVALUE=320
1.269579
1.328588
1.143813
1.264811
1.257658
1.191497
1.293421
1.132488
1.278520
1.200438
1.370907
1.273751
1.256466
1.345873
1.424551
1.325607
1.428723
1.527667
1.286864
1.329780
1.492500
1.654625
1.338720
1.351833
1.461506
1.406670
1.450777
1.335740
1.604557
1.557469
1.614690
1.553893
1.800656
1.795888
1.752973
1.872778
1.892447
2.047420
2.162457
2.395511
2.278686
2.752542
5.877614
28.512478
69.829822
188.402534
316.808820
545.822978
746.785998
984.109640
1015.921831
1015.921831
1002.002954
770.046711
569.068789
319.813490
185.497999
81.045628
39.124489
17.981529
14.599562
16.166568
18.776655
26.146770
34.522414
52.078962
68.427920
86.413622
101.252794
113.253593
114.938617
108.736753
99.396706
81.069469
67.182779
50.935745
42.074919
34.113526
30.760765
28.169751
28.379560
28.019547
28.605461
29.015541
28.974414
28.871894
29.034615
29.161572
28.787851
28.244853
29.011965
28.716922
28.640628
28.049946
27.685761
27.298927
##ZVALUE=325
1.455545
1.384616
1.457930
1.421571
1.403689
1.438856
1.293421
1.511574
1.417994
1.256466
1.300573
1.383424
1.364946
1.226664
1.413822
1.439452
1.403689
1.485944
1.440644
1.567602
1.553893
1.335740
1.592636
1.457930
1.661777
1.607537
1.654625
1.640916
1.534820
1.684427
1.584888
1.528859
1.619458
1.822710
1.791716
1.895428
2.016425
1.965761
2.154708
2.083778
2.087951
2.305508
2.457500
2.637506
3.855824
18.815994
47.891736
126.267672
230.923891
443.017483
630.884767
887.442827
1012.747884
1016.061902
1016.061902
842.529535
646.699667
395.420790
239.939690
108.328462
54.517984
20.345449
13.879538
12.937784
14.558434
18.785596
24.072528
35.164952
47.838688
67.782998
82.974434
98.465681
106.764436
110.014677
103.835464
90.962648
78.793764
62.610507
51.527619
40.077567
34.153461
30.257702
28.902888
28.304458
28.294921
28.283596
27.692914
28.494596
28.432608
28.223991
28.053522
28.241873
27.474761
27.471781
27.809739
27.449727
##ZVALUE=330
1.067519
1.042485
0.940561
1.059771
1.048446
0.992417
1.043677
1.108646
1.107454
1.138449
1.054406
1.127720
1.087785
1.194477
1.154542
1.275539
1.214743
1.155734
1.161695
1.202822
1.113415
1.184940
1.124740
1.284480
1.208782
1.131892
1.133680
1.263618
1.173615
1.384616
1.475811
1.444817
1.356602
1.292825
1.434684
1.516938
1.484752
1.349449
1.574755
1.647472
1.610518
1.560450
1.709461
1.735687
1.991987
2.380610
2.620816
9.512901
28.385520
86.978674
167.263746
337.541699
509.111881
759.864450
927.077532
1015.805006
1015.805006
897.678733
731.277466
486.698747
311.913490
144.349933
74.834824
29.827952
16.028881
12.377501
12.920499
14.801621
17.680526
24.958849
33.282638
48.173666
61.860681
80.876946
93.194842
101.127625
104.119778
98.125935
89.857578
73.520541
61.626434
48.113465
40.598512
33.340454
31.001568
28.625727
27.212501
27.366877
27.377605
27.451515
27.029514
26.939511
27.334690
26.826859
26.664734
26.638508
##ZVALUE=335
0.865459
0.820756
0.927448
0.866652
0.896454
0.844598
0.849962
0.909567
0.847578
0.924468
0.925660
0.951886
1.025796
0.951886
0.870824
0.960827
1.024604
0.956655
0.915527
0.818968
0.825524
0.982881
0.988841
0.947714
0.970960
1.069903
1.060963
1.051426
1.186728
1.004934
1.073480
1.167655
1.084805
1.074672
1.190901
1.203418
1.132488
1.204610
1.344681
1.089573
1.259446
1.435876
1.256466
1.422763
1.551509
1.731515
1.710653
1.720786
2.249479
4.391670
15.803576
60.177445
122.406483
262.745619
419.642925
667.582750
840.052962
998.034477
1015.653014
935.008526
796.257854
556.487441
381.769538
200.049877
107.085705
39.864779
19.771457
12.680888
12.409687
13.377666
14.728904
18.605590
23.299456
34.478903
45.156479
62.729716
74.620843
88.774562
96.655488
99.141002
94.484687
82.099438
72.475672
60.122609
50.004721
39.881468
34.501553
29.734969
28.174520
25.973916
26.106834
25.252700
25.947690
25.442839
25.947690
25.671721
##ZVALUE=340
0.795722
0.952482
0.891685
0.964999
1.165867
0.997782
1.178980
1.018643
1.086593
1.145601
1.019835
1.053810
1.119971
1.130700
1.155734
1.075864
1.085997
1.105666
1.023412
0.998974
0.998974
0.967979
1.116991
1.156926
1.049638
1.196861
1.139641
1.074672
1.146793
0.991821
1.216531
1.122952
1.106858
1.111627
1.215935
1.273751
1.258850
1.463890
1.426935
1.347661
1.513958
1.367927
1.580715
1.531839
1.640916
1.653433
1.502633
1.646876
1.727939
1.779795
2.036691
2.982616
7.404685
36.127567
89.811683
214.837790
356.103778
577.283502
746.922493
922.911763
992.127657
952.999592
839.494467
636.503696
456.848741
249.285698
137.739778
54.301620
25.435686
13.762712
12.739897
12.961626
13.580918
15.706420
18.985868
25.355816
33.125877
45.832992
57.328939
73.484778
84.615946
92.351437
92.852712
88.498592
81.716776
68.750978
59.700608
47.793984
39.863586
32.630563
29.317737
25.585890
25.335550
24.431944
24.206638
23.974776
##ZVALUE=345
0.994802
0.988841
1.045465
0.961423
0.875592
1.002550
0.903606
0.908971
0.975728
0.944734
1.024604
1.172423
0.944734
0.832677
1.170635
1.114607
1.036525
1.112819
1.048446
1.027584
1.087785
0.943542
1.104474
1.016855
1.135468
1.182556
1.057982
1.093745
1.114607
1.087785
1.114607
1.003742
1.057982
1.069903
1.293421
1.190901
1.160502
1.135468
1.292825
1.234412
1.237988
1.319647
1.186728
1.498461
1.475811
1.439452
1.445413
1.558661
1.692772
1.617670
1.712441
1.835823
1.855493
2.070665
3.989935
20.963550
56.334734
147.233605
258.472562
462.350845
632.666945
843.674541
944.446921
967.611670
891.742706
698.925853
529.208779
315.698981
182.635784
75.379610
36.807656
16.583800
12.596846
12.752414
13.137460
14.056563
15.203953
18.644929
22.715926
31.966567
41.684508
57.007670
66.848993
78.529716
83.910823
87.005496
84.943771
76.320767
68.287849
56.188703
46.516657
36.967993
31.794906
26.601553
25.205612
23.962855
##ZVALUE=350
0.860691
0.937581
0.922680
0.952482
0.937581
1.042485
0.945926
1.021624
0.932813
1.067519
1.021624
0.905991
1.033545
0.980496
1.050830
1.107454
1.138449
0.945926
1.066923
1.053810
1.187921
1.116991
1.040697
1.034737
1.008511
1.159906
1.079440
1.163483
0.899434
0.953674
1.030564
1.137853
1.041889
1.265407
1.238585
1.078844
1.193881
1.229644
1.060963
1.090765
1.142621
1.236796
1.184940
1.207590
1.255870
1.369715
1.371503
1.472831
1.410842
1.426935
1.514554
1.467466
1.562834
1.758933
1.909733
2.058744
2.613664
11.807680
35.696626
105.719566
198.116899
384.901762
549.427867
759.741664
889.102817
961.151719
919.290781
770.558715
601.039529
366.225839
227.757692
106.197596
52.684546
19.235611
12.678504
12.014508
12.256503
12.955666
13.233423
15.133619
17.200708
22.656918
28.240681
38.818717
48.468709
60.836673
69.084764
77.110529
79.421997
77.466965
72.350502
61.827898
53.875446
43.488741
36.760569
29.746890
##ZVALUE=355
1.004934
0.956655
0.947714
0.928640
0.943542
1.012683
0.861883
0.988841
0.939965
1.042485
0.918508
0.886917
1.023412
0.933409
0.928640
0.897646
0.910759
1.078844
0.911951
1.122952
1.013875
1.043677
0.953674
0.983477
0.975728
1.057982
1.195669
1.069903
1.138449
1.098514
1.107454
1.017451
1.125932
1.118779
1.049638
1.205802
1.148582
1.080632
1.286864
1.123548
1.120567
1.179576
1.226664
1.170635
1.334548
1.375675
1.250505
1.396537
1.361966
1.351833
1.484752
1.332760
1.561642
1.510978
1.404881
1.718998
1.875758
1.891851
2.101660
5.293489
18.489957
70.065856
142.223835
295.090675
458.980799
698.724985
845.689774
950.725675
944.781899
809.487700
658.895969
441.198945
282.599926
129.178762
64.017773
23.414493
13.364553
11.342764
11.441708
12.233853
12.626648
13.154745
14.150739
17.130971
20.168424
26.574731
32.901764
43.648481
52.819848
61.976910
69.828629
72.518587
71.671605
66.467524
57.695508
49.875975
##ZVALUE=360
0.979900
0.889897
0.836849
0.980496
0.800490
0.923872
0.913739
0.976920
1.091957
0.889897
0.868440
0.899434
0.886917
0.873804
0.968575
0.931621
0.844598
0.988841
0.853539
0.909567
1.006722
1.010895
1.051426
1.192689
1.046658
1.066923
0.927448
0.979900
0.995994
0.939965
1.126528
1.071692
1.039505
1.068711
1.199841
1.012683
0.956655
1.137853
1.092553
1.174808
1.018643
1.037717
1.043677
1.230836
1.210570
1.150966
1.260638
1.170635
1.296997
1.214743
1.319647
1.458526
1.314878
1.375675
1.482964
1.688600
1.590848
1.663566
1.877546
1.925826
2.063513
2.976656
7.508993
32.541752
80.710649
206.339955
345.286727
567.489862
748.151541
917.304754
958.135724
886.040926
750.485659
515.209436
346.143842
171.848536
91.426969
36.072731
17.481446
10.819435
10.787845
11.121631
11.384487
11.822581
12.293458
13.259649
14.639497
17.862916
21.385550
28.515458
36.094785
46.106577
54.042935
61.417818
65.354705
65.890551
##ZVALUE=365
0.892878
0.902414
0.890493
0.862479
0.927448
0.829697
0.987649
0.903606
0.924468
0.781417
0.903606
0.961423
0.742674
0.972748
0.928640
0.954866
0.949502
0.945926
0.886917
1.031756
0.984669
1.046658
0.833869
0.901818
1.019835
1.012683
0.962615
0.972748
0.993609
0.989437
1.059771
0.974536
1.061559
0.924468
1.121759
0.837445
0.787973
1.030564
0.991821
1.102686
1.081824
1.043677
1.188517
1.184940
1.218915
1.176000
1.103878
1.252890
1.125932
1.357794
1.258850
1.163483
1.218915
1.317859
1.186728
1.314878
1.410842
1.514554
1.661777
1.533628
1.744628
1.787543
2.041459
2.331734
3.633499
16.416907
45.646429
127.728581
242.557526
464.099646
642.262697
837.087631
931.610465
924.990773
813.409686
597.942472
424.986482
234.815478
128.697753
48.840642
22.433996
11.268854
9.694695
10.065436
10.298491
10.625720
10.943413
11.207461
11.929870
12.808442
15.077591
19.615889
23.873448
32.038689
39.294958
48.490763
##ZVALUE=370
0.931621
0.924468
0.998974
0.891685
0.942945
0.953674
0.858903
1.079440
0.796914
0.865459
0.873804
0.991821
0.868440
0.919700
1.068711
1.004934
1.023412
0.890493
1.012683
1.102686
0.954866
0.935793
1.188517
0.988841
1.019835
0.938773
1.073480
0.969768
1.007915
1.030564
1.124740
1.046658
1.072884
1.037717
0.926852
1.015663
0.962615
1.070499
1.050830
1.067519
1.122952
0.967979
1.079440
1.021624
0.973940
1.210570
1.257658
1.303554
1.169443
1.226664
1.150966
1.266599
1.354814
1.242757
1.387596
1.316667
1.208782
1.450777
1.442432
1.550913
1.600981
1.640916
1.725554
1.692772
1.862645
2.071857
2.498627
8.804798
27.848482
91.548562
176.788568
349.924564
523.783565
758.699775
883.843899
928.067565
856.002569
677.853823
502.020717
282.900929
159.650445
64.566731
31.736493
13.822913
9.874701
9.469986
9.527802
9.513497
9.663701
10.091662
10.081530
11.024475
11.748672
13.931990
16.567707
22.054911
##ZVALUE=375
0.921488
0.867844
0.776649
0.934601
0.875592
0.804663
0.828505
0.880957
0.934601
0.990629
1.039505
0.846982
0.761747
0.991821
0.906587
0.967979
0.852942
1.080632
1.049638
0.731945
0.892878
0.969768
1.002550
0.760555
1.009703
0.957847
0.978708
1.043677
0.910759
1.013875
1.007915
0.979900
1.112819
0.818968
1.105666
1.114607
1.072884
1.061559
1.105666
1.051426
1.036525
1.015663
1.130700
1.105666
1.195669
1.243949
1.244545
1.164675
1.123548
1.058578
1.025796
1.035929
1.141429
1.226664
1.098514
1.282692
1.193881
1.305938
1.215935
1.313686
1.284480
1.369715
1.449585
1.293421
1.492500
1.570582
1.636744
1.858473
2.117753
4.820824
15.826821
55.350661
117.163658
266.939402
427.461863
662.505627
810.824633
920.476913
907.869935
759.083033
589.452982
357.970595
227.534771
111.031532
56.725740
20.455718
10.933876
8.277893
8.515716
8.532405
8.571744
9.112954
9.179711
9.715557
9.947419
10.801554
##ZVALUE=380
0.846982
0.901818
0.786781
0.876784
0.816584
0.912547
0.981688
0.874996
0.948906
0.862479
0.813603
0.824928
0.866652
0.821948
0.906587
0.893474
0.830889
0.899434
0.832677
0.830889
0.921488
0.979900
0.727773
1.026988
1.037717
0.837445
0.976920
1.102686
0.945926
1.058578
0.906587
0.987649
1.113415
1.110435
1.140833
0.953674
1.073480
0.998974
0.969768
1.005530
0.993609
0.968575
0.898838
1.117587
0.831485
0.900626
1.078844
1.006722
1.091957
1.157522
1.143813
1.132488
0.967979
1.171827
1.084805
1.142621
1.158714
1.112819
1.230836
1.264811
1.136661
1.311898
1.275539
1.399517
1.386404
1.554489
1.411438
1.612902
1.627803
1.782775
2.057552
2.934933
8.643866
38.707852
88.593960
208.180547
343.526602
556.155443
725.296736
886.187553
913.757682
807.914734
670.566559
469.871759
314.222574
156.000853
80.273747
29.443502
13.858676
8.364916
7.810593
7.935762
7.944703
8.342862
8.312464
8.819699
##ZVALUE=385
0.875592
0.895858
0.869632
0.818968
0.819564
0.805855
0.963807
0.862479
0.839829
0.778437
0.851750
0.894666
0.892878
0.796914
0.939965
0.788569
0.795722
0.858903
0.829697
0.928640
0.922680
1.065731
0.734925
0.929832
0.812411
0.944734
1.004934
0.916719
1.040697
0.940561
0.983477
1.022816
0.846982
0.855923
0.832677
0.923872
0.927448
0.916719
0.932813
0.926852
1.044869
0.917912
1.110435
1.013875
0.961423
1.002550
0.993609
0.937581
0.981688
0.971556
1.073480
1.105666
1.042485
1.079440
1.117587
1.090765
1.116991
1.042485
1.172423
1.185536
1.133680
1.306534
1.226664
1.185536
1.374483
1.384616
1.335740
1.538992
1.437664
1.559854
1.607537
1.766682
1.928806
2.125502
4.223585
21.632910
55.729747
142.861605
254.385471
461.244583
632.642508
808.046460
875.090957
854.766965
762.986541
568.974614
407.469869
223.034620
126.826763
52.571893
22.704601
8.854866
7.191896
6.969571
7.286668
7.117987
##ZVALUE=390
0.752807
0.897646
0.895858
0.843406
0.827909
0.947714
0.737906
0.772476
0.759959
0.715852
0.574589
0.841618
0.572801
1.082420
0.872612
0.970960
0.855923
0.830889
0.936985
0.788569
0.761747
0.866652
0.979900
0.858903
0.864863
0.859499
0.939965
0.909567
0.920892
0.934601
0.931621
0.897646
0.904799
0.901818
1.133680
0.852942
1.053810
1.016855
0.886917
0.891685
0.993609
0.920892
0.968575
0.951886
0.912547
0.970960
0.962615
0.925660
0.942945
0.916719
1.112819
1.139641
1.020432
1.023412
1.059771
1.013875
1.039505
1.049638
0.971556
1.206994
1.124740
1.154542
1.280904
1.198649
1.256466
1.203418
1.150966
1.405478
1.446605
1.613498
1.518726
1.731515
1.587868
1.750588
1.804829
1.792908
2.515912
11.041760
33.208728
101.794600
193.817616
371.824503
527.696013
717.788935
821.288824
862.502456
810.326934
653.839707
504.508615
310.859680
181.724429
76.328516
36.385655
13.029575
7.697940
6.565452
##ZVALUE=395
0.763535
0.758767
0.893474
0.832677
0.874996
0.818968
1.064539
0.887513
0.908971
0.969768
0.788569
0.901818
0.981688
1.023412
0.749826
0.869632
0.959635
0.670552
0.759959
0.910759
0.950694
0.923872
0.850558
0.863671
0.773668
1.023412
0.857711
1.005530
0.996590
0.955462
0.756979
0.927448
0.911951
0.888705
0.985861
0.947714
0.829697
0.981688
0.859499
1.010895
0.796914
0.911951
0.831485
0.972748
0.964999
1.003742
0.988841
1.022816
0.970960
0.916719
1.064539
1.022816
0.936985
1.075864
0.953674
1.080632
1.161695
1.148582
1.043677
0.993609
1.170635
1.097918
1.132488
1.132488
1.155734
1.150966
1.142621
1.284480
1.464486
1.240969
1.475811
1.538992
1.492500
1.496673
1.673698
1.709461
1.565814
1.722574
2.165437
6.612539
21.788478
75.347424
143.044591
277.238488
417.066813
624.568462
758.645535
856.235027
846.115947
728.628635
576.970577
361.373425
225.817561
100.235939
49.147606
17.600656
##ZVALUE=400
0.853539
0.937581
0.707507
1.051426
0.853539
0.893474
0.868440
0.939965
0.767708
0.893474
0.961423
0.854731
0.866652
0.857711
0.856519
0.940561
0.812411
0.976920
0.996590
1.012683
0.875592
0.991821
1.011491
0.851750
1.025796
0.993609
0.877976
0.995994
0.837445
0.995994
0.996590
1.045465
1.016855
0.942945
0.971556
0.892878
1.011491
0.932813
1.071692
0.883937
1.191497
1.111627
1.148582
1.003742
0.998974
1.026988
1.108646
0.989437
1.061559
0.994802
1.003742
0.953674
0.981688
1.067519
1.008511
1.098514
1.077652
0.948906
1.053810
1.068711
1.083612
1.206994
1.143813
1.151562
1.196861
1.220703
1.184940
1.397729
1.382828
1.436472
1.502633
1.533628
1.531839
1.559854
1.533628
1.597404
1.419783
1.518726
1.451969
1.769662
1.967549
3.710985
11.635423
41.249990
89.613795
204.037428
332.527757
530.089736
672.080517
801.065564
830.302835
744.258761
619.403720
414.849520
274.618864
138.918757
##END
