##TITLE=
##FORMAT=SPECTACLE-ASCII V-1.2
##DATA TYPE=ULTRAVIOLET SPECTRUM
##SECOND TYPE=ULTRAVIOLET SPECTRUM
##DATE=09/25/17
##TIME=15:25:31
##SPECTROMETER/DATA SYSTEM=SPECTACLE
##XUNITS=NM EM
##YUNITS=ENERGY
##YFACTOR=1
##FIRSTX=220
##LASTX=410
##NPOINTS=96
##3DDATA=Equidistant
##ZUNITS=NM EX
##FIRSTZ=210
##LASTZ=400
##ZPOINTS=39
##XYDATA=(Y..Y)
##ZVALUE=210
4.315972
4.154444
4.220605
4.044771
3.673434
3.596544
4.288554
3.961921
4.591942
4.146695
4.078746
3.639460
3.892779
3.916621
3.520846
3.350973
4.025698
4.281998
4.062653
3.566742
3.789663
4.741549
4.319549
3.831983
4.295707
4.595518
4.488826
5.181432
4.688501
4.533529
4.523993
4.707575
5.070567
5.281568
5.441904
5.236864
5.215406
5.471706
6.617904
6.151795
6.305575
5.822778
5.442500
6.375909
7.018447
6.684661
6.268620
6.790757
6.196499
6.395578
6.274581
6.599426
6.887913
7.034540
7.440448
6.683469
6.856918
6.786585
6.960630
7.178783
6.660819
7.316470
8.170605
7.800460
6.609559
8.170605
7.236600
8.640885
8.673668
9.840727
11.862516
11.918545
12.989640
15.085936
16.712546
18.476844
20.949841
21.868944
19.894838
19.765496
19.326806
19.125938
16.710758
16.100407
14.070868
11.440516
10.128617
9.666681
8.587837
7.426739
7.171631
7.825494
7.780790
7.843971
8.029938
7.784963
##ZVALUE=215
6.914735
6.935596
6.250739
6.061792
5.885959
5.014539
5.006790
5.118847
4.941821
4.558563
4.983544
5.298853
4.461408
4.622936
4.049540
4.028678
4.059672
3.779531
3.984571
3.851652
3.753901
3.856421
4.321933
4.483461
4.589558
4.438758
4.302859
4.614592
4.747510
4.822612
4.831553
5.178452
5.266666
5.249977
5.516410
5.240440
5.746484
5.746484
6.204844
6.485581
6.126761
5.839467
6.522536
6.438494
6.518960
6.437898
6.476641
6.812811
6.482601
7.663965
6.797910
6.443858
7.276535
7.345676
7.265806
7.508993
7.693768
7.547736
6.952882
8.386970
6.996989
7.075667
7.998943
8.004904
7.350445
7.524490
7.207990
8.747578
9.720922
10.097623
10.147691
11.539459
13.244748
13.859868
16.921759
18.514991
18.030405
18.217564
18.735528
16.488433
17.169714
16.171932
16.292930
13.777614
12.709498
10.399818
10.280609
8.523464
8.491874
8.218884
7.535815
7.936954
7.178783
7.064939
7.668734
6.936789
##ZVALUE=220
10.791421
12.184978
13.053417
14.950633
14.600754
13.275743
10.926723
8.897781
7.840991
6.378889
7.084608
6.316900
7.187724
6.768703
6.117821
5.804896
5.169511
4.723668
4.503727
4.213452
4.142523
4.290938
4.408956
4.100800
4.301667
4.466772
5.186796
5.024672
4.752874
4.657507
5.022883
5.675554
5.554557
5.604625
5.767941
5.857944
6.485581
6.858706
7.239580
7.648468
7.079840
7.354617
7.384419
7.975698
7.921457
7.749796
7.680655
8.545518
8.080602
7.066727
8.639693
7.690787
7.915497
8.035898
7.471442
8.221865
7.710457
7.883906
7.685423
8.236766
8.208752
8.596778
8.654594
8.672476
9.032488
8.924603
9.246469
8.415580
9.295940
10.441542
11.468530
11.847615
14.404655
15.595555
16.168952
18.150806
17.072558
17.646551
18.318892
17.127991
18.053651
16.962886
15.058517
15.174747
14.531612
11.623502
10.635853
8.930564
8.565784
8.757710
8.209944
7.903576
8.476973
7.862449
8.292794
7.341504
##ZVALUE=225
13.240576
13.494492
17.275810
24.014711
29.145479
32.842755
33.073425
30.414462
26.560426
19.726753
13.803840
10.124445
8.353591
9.528995
10.103583
9.870529
9.892583
10.465980
7.496476
7.114410
5.950928
5.200505
4.350543
4.540682
4.420877
4.960895
4.355907
4.615784
5.211830
5.542636
5.022883
5.809665
6.559491
6.520748
6.028414
6.585717
7.985830
6.873608
7.876754
8.539557
8.188486
8.333921
9.663701
9.233952
9.021759
9.260774
7.954836
9.424686
8.831620
8.402467
8.936524
9.319782
8.589625
9.415746
9.548664
8.873940
8.208752
9.487867
8.971691
9.785891
8.919835
9.840727
8.977652
9.273887
9.950995
9.081960
9.031892
8.780956
10.068417
10.250807
10.347962
13.055801
13.446808
15.312433
16.486645
16.449690
17.505884
17.079711
16.601682
15.732646
15.486479
14.856458
13.229847
14.117956
12.254715
11.146665
11.316538
9.930730
10.335445
9.377599
8.936524
8.608699
8.138418
8.621812
8.264780
9.366870
##ZVALUE=230
8.493662
10.523796
15.149713
25.942922
35.939813
52.736998
64.626932
71.950555
76.354742
72.680712
60.263872
40.907860
28.487444
17.581582
12.718439
12.457967
15.201569
16.339421
17.067790
15.495420
13.347864
11.323690
7.773638
6.492734
5.014539
4.778504
5.298853
5.246997
5.473495
4.954934
5.306602
6.086826
6.286502
7.412434
7.889867
8.160472
9.651780
8.942485
8.195639
10.286570
9.998679
9.767413
10.983944
10.683537
10.366440
10.370612
10.142922
9.713769
11.262894
11.149645
9.922981
10.128617
9.466410
9.655952
9.709597
9.966493
9.945631
10.407567
10.244846
11.054873
11.430979
10.453463
10.408759
10.225773
10.591745
10.277629
10.155439
10.975599
12.133718
11.961460
12.164712
13.993979
15.369654
16.462803
16.735792
18.560886
18.548965
18.069744
17.803907
17.296672
17.045736
16.781688
15.567541
14.734864
13.312697
13.198853
11.786819
11.696815
11.040568
10.240674
10.138750
9.413958
9.734631
9.297729
9.479523
10.401607
##ZVALUE=235
4.808903
5.522966
7.081628
13.377666
24.173856
41.779876
63.082576
98.815560
123.873949
144.445896
149.370432
141.704679
114.274621
86.351633
52.772760
34.479499
20.167828
17.057657
20.612478
23.497939
22.522807
21.606684
20.489693
17.022491
13.882518
9.446740
8.835793
6.817579
7.002950
7.335544
7.284880
5.973577
7.927418
7.705688
8.855462
9.478927
8.903742
9.296536
10.266900
10.117888
9.577870
10.931492
10.424852
10.631680
11.208653
9.959936
9.942651
11.401772
11.181831
10.110736
10.755658
10.632873
11.156797
10.398626
10.582805
10.834932
11.161566
11.007786
11.160970
11.781454
10.508895
10.593534
12.118816
11.524558
11.369586
10.895729
12.498498
11.781454
12.079477
12.645721
14.213920
14.190674
16.844869
20.329952
19.959807
20.703673
21.678805
19.753575
19.520521
19.344687
18.593669
17.501712
16.628504
16.028881
15.020967
14.255643
13.627410
12.902617
11.766553
11.157990
11.522770
11.308789
12.012720
12.885928
11.150837
11.311769
##ZVALUE=240
3.886819
3.643632
4.296899
5.445480
8.756518
16.941428
34.869909
55.106878
104.537606
143.576860
201.592445
233.786702
239.704847
233.590007
199.796557
136.638880
98.093748
53.495765
32.429695
21.313429
24.596453
27.642846
33.724904
32.609701
31.001568
26.849508
23.348927
17.281771
14.007688
11.309981
9.422898
9.312630
9.885430
8.518696
9.011626
9.506941
9.480715
9.129643
9.947419
9.901524
10.802746
9.780526
9.475946
10.261536
10.422468
9.795427
9.266734
9.974837
9.539723
10.005832
9.913445
10.706782
10.373592
10.930896
10.191798
10.595918
10.269880
10.406971
10.310411
10.105968
10.077953
10.065436
11.046529
11.474490
11.124611
11.594892
12.290478
11.707544
12.444854
11.753440
13.512969
15.050769
17.037988
17.991662
18.100739
19.123554
19.244552
20.803809
18.868446
18.496513
18.788576
16.353726
16.699433
15.969872
13.810992
13.649464
12.507439
13.890862
14.327765
12.193918
12.200475
13.760924
12.167692
11.717677
11.299849
11.134744
##ZVALUE=245
2.678633
2.805591
2.810955
3.189445
2.972484
4.421473
7.210970
16.797781
29.998422
53.701997
104.471445
156.617761
231.585503
272.871852
304.995775
303.699970
258.274674
201.839805
134.865642
87.225437
50.324798
25.383830
23.086667
30.276775
33.755898
37.859678
37.723780
34.906864
30.447841
26.448965
20.767450
15.691519
12.090802
10.405779
9.335876
8.321404
8.392930
8.862615
8.551478
7.783771
8.248687
8.691549
7.983446
7.629991
7.285476
7.586479
7.921457
7.718801
7.686615
7.470846
7.884502
7.975698
7.956624
8.203983
7.718801
8.246899
7.976890
8.616447
8.408427
8.569956
8.879900
8.658767
9.134412
9.846687
9.287000
9.251833
9.922981
9.237528
10.577440
10.632873
11.827946
12.396574
14.112592
14.833808
15.605688
16.416907
16.548634
18.118620
16.709566
15.687943
15.362501
15.532970
14.326572
13.467669
12.778640
12.848973
12.339950
12.215972
10.919571
10.964870
11.436939
10.990500
11.334419
10.816455
10.830760
9.856820
##ZVALUE=250
2.561808
2.406836
2.484918
2.198815
2.454519
2.545714
2.664924
3.688931
6.495714
12.462735
27.967691
55.556893
92.289448
163.204670
221.801996
311.147571
354.103446
363.917947
347.023606
275.679827
198.798776
131.457448
64.395666
35.965443
22.891760
26.876926
31.758547
35.232902
38.163662
38.416982
38.344860
32.277703
27.656555
20.624995
15.620589
10.593534
8.285642
8.270741
7.659793
6.843805
7.379651
6.910563
6.559491
6.417632
6.652474
7.094741
7.530451
7.156730
6.640553
6.715655
7.019639
7.300973
6.915927
6.877780
7.911921
7.496476
7.347465
8.259416
7.881522
7.441640
8.212924
7.638931
8.666515
7.784963
8.264780
8.378625
8.313656
9.219646
8.668900
8.612871
9.833574
10.643601
11.735559
12.574792
13.616681
14.267564
13.692975
14.172792
14.000535
12.751818
13.501644
12.564659
11.816621
10.923743
11.133552
9.633899
10.120869
9.650588
9.570718
9.495616
8.830428
10.015965
8.962750
9.466410
9.479523
8.671880
##ZVALUE=255
2.168417
2.090931
2.272725
2.405643
2.230406
2.272725
2.091527
2.175570
2.677441
2.500415
5.355477
10.683537
20.092726
45.105815
80.265999
154.556632
219.447613
326.289535
392.935872
443.656445
431.769490
385.679007
280.134678
184.612870
91.741681
51.300526
25.677681
22.671819
27.025938
32.462478
36.891699
40.938854
43.053627
36.904812
33.355951
24.531484
19.120574
13.577938
10.263920
8.282661
6.662607
7.036924
6.671548
6.901622
6.223917
5.837679
5.954504
6.311536
6.424785
6.308556
6.180406
6.414652
6.594658
6.352663
7.210970
6.401539
7.115602
7.009506
7.074475
7.736683
7.612705
7.604957
7.684827
7.809997
8.079410
7.614493
8.099675
8.481741
8.148551
9.094477
9.554625
9.598732
10.230541
10.385513
11.302829
11.397600
12.286901
11.437535
11.072755
11.096597
10.272861
10.341406
9.762645
9.636879
9.344816
8.812547
8.398890
8.718967
8.466840
8.269548
8.673668
8.350611
8.155704
8.658767
8.176565
7.784963
##ZVALUE=260
1.925826
1.769662
2.019405
1.957417
2.179742
2.030730
2.047420
2.115965
2.076626
2.207756
2.046824
2.404451
3.068447
6.703734
13.769865
35.724640
65.732598
131.351948
197.558999
322.935581
422.536731
494.042635
524.489880
485.946536
368.894935
270.153880
157.430768
92.690587
37.807822
20.374656
19.245744
25.644898
30.621886
37.309527
41.531920
40.582418
37.293434
30.853748
25.167465
18.651485
13.767481
9.317994
7.928610
6.875992
6.399751
6.640553
6.843805
6.443858
6.622672
6.705523
6.517768
6.336570
6.635785
6.446838
6.714463
7.040501
6.768703
6.841421
7.609725
6.931424
7.385612
6.971955
7.150769
7.386804
7.742643
7.340908
7.985830
7.624626
8.125901
8.676648
8.179545
8.432865
8.976460
9.550452
10.556579
10.069609
10.111928
9.714961
9.762645
9.449720
9.405613
9.028912
8.517504
8.317828
8.007884
8.150935
7.551908
7.485747
7.334948
6.969571
6.950498
6.563663
7.119775
7.388592
7.121563
7.528663
##ZVALUE=265
1.445413
1.351833
1.463890
1.631975
1.488924
1.676679
1.249909
1.630783
1.650453
1.471639
1.725554
1.537800
1.567602
1.760721
1.877546
4.806519
10.647774
26.783943
51.989555
113.958716
188.167691
285.753608
438.901782
537.895560
588.007569
568.001866
473.175645
365.423560
221.947432
131.540895
69.027543
24.053454
14.941692
19.692779
25.819540
33.558607
38.423538
40.494800
41.768551
38.467646
31.850934
23.052692
18.404722
12.882948
9.164810
7.609725
6.853938
6.628633
6.424785
6.661415
6.511807
6.546974
6.344914
6.337762
6.726980
6.648898
6.201863
6.637573
6.616712
6.449819
6.872416
6.837845
7.021427
7.192492
6.918907
6.930828
7.377863
6.914735
7.322431
7.211566
7.383823
8.251667
8.099675
8.520484
8.984804
8.728504
9.365678
8.823872
8.336902
8.204579
7.633567
7.581711
7.235408
6.892681
6.548762
6.542802
6.258488
6.143451
6.255507
6.351471
6.281734
6.379485
6.562471
5.850792
5.724430
6.319880
##ZVALUE=270
1.533628
1.625419
1.616478
1.573563
1.699924
1.627803
1.537800
1.874566
1.701713
1.786947
1.646876
1.882911
1.688600
1.755953
1.757741
1.873970
2.038479
2.690554
7.883906
17.233491
44.257641
83.179474
180.726647
281.578898
444.859862
563.152432
660.230517
678.727627
610.301495
503.179431
326.370597
206.390023
92.963576
41.568875
15.939474
14.305711
20.392537
26.765466
34.756660
39.808750
43.519735
42.798519
38.317442
33.012629
25.663972
19.800663
13.865829
10.893941
8.917451
7.918477
7.515550
7.118583
7.165670
6.555915
7.134676
7.257462
7.229447
7.086992
7.113814
7.408857
7.604957
6.951690
7.332563
6.822944
6.724596
6.760955
7.090569
7.310510
7.526875
7.670522
7.840991
7.908940
7.759929
8.164644
8.869767
8.685589
8.712411
8.073449
7.848740
8.140802
7.747412
7.141829
6.938577
6.892681
6.856918
5.783439
5.973577
5.913973
5.715489
6.074905
5.700588
6.299615
6.111860
6.286502
5.777478
5.971789
##ZVALUE=275
1.553893
1.504421
1.476407
1.426935
1.466870
1.469851
1.470447
1.496673
1.477599
1.607537
1.564622
1.766682
1.589656
1.778603
1.546741
1.659989
1.767874
1.780987
1.879930
2.209544
4.717708
14.384985
31.786561
64.857602
149.634480
242.903829
391.690731
528.490543
681.403875
741.529465
720.043778
625.333786
444.328785
295.288563
143.783689
73.721409
24.252534
12.834668
16.312599
20.958781
28.527975
34.665465
40.438771
42.396784
42.300820
39.876699
33.111572
26.853681
20.024776
14.750957
11.175871
9.217858
8.207560
8.059740
7.575750
7.134676
7.752776
7.480979
7.261634
7.337928
7.319450
7.296801
6.769896
6.939769
7.544756
6.915927
6.657839
6.979704
6.976724
7.010698
7.465482
7.735491
8.121729
8.131862
8.130670
8.521676
8.159876
7.656813
7.611513
7.978678
7.350445
7.303953
6.605983
6.454587
6.216764
6.019473
5.600452
5.593896
5.428791
5.792975
5.796552
5.743504
5.264878
5.657673
5.476475
5.635619
##ZVALUE=280
1.384616
1.301765
1.437664
1.234412
1.466870
1.274943
1.382828
1.501441
1.412630
1.416802
1.379848
1.435876
1.475811
1.360774
1.533628
1.633763
1.661777
1.545548
1.734495
1.863837
1.967549
1.909733
3.510714
8.747578
26.260614
50.937533
112.704635
188.901424
334.348679
474.101901
613.507628
753.282905
779.711604
688.368678
553.757548
345.918536
215.036869
95.428824
41.767955
13.956428
11.900663
16.913414
21.484494
29.251575
35.014749
40.937662
42.544603
41.593909
38.738847
30.992627
25.502443
18.471479
14.608502
10.535717
9.302497
7.931590
7.774830
7.382631
6.888509
7.216930
6.959438
7.444620
7.281899
6.645918
7.131696
6.956458
6.743670
7.053614
7.199645
7.199645
7.524490
7.360578
7.482767
7.720590
7.938743
7.847548
7.647872
7.434487
7.659793
6.947517
6.770492
6.641746
6.425977
6.116629
5.844831
5.608797
5.640984
5.700588
5.313754
5.544424
5.689859
4.911423
5.472898
5.354881
5.190969
5.009770
##ZVALUE=285
1.219511
1.333952
1.394749
1.288652
1.305938
1.381636
1.135468
1.266599
1.243949
1.342893
1.318455
1.334548
1.401901
1.463890
1.210570
1.385808
1.436472
1.512766
1.423955
1.469851
1.598597
1.505613
1.820922
1.677871
2.632737
5.746484
12.869835
36.044717
68.117976
149.487853
246.479511
425.768495
580.967665
754.856467
818.780661
789.659619
676.727891
457.737446
312.155485
156.243443
74.687600
22.166967
10.077953
11.372566
14.711618
21.396875
26.232600
32.369494
37.379861
40.424466
40.609837
36.718845
32.433867
24.300814
18.863678
13.405681
10.748506
8.380413
7.417798
6.400943
7.233620
6.913543
6.967783
7.246733
7.259846
6.793737
6.762743
6.810427
6.578565
6.983876
7.079840
6.711483
7.579923
7.106662
7.559657
7.242560
7.185936
7.023811
6.742477
7.024407
6.264448
6.358624
6.274581
6.047487
5.660653
5.547404
5.372763
5.587935
5.379915
5.014539
5.105734
5.201697
5.308986
5.419850
5.283952
5.224943
##ZVALUE=290
1.204610
1.195669
1.277924
1.268983
1.151562
1.258850
1.225471
1.278520
1.157522
1.237988
1.312494
1.324415
1.114607
1.238585
1.404881
1.354814
1.347661
1.198649
1.297593
1.481771
1.403689
1.398921
1.386404
1.590848
1.548529
1.737475
1.833439
3.043413
9.309649
20.932555
52.290559
103.563666
189.540982
361.147523
520.980954
740.482807
844.975710
869.289637
806.417465
611.350536
440.132022
236.644745
119.279623
34.633875
12.960434
7.948875
9.439588
13.146996
17.562509
24.301410
30.526519
36.696792
38.843751
39.301515
35.733581
29.256940
23.137927
17.238855
13.086796
9.571910
8.065701
7.103682
6.708503
6.453991
6.218553
6.367564
6.337762
6.496906
6.408691
6.784797
6.501675
6.532669
6.877780
6.727576
7.145405
7.071495
6.699562
6.540418
6.662607
6.165504
6.288886
5.989671
5.581975
5.773902
5.248785
5.543828
5.460978
5.462766
5.251765
5.324483
5.171895
5.236864
5.163550
4.744530
4.763603
4.711747
##ZVALUE=295
1.264811
1.210570
1.284480
1.192689
1.296997
1.154542
1.252890
1.285672
1.354814
1.279712
1.278520
1.359582
1.306534
1.411438
1.319647
1.495481
1.344681
1.329780
1.262426
1.225471
1.471639
1.437664
1.602769
1.495481
1.646876
1.733899
1.971722
1.736879
1.845956
2.154708
5.596876
12.636781
37.799478
77.107549
176.229477
288.515687
499.396920
684.883595
912.325978
1002.438068
1001.075506
874.523520
600.397587
385.675430
173.498988
80.442429
20.386577
7.915497
6.976724
8.703470
12.598634
16.987920
24.358630
29.212832
34.697652
37.318468
36.210418
33.673644
27.779937
22.786856
16.539693
12.598634
9.291768
7.502437
6.241798
5.903840
6.156564
5.979538
6.236434
6.091595
6.256700
6.020665
6.256700
6.371737
6.796718
6.969571
6.661415
6.295443
5.768538
5.823970
5.787611
5.776882
5.408525
5.243421
4.948974
5.252957
5.148649
5.239844
4.769564
5.208850
5.014539
5.054474
5.030632
4.828572
5.025864
4.844666
##ZVALUE=300
1.062751
1.042485
1.131892
1.083612
1.067519
1.074672
1.143813
1.053810
1.105666
1.203418
1.154542
1.064539
1.159906
1.228452
1.233816
1.150966
1.172423
1.134872
1.240969
1.202822
1.431704
1.127720
1.135468
1.193881
1.226664
1.534820
1.215935
1.557469
1.592636
1.551509
1.433492
1.851916
2.637506
8.855462
20.776987
57.361722
111.488700
240.860581
382.658839
622.158647
807.422996
981.612802
1007.643938
888.494849
702.850819
437.817574
268.030763
113.283992
47.330856
11.070967
6.026626
6.517768
7.842779
11.333823
15.985966
22.430420
27.774572
32.856464
34.182668
34.826994
31.976700
26.606917
21.868944
15.966892
11.959672
8.202791
6.521940
5.826950
5.380511
5.353689
5.467534
5.755424
5.694628
5.608797
5.582571
5.663633
6.001592
5.842447
5.439520
5.497932
4.930496
4.923940
5.201697
4.560947
4.857779
4.789829
4.991889
4.743934
4.992485
4.937649
4.930496
4.688501
4.689693
4.500747
4.643798
4.646778
##ZVALUE=305
0.997782
0.924468
1.071692
0.995994
0.804663
0.781417
0.964999
1.015663
0.930429
0.991821
1.062751
1.061559
1.113415
0.980496
1.112819
0.989437
1.023412
1.079440
1.050830
1.115799
1.189709
1.292825
1.204610
1.131892
1.229644
1.120567
1.160502
1.205802
1.300573
1.418591
1.512766
1.404881
1.553893
1.626611
1.965761
5.759597
14.514923
42.057633
86.100698
196.644664
326.816440
560.174584
777.184963
1000.117660
1015.940905
981.545448
821.242929
551.398993
353.721976
162.668824
71.465969
18.973947
7.268786
5.781651
6.504655
8.188486
10.802746
16.009808
20.659566
26.691556
30.742884
32.653809
32.840967
29.344559
25.483966
19.125938
15.026927
11.161566
8.064508
6.255507
5.377531
5.084872
5.321503
5.285740
5.421638
5.203485
5.249977
5.295873
5.079508
5.197525
4.764795
4.726648
4.966855
4.643798
4.461408
4.479885
4.579425
4.590750
4.687905
4.758835
4.789829
4.866719
4.467964
4.436970
4.394650
4.297495
##ZVALUE=310
1.011491
1.059771
0.869632
0.936985
0.918508
1.018643
0.842810
0.860691
1.035929
0.804663
1.066923
0.998974
1.145601
1.136661
1.210570
1.098514
1.103878
1.045465
1.013875
1.120567
1.078844
1.118779
1.095533
1.059771
1.024604
1.240969
1.117587
1.134872
1.343489
1.245737
1.409650
1.430511
1.367927
1.595616
1.695752
1.716614
1.784563
3.310442
8.055568
25.473833
54.782629
137.993693
248.991847
463.512540
681.049824
972.779989
1015.939713
1015.939713
997.201800
729.465485
501.449704
255.568624
130.030513
38.229823
12.297630
5.229712
5.192757
5.503893
7.095933
10.469556
13.509989
19.606948
23.573637
28.328896
30.868649
30.585527
28.700829
23.945570
19.987822
14.125705
11.035800
7.711649
6.453991
5.374551
5.166531
5.065799
5.115867
5.013943
4.591942
4.339814
4.652739
4.517436
4.654527
4.465580
4.448891
4.262924
4.450679
4.368424
4.387498
4.606843
4.471540
4.396439
4.380941
4.545450
4.579425
4.301667
##ZVALUE=315
0.958443
0.849962
0.727773
0.613928
0.954866
0.871420
1.013875
1.080632
0.776649
0.948906
0.985861
0.817776
1.167655
0.850558
0.998974
0.961423
1.026988
1.050830
1.107454
0.990629
1.041889
1.185536
1.108646
1.065731
0.965595
1.103878
1.201630
1.119971
1.163483
1.109838
1.002550
1.210570
1.201630
1.267791
1.319647
1.502633
1.378655
1.509786
1.659989
2.400875
4.637837
16.508698
38.216710
102.048516
198.372602
408.416986
597.425699
872.946978
1015.939713
1015.939713
1015.939713
879.201889
653.263927
358.932614
193.532705
62.209964
20.777583
6.135702
4.871488
4.899502
5.328655
6.826520
8.724928
12.748837
17.067790
22.866726
25.931001
28.404593
28.937459
26.497841
22.731423
18.643737
14.674664
10.326505
8.409619
6.018877
5.080700
4.583597
4.517436
4.246831
4.339814
4.050732
4.246831
4.361868
4.159808
4.209876
4.172921
4.428625
4.436970
4.286766
4.048944
4.306436
4.393458
4.347563
4.537702
4.248619
##ZVALUE=320
0.937581
0.929832
0.938773
0.975728
0.876784
0.840425
0.917912
0.925660
0.774860
0.725985
1.034737
0.912547
0.890493
0.885725
0.924468
0.895858
1.042485
1.085997
1.081824
0.975728
1.094937
0.859499
0.963807
0.962615
0.977516
0.973940
0.925660
0.931621
0.973940
1.101494
1.048446
1.111627
1.022816
1.059771
1.019835
1.248717
1.141429
1.374483
1.274943
1.510978
1.663566
1.923442
2.944469
9.550452
23.485422
72.215796
139.053464
287.736654
455.892682
736.688972
951.681733
1015.933752
1015.933752
997.178555
781.881809
458.773971
262.254477
100.494623
37.587881
8.428693
4.619956
4.706979
4.337430
4.639626
5.626678
8.408427
11.481643
15.646815
20.069480
24.627447
27.429461
27.331710
25.658607
21.183491
17.869473
12.972951
10.072589
7.140636
5.585551
4.340410
4.059672
4.147887
3.805757
4.014969
4.095435
3.742576
3.838539
4.276633
3.886819
4.013777
3.962517
4.092455
4.298687
4.126430
4.022717
4.159808
##ZVALUE=325
0.970960
0.865459
0.682473
0.853539
0.756979
0.847578
0.936985
0.936985
0.783801
0.818968
0.841618
0.768900
0.802875
0.860691
0.843406
0.822544
0.891685
0.965595
1.004934
0.887513
0.750422
0.819564
0.899434
0.885725
0.970960
0.988841
1.001954
1.024604
1.045465
0.972748
0.942945
1.198649
1.232624
0.995994
1.282692
1.086593
1.174808
1.178980
1.222491
1.376867
1.315475
1.302958
1.347661
1.689792
2.078414
6.483793
16.300678
47.184825
99.798441
231.193900
383.456945
647.779703
859.924555
1015.933752
1015.933752
1015.933752
889.734626
574.947596
352.506638
149.157643
60.701966
13.801455
5.176663
4.097819
3.897548
3.952980
4.263520
5.908608
7.706881
11.698604
14.978647
20.082593
23.022890
25.266409
25.825500
23.371577
20.180941
15.885830
12.287498
8.341670
6.365776
5.054474
4.253983
3.993511
4.056692
3.855824
4.008412
3.736615
4.168749
4.001856
4.055500
3.951788
3.979802
4.119873
3.944635
3.976822
##ZVALUE=330
0.826716
0.854731
0.702739
0.805855
0.694990
0.715852
0.772476
0.679493
0.844598
0.818968
0.857711
0.775456
0.768900
0.803471
0.782609
0.828505
0.880957
0.841618
0.913739
0.754595
0.806451
0.809431
0.978708
0.868440
0.882745
0.904799
1.086593
0.796914
0.980496
0.916719
0.915527
1.051426
0.792742
0.929832
1.009703
0.996590
0.941753
1.058578
1.231432
1.072884
1.240969
1.174808
1.237988
1.298785
1.428723
1.585484
1.751781
2.930760
10.189414
26.747584
78.742504
157.508850
338.065624
526.255965
832.738876
1015.899777
1015.899777
1015.899777
998.387933
783.751011
449.131727
255.357027
93.837976
33.995509
6.887913
4.031658
3.860593
3.817677
3.873706
4.214644
5.862713
7.850528
11.168718
14.696717
19.148588
22.091866
23.243427
23.567677
21.152496
18.409491
14.311671
11.730790
8.219481
6.628633
4.922748
4.185438
3.854632
3.742576
3.687739
3.855824
3.797412
3.782511
3.776550
3.956556
3.742576
3.755689
##ZVALUE=335
0.712872
0.836849
0.976920
0.802875
0.902414
0.857711
0.697970
0.550747
0.771880
0.670552
0.903606
0.865459
0.905991
0.885725
0.861883
0.852942
0.802875
0.699759
0.877976
0.922680
0.769496
0.981688
0.835657
0.792742
0.876784
0.891685
0.903606
0.840425
0.819564
0.817776
0.947714
0.989437
1.115799
0.972748
1.019835
1.122952
1.017451
0.997782
1.198649
1.121759
1.168847
1.013875
1.067519
1.149774
1.117587
1.301765
1.272559
1.518726
1.451969
2.385974
5.500913
18.355846
42.949915
120.345950
228.764415
457.098484
674.368739
974.494815
1015.939713
1015.939713
1015.939713
868.242979
612.625480
328.073502
166.743994
48.820972
14.519691
4.453659
3.888607
3.683567
3.572702
4.045963
4.500747
5.950928
7.488728
11.164546
13.993979
17.861724
20.067692
22.089481
21.293759
19.787550
17.292500
13.813972
11.050701
7.932782
6.645918
5.064607
4.491806
3.937483
3.847480
3.694892
3.926754
3.695488
3.746748
3.792644
##ZVALUE=340
0.781417
0.803471
0.861883
0.925660
0.712872
0.679493
0.702739
0.863671
0.853539
0.759959
0.851750
0.730753
0.740886
0.833869
0.784993
0.741482
0.727773
0.799894
0.813603
0.593662
0.732541
0.870824
0.703931
0.627637
0.860691
0.862479
0.801682
0.825524
0.819564
0.803471
0.689626
0.907779
0.997782
0.930429
1.048446
0.937581
0.979900
0.863671
0.949502
1.007915
0.952482
1.070499
1.100898
0.868440
1.134872
1.245737
1.179576
1.251698
1.301765
1.399517
1.351833
1.855493
3.340840
11.227727
29.109716
89.186430
178.797841
362.564921
560.069680
858.382583
1015.939713
1015.939713
1015.939713
994.317532
751.522779
399.344563
217.002630
76.992512
23.807883
5.362630
3.899932
4.065633
3.775954
3.828406
4.031658
4.537702
5.316734
7.623434
9.709597
13.425946
16.468763
19.838810
20.844936
20.815730
19.017458
16.341805
13.732910
10.688901
8.272529
6.070733
4.876852
4.275441
3.658533
3.596544
3.758669
3.550649
##ZVALUE=345
0.757575
0.871420
0.748634
0.688434
0.541806
0.702739
0.711679
0.682473
0.731945
0.673532
0.779629
0.813603
0.752807
0.618696
0.866652
0.632405
0.705719
0.779629
0.780821
0.753999
0.817776
0.741482
0.793934
0.729561
0.852942
0.937581
0.752807
0.846982
0.738502
0.749826
0.778437
0.805855
0.654459
0.896454
0.933409
0.936985
0.869632
1.072884
1.072884
0.937581
0.904799
1.074672
0.905991
0.976920
0.873804
1.032948
0.991821
1.163483
1.231432
1.282692
1.281500
1.282692
1.515746
1.547933
2.121925
6.960630
18.462539
57.159662
120.777488
278.960466
452.871919
748.007894
960.236788
1015.939713
1015.939713
1015.939713
883.823037
552.594662
319.484472
115.498900
41.823983
9.279847
4.763603
4.142523
4.160404
3.974438
3.658533
3.895760
4.042983
4.966855
6.330609
9.261966
11.932850
15.315413
16.993880
18.940568
19.658804
17.856956
16.015768
13.315678
11.148453
7.827878
6.365776
4.883409
4.128814
3.811717
##ZVALUE=350
0.745654
0.742674
0.724792
0.716448
0.797510
0.662804
0.715852
0.767708
0.706911
0.660419
0.795722
0.796914
0.720620
0.712872
0.780821
0.739694
0.730753
0.856519
0.826716
0.789762
0.699759
0.767708
0.721812
0.808835
0.855923
0.714660
0.685453
0.681877
0.806451
0.812411
0.779629
0.868440
0.822544
0.941753
0.777841
0.884533
0.763535
0.818968
0.798702
0.970960
0.860691
0.815988
0.842810
1.070499
0.958443
0.885725
0.857711
1.116991
0.929832
1.150966
1.136661
1.265407
1.191497
1.152754
1.329780
1.542568
1.795888
4.197955
10.773540
36.689639
82.139969
206.623673
352.524519
603.318810
826.352835
1015.939713
1015.939713
1015.939713
957.244635
629.116893
393.944979
176.185966
71.592927
13.689995
5.292892
3.948808
3.841519
3.330708
3.177524
3.230572
3.406405
3.663898
4.571676
6.110668
7.816553
10.744929
13.012886
15.923977
17.559528
17.544627
16.969442
15.104413
12.536645
9.769797
7.932782
6.029606
##ZVALUE=355
0.659823
0.802875
0.712872
0.681877
0.781417
0.753999
0.689626
0.771880
0.752807
0.728965
0.591874
0.610948
0.688434
0.701547
0.597835
0.742674
0.707507
0.738502
0.584722
0.793934
0.720620
0.633597
0.644922
0.711679
0.624657
0.672936
0.633597
0.810623
0.638962
0.667572
0.804663
0.775456
0.822544
0.812411
0.850558
0.783801
0.811815
0.656843
0.838637
0.737906
0.810623
0.949502
0.835657
1.013875
0.986457
0.925660
1.007915
0.946522
0.922680
0.970960
0.908971
1.001954
1.073480
1.211762
1.099706
1.252890
1.429915
1.393557
1.557469
2.599955
6.251931
23.408532
54.442883
141.275525
261.540413
503.804684
710.733533
955.553651
1015.892029
1015.892029
989.535451
729.280710
486.291647
217.324495
95.262527
21.158457
6.527901
3.730655
3.339648
3.017783
2.979636
2.907515
2.934933
3.055930
3.355742
4.054904
5.299449
7.338524
9.136796
12.268424
14.258623
15.807748
16.486645
16.146898
14.379621
11.953712
##ZVALUE=360
0.630617
0.635982
0.617504
0.764728
0.559688
0.678897
0.705719
0.773668
0.776649
0.549555
0.728965
0.766516
0.817776
0.692606
0.762939
0.700951
0.777841
0.626445
0.689626
0.823736
0.734925
0.784993
0.633597
0.845790
0.720620
0.795722
0.790954
0.710487
0.797510
0.778437
0.943542
0.800490
0.684857
0.849962
0.803471
0.940561
0.873804
0.852942
0.857711
0.831485
0.864863
0.902414
0.879765
0.947714
0.846982
0.911951
0.978708
0.969768
1.182556
0.977516
1.188517
1.204610
1.153946
1.358986
1.245737
1.309514
1.245737
1.422763
1.305938
1.391768
1.850724
1.892447
3.565550
12.284517
30.410886
91.604590
188.399553
407.860875
618.163943
908.838511
1015.939713
1015.939713
1015.939713
823.234916
573.032498
283.763409
143.651962
43.461919
12.629628
3.877878
3.356934
3.066659
2.929568
2.921820
2.871752
2.882481
2.926588
3.081560
3.668666
4.920959
6.257892
8.249879
10.366440
12.887716
14.253855
14.794469
##ZVALUE=365
0.693798
0.706911
0.807643
0.816584
0.668764
0.659823
0.702739
0.756979
0.582933
0.804663
0.815988
0.734925
0.706911
0.706911
0.557899
0.779629
0.601411
0.872612
0.777841
0.768900
0.768900
0.706911
0.662804
0.798702
0.649691
0.793934
0.705719
0.779629
0.722408
0.729561
0.732541
0.794530
0.858903
0.751615
0.923872
0.810623
0.800490
0.898838
1.016855
0.755787
0.863671
0.643730
0.736713
0.751615
0.865459
0.922680
0.900626
0.884533
0.831485
0.954866
0.910759
1.005530
1.030564
1.206994
1.158714
1.260638
1.059771
1.196861
1.270771
1.321435
1.435876
1.458526
1.624823
1.791716
2.461672
7.218719
18.561482
58.216453
127.050877
294.992924
465.371013
723.530650
919.848680
1015.939713
1015.939713
884.634852
680.523515
396.949649
218.236446
70.113540
21.070838
4.307628
3.296733
3.003478
2.780557
2.745986
2.732873
2.547503
2.499819
2.702475
2.692938
3.031492
3.899932
5.446672
7.039905
9.467602
##ZVALUE=370
0.696778
0.781417
0.739694
0.657439
0.704527
0.548959
0.615716
0.652671
0.699759
0.670552
0.707507
0.776649
0.670552
0.738502
0.827909
0.634789
0.778437
0.751615
0.629425
0.601411
0.601411
0.716448
0.716448
0.598431
0.781417
0.660419
0.654459
0.710487
0.688434
0.750422
0.611544
0.743866
0.657439
0.702739
0.726581
0.753999
0.737906
0.796914
0.807643
0.820756
0.791550
0.782609
0.741482
0.744462
0.775456
0.838637
0.877976
0.902414
0.882745
0.962615
0.936985
0.930429
0.908971
0.838637
0.998974
0.991821
1.039505
1.087785
0.931621
1.112819
1.285672
1.273751
1.343489
1.413822
1.460910
1.711845
1.978874
4.275441
11.533499
42.908788
94.059706
226.487517
388.587713
667.474866
872.341990
1015.939713
1015.939713
958.964825
771.268010
455.731750
258.997679
95.670819
36.246777
8.089542
3.429651
2.738833
2.709627
2.614856
2.397895
2.430677
2.335906
2.364516
2.338886
2.299547
2.863407
3.600717
##ZVALUE=375
0.648499
0.669956
0.606775
0.636578
0.768900
0.590682
0.702739
0.721812
0.521541
0.592470
0.686646
0.754595
0.627637
0.732541
0.829697
0.633597
0.561476
0.736713
0.549555
0.552535
0.606775
0.573993
0.712872
0.712872
0.753999
0.754595
0.621676
0.633597
0.717640
0.647902
0.647902
0.621676
0.637770
0.787973
0.776649
0.790954
0.818968
0.866652
0.606775
0.643730
0.694990
0.665784
0.602603
0.677705
0.753999
0.704527
0.607967
0.610948
0.859499
0.756979
0.780821
0.637770
0.847578
0.778437
0.792742
0.896454
0.869632
0.934601
1.082420
1.012683
0.912547
1.111627
1.098514
1.169443
1.063943
1.096725
1.229644
1.463890
1.673698
2.688766
6.762743
25.775433
64.710975
177.225471
313.180685
557.583570
770.729780
1005.151868
1015.939713
1001.572013
849.281549
562.539697
365.513563
181.647539
84.486604
19.500852
5.324483
2.931952
2.737641
2.563000
2.273917
2.437830
2.131462
2.184510
2.182722
2.232790
##ZVALUE=380
0.618696
0.709891
0.654459
0.556707
0.606775
0.506639
0.482798
0.491738
0.597835
0.639558
0.708699
0.471473
0.543594
0.553727
0.658631
0.669956
0.496507
0.589490
0.665784
0.580549
0.660419
0.653863
0.622869
0.726581
0.665784
0.715852
0.763535
0.600815
0.682473
0.604987
0.777841
0.515580
0.671744
0.544786
0.888705
0.778437
0.790954
0.652671
0.613928
0.484586
0.686646
0.694990
0.718832
0.713468
0.688434
0.773668
0.788569
0.693798
0.878572
0.680685
0.809431
0.746846
0.718832
0.800490
0.782609
0.879765
0.863671
0.791550
0.927448
0.998974
0.993609
0.842810
0.936985
0.909567
1.005530
1.203418
1.257658
1.386404
1.295805
1.545548
1.688600
2.064705
4.119873
16.818643
44.268966
128.482580
242.731571
466.783643
675.393939
946.736932
1015.942693
1015.942693
943.768620
715.899467
503.258705
255.344510
128.537416
35.572648
9.936690
3.183484
2.621412
2.233982
2.228618
2.184510
2.261996
2.239943
##ZVALUE=385
0.616908
0.619888
0.418425
0.608563
0.620484
0.685453
0.497699
0.627637
0.455976
0.362992
0.578761
0.482798
0.509620
0.458956
0.633597
0.782609
0.728965
0.675917
0.625849
0.748634
0.644922
0.629425
0.623465
0.583529
0.560880
0.514984
0.647902
0.603795
0.484586
0.642538
0.614524
0.504851
0.471473
0.627637
0.621676
0.718832
0.755787
0.526905
0.619888
0.606775
0.555515
0.565648
0.730753
0.779629
0.797510
0.696778
0.731945
0.707507
0.757575
0.818968
0.809431
0.794530
0.631809
0.882745
0.722408
0.768900
0.755787
0.719428
0.821948
0.827909
0.861883
0.823736
0.946522
0.936985
0.966787
0.972748
0.854731
1.071692
1.222491
1.229644
1.258850
1.461506
1.637936
1.710653
2.698898
9.619594
26.548505
82.478523
170.284510
375.525951
576.160550
839.309692
979.526639
1015.932560
1003.541946
821.949840
626.701713
359.100699
208.436847
78.780651
24.511814
4.243851
2.675653
2.200603
2.129674
2.082586
##ZVALUE=390
0.528693
0.574589
0.371933
0.517964
0.488758
0.566840
0.402927
0.487566
0.473857
0.536442
0.355840
0.470877
0.386834
0.539422
0.456572
0.475645
0.363588
0.529885
0.461936
0.552535
0.452995
0.464916
0.502467
0.550747
0.526905
0.520945
0.424981
0.618696
0.529885
0.615716
0.328422
0.575781
0.509620
0.398755
0.598431
0.543594
0.592470
0.549555
0.634789
0.648499
0.609756
0.653863
0.544786
0.603795
0.667572
0.640750
0.599623
0.647902
0.714660
0.570416
0.713468
0.585914
0.709891
0.597835
0.729561
0.679493
0.866652
0.636578
0.686646
0.733733
0.859499
0.738502
0.653863
0.804663
0.938773
0.777841
0.873804
0.979900
1.011491
1.131892
1.102686
1.206994
1.309514
1.210570
1.481771
1.618862
1.663566
5.269647
16.361475
59.664845
132.083893
306.646824
474.708676
710.643530
888.985991
1015.849710
1015.849710
957.881808
783.849955
522.552729
318.645835
129.041672
52.806735
10.363460
3.199577
2.208948
##ZVALUE=395
0.549555
0.519753
0.413656
0.513792
0.610948
0.605583
0.500679
0.528693
0.538826
0.579953
0.498891
0.460744
0.442863
0.341535
0.633597
0.533462
0.519753
0.606775
0.461936
0.555515
0.613928
0.627637
0.657439
0.549555
0.467896
0.600815
0.463724
0.435710
0.594854
0.451803
0.570416
0.513792
0.525713
0.541806
0.675917
0.531673
0.656843
0.579953
0.617504
0.698566
0.531673
0.650883
0.610948
0.647902
0.616908
0.602603
0.731945
0.664592
0.657439
0.708699
0.671744
0.703931
0.694990
0.782609
0.618696
0.726581
0.554919
0.784993
0.802875
0.683665
0.790954
0.817776
0.660419
0.805855
0.813603
0.788569
0.928640
0.972748
1.023412
1.143813
0.997782
1.244545
1.256466
1.327991
1.382828
1.305938
1.483560
1.359582
1.640916
3.429651
10.550618
42.241812
92.178583
211.363435
363.776684
628.976822
834.197998
1015.890837
1015.890837
1015.890837
900.411010
610.252619
397.288799
178.257823
81.789494
19.306540
##ZVALUE=400
0.669956
0.711679
0.667572
0.539422
0.510812
0.723600
0.612736
0.587702
0.585914
0.538826
0.576973
0.704527
0.579953
0.554919
0.752807
0.588894
0.571609
0.641942
0.564456
0.699759
0.692606
0.644922
0.688434
0.669956
0.525713
0.479817
0.570416
0.506639
0.654459
0.650883
0.546575
0.568628
0.758767
0.731945
0.832677
0.613928
0.662804
0.607967
0.659823
0.711679
0.735521
0.701547
0.839829
0.569820
0.738502
0.616908
0.754595
0.671744
0.702739
0.853539
0.881553
0.683665
0.605583
0.767708
0.695586
0.706911
0.815988
0.768900
0.890493
0.805855
0.855923
0.939965
0.939965
0.956655
0.906587
0.857711
0.897646
1.122952
1.141429
1.126528
1.184940
1.324415
1.314878
1.356602
1.079440
1.213551
1.181960
1.404881
1.275539
1.468658
1.559854
2.427697
6.001592
21.733642
54.248571
152.061582
286.751986
543.221831
755.928755
999.541879
1015.939713
1015.939713
966.462493
708.079934
492.725968
256.556869
##END
