##TITLE=
##FORMAT=SPECTACLE-ASCII V-1.2
##DATA TYPE=ULTRAVIOLET SPECTRUM
##SECOND TYPE=ULTRAVIOLET SPECTRUM
##DATE=09/25/17
##TIME=15:17:57
##SPECTROMETER/DATA SYSTEM=SPECTACLE
##XUNITS=NM EM
##YUNITS=ENERGY
##YFACTOR=1
##FIRSTX=220
##LASTX=410
##NPOINTS=96
##3DDATA=Equidistant
##ZUNITS=NM EX
##FIRSTZ=210
##LASTZ=400
##ZPOINTS=39
##XYDATA=(Y..Y)
##ZVALUE=210
4.192591
4.103780
4.077554
3.615618
4.062653
3.561974
3.767610
4.212856
4.090667
3.981590
4.172921
3.534555
3.568530
3.326535
3.438592
3.601909
3.982782
3.515482
3.794432
3.600717
4.007816
3.770590
4.268885
3.722906
4.003644
4.248619
3.660917
4.453659
5.110502
5.017519
4.836917
4.643798
4.482865
4.661679
5.274415
4.863739
5.742908
5.515814
5.266666
4.757643
5.828738
5.399585
4.761815
5.478859
5.128980
6.325841
5.651712
5.226731
5.175471
5.450845
5.288720
5.209446
5.395412
5.918741
5.614758
5.296469
5.135536
5.884767
5.459785
5.560517
5.849600
5.594492
5.670786
5.863905
5.431771
5.226731
5.297661
5.667806
5.942583
5.921721
7.330775
7.731915
7.231832
8.863807
9.034872
8.895993
9.951591
11.288524
11.402965
10.168552
10.445714
10.104775
10.209680
9.017587
7.921457
7.280707
7.433891
6.001592
5.169511
6.180406
5.071759
6.009936
5.855560
5.511642
5.848408
6.031990
##ZVALUE=215
5.967617
5.215406
4.574656
5.323887
4.888773
5.001426
4.327893
4.245639
4.166961
4.857779
5.038977
4.752874
4.914999
3.675818
4.090667
4.071593
3.849864
3.722906
3.298521
4.335642
3.593564
3.585815
3.498793
3.693700
4.227757
4.031658
4.244447
4.505515
4.864931
4.806519
5.118847
5.361438
5.717874
5.839467
5.539656
5.997419
6.765723
5.334616
6.192923
5.310774
5.771518
5.244613
6.118417
4.804730
5.073547
5.479455
5.795956
6.089807
5.926490
5.775690
6.047487
5.073547
5.459785
5.837679
5.366802
5.674958
6.125569
5.801916
5.868673
5.648732
6.160736
5.873442
5.487800
5.564690
5.730987
6.284714
5.692840
5.806684
6.610751
6.349683
7.446408
7.352829
7.669926
9.093881
9.200573
10.460615
10.976791
11.077523
9.272695
11.265874
10.196567
8.830428
8.785725
9.565949
8.795857
7.075667
6.496906
6.617904
5.676746
6.063581
5.573630
5.003810
6.003976
6.127954
5.160570
5.995631
##ZVALUE=220
8.990765
8.610487
9.637475
10.184646
10.637641
10.536909
8.817911
8.490682
6.650686
5.668998
6.631613
6.034970
7.367730
6.702542
6.820560
6.367564
5.435944
5.004406
4.256964
4.347563
4.641414
3.782511
4.182458
4.530549
4.083514
4.321933
4.622936
5.233884
5.170703
5.618930
5.696416
6.076694
6.050467
7.138848
6.159544
6.222725
6.328821
6.480813
6.858706
7.351637
6.165504
6.640553
6.068945
6.050467
6.586909
6.044507
6.280541
6.488562
6.526709
6.533861
6.607771
6.306767
6.276965
6.745458
7.055998
6.688833
6.603599
6.495714
6.136894
6.527901
6.339550
6.231666
6.332994
6.398559
5.517602
6.710887
6.952882
6.799698
6.968975
7.272959
7.434487
9.049773
9.184480
9.731650
9.016991
9.467602
10.004640
10.304451
9.704828
10.213852
9.957552
9.872913
9.295940
9.190440
8.287430
8.166432
7.281899
6.853938
6.237626
5.976558
5.988479
6.112456
5.756617
6.567836
6.412864
5.362630
##ZVALUE=225
11.129975
10.625720
12.322664
17.963648
18.711686
22.836924
24.333596
20.976663
18.347502
15.808940
10.683537
8.536577
8.517504
8.487701
10.091662
10.932684
10.066628
9.569526
7.503629
6.552935
5.340576
4.718900
3.987551
3.968477
3.826618
4.486442
4.795790
4.348755
4.532933
4.280806
5.450845
5.697608
5.437732
5.321503
5.191565
7.191896
6.980896
6.641746
7.056594
6.902814
6.558895
6.360412
6.064773
7.212758
6.832480
6.490946
6.379485
6.568432
6.446838
7.214546
6.497502
7.122755
7.125735
7.222891
6.666780
7.778406
7.643700
7.207990
6.740689
6.849766
6.583929
6.873608
7.668734
7.534623
7.123947
7.863641
7.758737
7.486939
7.109642
8.062720
8.450747
7.827878
9.105802
9.415746
10.187626
10.380745
9.574890
10.424852
10.259748
11.233687
11.008978
9.196997
8.765459
8.914471
8.500814
7.838607
8.126497
7.651448
6.803870
7.701516
7.056594
7.340908
7.095933
6.802678
7.632971
6.480813
##ZVALUE=230
8.795857
9.372830
12.755990
19.112825
27.888417
40.371418
49.148798
54.495931
54.773688
52.159429
39.415956
30.366778
18.651485
13.919473
12.552738
13.821721
13.314486
16.312599
14.254451
14.628768
11.903644
9.578466
8.045435
6.051660
5.186796
4.345775
4.596710
5.092621
4.747510
4.533529
5.591512
5.648732
5.552769
6.118417
5.447865
6.010532
5.963445
5.646944
7.215738
7.021427
6.511807
6.791949
7.439852
7.481575
6.923676
7.314682
7.302761
8.211732
7.645488
7.898808
7.922649
8.826852
8.762479
8.876920
9.224415
8.603930
8.602738
8.383989
9.258986
9.933710
8.547902
9.326935
9.512901
9.618998
8.997917
10.237694
9.125471
9.368658
9.663701
10.193586
10.716915
11.672974
11.164546
11.614561
12.331605
12.842417
13.124943
13.450980
13.451576
11.936426
13.933778
13.070703
12.398958
12.549758
11.488795
10.372996
10.352731
10.161996
10.409951
10.835528
9.409785
9.459853
9.606481
8.973479
8.450747
9.030700
##ZVALUE=235
4.089475
4.838705
7.135868
12.948513
18.991828
32.905936
48.187971
75.097680
87.737441
104.347467
110.458732
98.727942
76.249838
59.297681
36.863685
24.259686
16.792417
16.526580
20.745993
22.208691
21.127462
20.782948
18.528700
16.072989
13.418794
8.897781
7.689595
6.395578
6.087422
6.000996
5.961657
6.002784
5.940795
5.241632
6.393790
6.987453
6.529689
7.272959
8.126497
7.454753
7.395744
8.204579
8.183718
8.801818
9.366870
9.562969
8.743405
9.504557
10.356903
10.072589
10.551810
10.761619
10.840893
11.341572
10.795593
11.466742
11.833906
11.551976
11.462569
11.983514
11.331439
11.981726
10.848641
11.370778
11.968613
11.397600
12.750626
13.146996
12.508631
14.586449
14.593601
13.484955
14.451742
17.290711
15.912652
16.371608
17.119646
18.771887
17.213821
18.444657
17.559528
15.091896
16.044974
16.465783
15.405416
14.345646
14.689565
14.972687
14.386773
14.200807
14.049411
12.962818
13.709664
12.728572
12.393594
12.974739
##ZVALUE=240
3.135800
3.317595
3.294945
5.483627
8.162856
13.502836
24.356842
47.986507
70.826411
113.712549
138.717890
167.779922
169.910789
155.411959
130.544901
100.658536
60.746670
40.317774
22.397637
19.847751
23.455620
26.503801
27.568936
29.472709
28.643608
26.704669
20.599961
16.123652
12.420416
10.999441
8.846521
7.663965
7.762909
7.237792
8.754730
7.372499
8.387566
7.942915
7.900000
9.562969
9.069443
9.013414
9.571910
9.772778
10.555983
10.522604
11.286736
12.308955
12.222528
12.632608
13.699532
14.827847
12.617707
14.330745
13.781786
12.889504
14.080405
14.703870
13.748407
13.783574
13.535619
13.983846
13.698936
13.788939
15.423894
14.816523
14.193654
14.909506
14.958978
14.856458
16.818643
17.487407
17.079711
17.864704
19.737482
19.372702
21.490455
20.896792
20.702481
20.329952
20.609498
20.368695
18.870831
19.521713
19.464493
18.781424
18.031597
17.947555
18.202662
18.146634
16.256571
15.718937
15.908480
15.456676
16.088486
15.566945
##ZVALUE=245
2.796650
2.728701
2.812743
3.044605
3.023744
3.904700
7.051826
13.517737
27.228594
46.613812
85.490942
117.628574
158.726573
203.818679
209.316611
206.739902
184.196830
137.779713
96.312761
53.411722
31.849742
21.651983
22.025704
26.210546
32.778978
33.655763
35.987496
33.738613
29.121637
24.122596
20.381808
15.032887
12.109876
9.453893
9.199977
9.281635
9.424686
9.210706
8.444786
9.177923
10.096431
8.816719
10.176897
10.417700
11.116862
11.906624
11.955500
12.497902
13.254881
13.640523
14.614463
14.843941
15.343428
15.179515
16.262531
13.880730
14.320612
15.036464
15.728474
13.995767
14.118552
14.478564
14.423728
14.041662
13.955832
14.220476
13.988614
15.267730
13.952851
15.310645
15.231967
15.512705
16.403794
17.032623
17.253757
18.777847
17.592907
18.343925
19.190907
18.791556
19.527674
19.691586
18.485785
19.113421
19.687414
18.008947
18.847585
17.002821
16.272664
16.461611
17.061830
15.981793
15.860796
16.626716
15.779734
14.883876
##ZVALUE=250
2.362728
2.465844
2.367496
2.385974
2.555847
2.567768
2.858639
3.307462
6.422997
10.813475
25.290847
43.200850
70.468783
122.358799
164.192915
217.898488
245.625973
249.959826
232.705474
184.518695
134.158731
91.292858
44.932961
25.193691
21.963716
24.744868
29.939413
34.236908
37.902594
38.874745
36.588907
32.011867
26.979446
20.987988
15.270710
11.955500
10.421872
8.488894
8.254647
8.282661
8.420944
9.191632
9.585619
10.025501
9.923577
11.896491
11.447668
12.478828
12.303591
13.759732
13.519526
14.255643
14.181733
14.653802
14.991760
14.741421
14.272928
13.659000
14.739633
15.235543
14.597774
14.146566
12.482405
12.806654
13.129711
13.426542
12.552738
13.161898
12.881756
12.072921
13.138652
15.152693
12.994409
14.663935
14.999509
16.134977
15.321970
15.954971
14.728904
15.815496
15.772581
15.742779
15.394688
14.998913
15.668869
15.065670
14.651418
14.368892
14.288425
14.334917
14.883876
14.439821
13.494492
13.169646
13.067722
12.962818
##ZVALUE=255
2.108812
2.037883
2.354980
2.312660
2.230406
2.206564
2.006888
2.145767
2.128482
2.599955
3.905892
7.655621
19.897819
33.595562
67.914724
107.447505
168.747902
219.201446
263.250470
292.642713
290.766954
241.491795
185.792446
112.810731
67.628622
32.042861
20.524859
20.523667
25.072694
31.257868
34.790635
39.232969
39.132833
35.347939
31.730533
25.775433
18.869638
13.563633
10.806918
9.300709
8.358955
8.464456
8.177757
8.963943
9.240508
10.003448
10.296702
11.123419
11.484623
11.475682
12.051463
12.630820
13.070703
13.275743
13.394952
12.866855
13.512969
12.267828
12.491941
11.942983
11.719465
12.364984
11.781454
11.158586
10.913610
10.664463
10.842681
10.475516
10.779500
10.960698
10.218620
11.050701
11.522770
11.725426
11.469722
11.782646
12.485981
12.143850
12.244582
11.812449
12.269616
12.215972
11.501908
11.768937
11.324883
11.463761
11.396408
10.968447
11.033416
11.604428
11.894703
11.056662
12.228489
10.739565
11.430979
10.754466
##ZVALUE=260
1.812577
1.705885
1.813769
1.852512
1.688600
1.580715
1.759529
1.851916
1.914501
1.945496
1.808405
2.214909
2.624989
5.739927
12.471676
27.994514
51.538944
97.733736
146.083832
225.339532
285.272002
329.636931
337.389708
312.569737
236.742496
169.050694
96.880794
57.324767
25.949478
16.630888
17.292500
22.844672
29.640794
36.690831
38.368702
38.527846
36.759973
30.060410
24.640560
17.884970
14.026761
10.023713
8.164644
7.597804
7.867813
8.389950
8.355975
8.704662
9.403825
9.706616
9.912848
9.762645
10.221601
10.504723
9.598732
9.805560
10.094643
9.736419
9.271502
9.614825
9.689927
9.714961
8.512735
8.977652
8.673668
8.587837
8.477569
8.289814
8.540750
8.719563
8.622408
8.487701
8.100867
8.922815
9.326935
9.351969
9.588599
9.651780
9.380579
9.245872
9.650588
8.240938
8.404851
9.166598
8.876920
9.038448
8.680820
8.742809
8.470416
9.155869
8.623600
9.197593
8.983612
8.702874
8.832812
8.580685
##ZVALUE=265
1.743436
1.703501
1.699924
1.589656
1.861453
1.593828
1.860857
1.849532
1.817942
1.932979
1.803637
1.823902
1.755953
1.856685
2.216697
4.767776
9.166598
21.868944
41.099787
88.797808
141.070485
207.049847
303.577781
359.160900
384.619832
368.110538
305.456519
231.535435
137.689710
85.624456
47.116876
19.283891
14.199615
18.889904
24.673939
31.517744
37.418604
40.302873
37.884712
34.956932
31.108856
22.748709
18.723607
12.832880
10.312796
7.852912
7.854700
7.274747
8.315444
8.107424
8.066893
8.568764
8.473992
8.272529
8.373857
8.678436
8.475780
8.132458
8.059740
8.392930
8.175969
7.484555
7.989407
7.592440
7.216930
7.566810
7.360578
7.307529
7.660985
7.097721
7.125735
7.790923
7.567406
8.043647
7.804632
8.063912
8.006692
8.311868
7.880926
8.356571
7.745624
8.321404
7.908940
7.403493
7.537603
7.179976
7.135868
7.571578
7.282495
7.909536
7.417798
6.967783
7.081628
7.913709
7.777810
7.876754
##ZVALUE=270
1.702905
1.653433
1.641512
1.430511
1.440644
1.526475
1.721978
1.601577
1.487732
1.495481
1.651645
1.854897
1.715422
1.648664
1.846552
1.677871
1.982450
3.226995
6.089807
15.693903
32.564998
62.327981
130.817890
197.262764
303.966999
367.555618
416.065454
418.405533
367.993712
299.742818
219.837427
121.601820
67.581534
25.812984
13.026595
13.914704
17.599463
25.794506
30.940771
37.573576
40.446520
39.933920
36.158562
29.983521
24.451613
17.659664
13.288856
10.159612
8.503795
7.115602
7.347465
7.219911
7.485747
7.109642
7.807612
7.722974
7.139444
7.566810
7.573962
6.772876
6.645918
6.780624
7.123947
7.007718
6.806850
6.570816
6.212592
6.234646
6.901622
6.839633
6.647706
7.198453
7.347465
7.373691
7.456541
7.923841
8.027554
7.527471
7.182956
6.910563
7.022619
6.981492
6.956458
6.288886
6.900430
6.580949
6.762743
6.967783
6.601810
6.772876
6.724000
6.286502
7.024407
6.358624
6.841421
6.737709
##ZVALUE=275
1.628995
1.667738
1.465678
1.506805
1.500845
1.309514
1.359582
1.288652
1.400709
1.484752
1.732707
1.730919
1.616478
1.605749
1.528859
1.557469
1.463890
1.716614
1.752973
1.983643
4.093647
9.669662
26.480556
52.590966
114.965439
174.103975
269.925594
345.358849
429.838896
450.246930
436.290503
367.770791
279.066563
159.947872
94.263554
38.448572
16.767979
10.269880
12.876987
18.480420
24.414659
32.230616
36.443472
40.396452
39.198995
35.036802
30.043721
23.472905
18.971562
13.263822
9.784698
7.919669
6.917715
7.192492
7.361770
6.541610
6.234646
6.740689
6.946921
7.052422
6.185770
5.980730
6.411672
5.914569
6.287694
6.180406
6.208420
6.407499
6.472468
6.287694
6.621480
6.551743
7.091761
6.997585
6.984472
7.107854
6.875992
6.754994
6.912947
6.775856
6.778836
6.773472
6.731749
6.660819
6.674528
6.349683
6.504655
6.508827
5.819798
6.304979
6.458759
6.420612
6.506443
6.328821
5.912781
6.769896
##ZVALUE=280
1.380444
1.491904
1.377463
1.270771
1.468658
1.337528
1.255870
1.453757
1.301765
1.212955
1.248717
1.382828
1.260638
1.332760
1.457930
1.526475
1.421571
1.406670
1.468658
1.592636
1.725554
1.863837
2.999902
7.519722
21.684766
39.948821
86.031556
138.401985
232.170820
314.935446
395.287871
464.040637
470.144749
410.966873
320.112705
198.229551
121.530890
54.943562
25.932789
9.634495
9.617805
13.393760
18.257499
26.118755
31.867623
38.174987
39.629936
38.877726
35.259724
29.605627
23.666620
16.134977
13.274550
9.235740
7.705688
6.423593
6.325841
6.115437
5.923510
6.094575
6.157756
5.782843
5.891919
6.069541
6.095767
5.955696
5.880594
6.283522
6.332994
6.435513
6.065965
6.374717
6.173849
6.540418
6.202459
7.020831
6.624460
6.635785
6.700754
6.595850
6.526709
6.303787
6.221533
6.081462
6.406903
5.771518
6.107688
5.818605
5.953908
6.079674
5.924702
6.237626
5.778670
5.860925
6.361604
6.096959
##ZVALUE=285
1.205802
1.362562
1.252890
1.265407
1.447797
1.191497
1.276731
1.431704
1.434684
1.222491
1.357794
1.233816
1.195669
1.249909
1.236796
1.357794
1.365542
1.213551
1.289845
1.457930
1.418591
1.603961
1.619458
1.494884
2.290606
4.083514
12.180805
25.729537
60.883760
103.893876
187.397599
272.746682
363.304019
461.531878
488.262773
451.574922
389.370918
264.794827
174.164772
86.925626
42.924881
14.509559
8.024573
9.375811
12.290478
17.758608
23.601651
30.893683
34.579635
37.579536
37.128925
33.445954
29.381514
22.864938
16.949773
11.883974
9.400845
6.967783
5.948544
5.698800
5.698800
5.721450
5.527735
5.777478
5.809665
5.709529
5.638599
5.940795
5.748868
5.817413
5.946755
6.271601
6.139874
6.603599
6.502867
6.298423
6.642938
6.432533
6.334782
6.358624
6.000996
5.753636
5.918741
6.259680
5.589724
5.871654
6.003976
5.736947
5.895495
5.848408
5.838871
6.114841
5.790591
6.031990
5.632639
6.301999
##ZVALUE=290
1.165867
1.153946
1.120567
1.102686
1.208782
1.112819
1.280904
1.236796
1.166463
1.209974
1.193881
1.313686
1.223683
1.196861
1.089573
1.289845
1.291633
1.230836
1.205802
1.200438
1.284480
1.434684
1.429915
1.446605
1.423955
1.377463
1.552701
2.476573
7.440448
16.243458
32.423735
78.702569
136.429667
247.054696
341.472626
458.005667
510.019660
505.594015
452.869534
335.935950
233.338475
122.654438
65.951943
23.909807
9.257793
6.544590
8.021593
12.351871
15.949607
22.875667
28.138757
33.692718
36.152601
36.057830
33.985972
27.556419
22.032857
15.690923
11.395812
8.399487
6.497502
5.333424
5.503893
5.016923
5.319715
5.286932
5.002618
5.308986
5.348921
5.656481
5.517602
5.493760
5.762577
6.118417
5.651712
5.984902
5.811453
5.988479
5.793571
5.950928
6.003976
5.955696
5.798936
5.566478
5.676746
5.820990
5.468726
6.293654
5.906820
5.969405
5.476475
5.757809
6.069541
5.498528
5.774498
5.757809
##ZVALUE=295
1.259446
1.042485
1.156926
1.185536
0.933409
0.979900
1.033545
1.047850
1.035929
1.157522
1.035929
1.114607
1.057982
1.266599
1.192689
1.334548
1.130700
1.170635
1.099706
1.095533
1.379848
1.125932
1.298785
1.300573
1.284480
1.428723
1.332760
1.356602
1.595616
1.865625
4.250407
10.577440
22.972822
60.862899
111.629963
210.269690
300.170779
426.077843
500.788689
524.367690
489.837527
386.925936
280.230641
155.433416
87.410808
34.116507
14.306903
5.761981
5.446672
7.664561
10.834932
16.319752
21.119714
27.816892
31.948686
35.099983
34.564734
31.275749
26.462674
20.494461
15.499592
10.574460
7.957816
5.915761
5.153418
4.662871
4.710555
4.786849
4.945993
5.032420
5.105734
4.990697
5.656481
5.219579
5.660653
5.617738
5.426407
5.700588
5.402565
5.708933
5.421638
5.618930
5.439520
5.307794
5.441904
5.645752
5.764961
5.573630
5.692840
5.673766
5.655885
5.671978
5.797744
5.785823
5.507469
5.464554
##ZVALUE=300
0.940561
1.085997
1.032948
1.087785
1.177788
1.145601
1.079440
1.244545
1.166463
1.112819
1.138449
1.121759
1.215935
1.103878
0.932813
1.169443
1.167655
1.085997
1.118779
1.162887
1.011491
1.148582
1.083612
1.222491
0.954866
1.094937
1.282692
1.102686
1.398921
1.416802
1.499653
1.543760
2.562404
6.105900
18.746853
37.511587
89.262724
153.639913
269.343853
364.315510
480.437875
533.278584
519.368649
464.336872
334.752798
227.952003
121.618509
66.838861
23.353696
8.606911
4.614592
4.970431
6.947517
9.859800
14.887452
19.236803
25.911927
30.171871
32.680631
32.354593
29.673576
26.034713
20.351410
15.653968
10.374784
7.770658
6.046891
5.286932
4.654527
4.574656
4.759431
4.732609
5.017519
4.873872
5.262494
5.026460
5.327463
5.233884
5.320907
5.372763
5.347729
5.647540
5.575418
4.990697
5.553961
5.345941
5.465746
5.429983
5.353689
5.582571
5.385876
5.337596
5.735755
5.487800
5.153418
5.277991
##ZVALUE=305
1.135468
0.982881
0.995994
0.995994
1.150966
0.986457
1.152754
0.973940
0.968575
0.780821
0.933409
1.110435
1.009703
1.020432
1.084805
0.992417
1.079440
1.029968
1.108646
1.014471
1.010895
1.073480
0.991821
1.124740
1.111627
1.085997
1.110435
1.129508
1.155734
1.099706
1.297593
1.425743
1.380444
1.477599
1.567602
4.294515
10.490417
29.983521
60.006976
131.866932
209.185481
335.210562
431.427956
524.742603
544.408560
488.156676
402.447581
275.484920
182.062984
88.581443
43.358803
12.588501
5.108714
4.136562
4.840493
6.828904
9.582639
14.706850
19.316673
25.385618
29.009581
31.588674
30.866861
28.067827
24.385452
19.141436
14.362931
10.052919
7.863641
5.800724
4.873872
4.964471
4.651546
5.030632
5.041957
5.074739
5.044937
5.169511
5.282760
5.136728
5.394816
5.252957
5.294681
5.362630
5.402565
5.456805
5.043745
5.396605
5.639791
5.496740
5.692840
5.645752
5.491972
5.558729
5.430579
5.509853
##ZVALUE=310
1.086593
0.961423
0.965595
1.088977
1.117587
1.087785
1.079440
1.027584
1.180768
1.012683
1.057982
1.093745
1.179576
1.016855
1.093745
1.145601
1.115799
1.045465
1.051426
1.105666
1.079440
1.010895
1.057982
1.129508
1.066923
1.227856
1.130700
1.234412
1.233816
1.254678
1.321435
1.254678
1.159906
1.352429
1.316667
1.581907
1.621842
2.506971
6.168485
18.353462
37.853718
90.198517
156.459808
272.127986
378.311872
504.805446
542.965531
530.110002
472.069979
342.464447
241.420865
127.270818
71.110725
24.958849
8.743405
4.294515
4.418492
4.887581
5.883574
9.243488
12.465715
18.302798
22.442937
27.606487
29.058456
29.282570
27.913451
23.951530
19.693971
13.704896
10.655522
7.978678
6.627440
5.480647
5.208850
4.980564
5.370975
5.006790
5.123615
4.816651
5.338788
5.094409
5.317926
5.454421
5.479455
5.454421
5.576611
5.614758
5.655885
5.701780
5.787611
5.908608
5.743504
5.842447
5.654693
5.552769
##ZVALUE=315
0.923872
0.783801
0.911951
0.926852
0.859499
0.776649
0.844598
0.868440
0.807643
0.944734
1.037717
0.925660
1.131892
0.922680
0.997782
0.884533
0.789762
0.925660
0.891685
0.956655
0.966787
0.961423
1.001954
0.939965
0.964999
1.118779
0.997782
0.976920
1.082420
1.023412
1.131892
1.173615
1.029968
1.236796
1.096725
1.215935
1.389980
1.194477
1.266599
1.683831
3.598928
11.843443
26.904941
68.750978
127.542615
244.769454
342.417955
464.123487
535.871983
559.187531
514.648557
397.940874
289.695859
158.635974
88.532567
32.619834
12.389421
4.052520
3.727674
4.090667
4.545450
6.058812
8.229613
12.079477
15.729666
21.432638
24.814606
27.381778
28.371811
25.430918
23.304820
17.988682
14.657974
10.318756
7.904768
6.047487
5.593896
4.996657
5.124807
5.127788
5.029440
5.084872
5.282760
5.035996
5.046725
5.304813
5.354881
5.453825
5.543828
5.338788
5.652905
5.544424
5.595684
5.719662
5.484819
5.589724
##ZVALUE=320
0.813603
0.902414
0.857711
0.669956
0.814795
0.838637
0.944734
0.840425
0.902414
0.964999
0.896454
0.926852
0.758767
0.893474
0.772476
0.773668
0.735521
0.904799
0.898838
0.975728
0.947714
1.082420
0.888705
0.846982
1.036525
0.929832
0.884533
0.952482
0.905991
0.977516
0.912547
1.036525
1.126528
1.037717
1.036525
1.111627
0.960827
1.172423
1.108646
1.110435
1.226664
1.310706
2.106428
7.206798
17.640591
50.707459
93.905926
189.741850
284.310579
429.224968
524.127483
580.316782
560.158491
462.104678
349.654555
202.697515
117.784739
49.407482
20.952821
5.999804
3.703833
3.543496
3.550649
4.296899
5.352497
7.893443
10.938644
15.703440
19.252896
24.520755
26.181936
26.772618
25.364757
20.922422
17.659664
13.431907
10.363460
7.578731
5.993843
5.399585
5.170703
5.243421
4.971623
5.111694
5.293489
5.186796
5.261898
5.427599
5.319715
5.644560
5.719662
5.728602
5.623698
5.596876
5.289912
5.588531
##ZVALUE=325
0.798702
0.983477
0.822544
0.872612
0.884533
0.870824
0.711679
0.900626
0.855923
0.803471
0.795722
0.881553
0.870824
0.739694
0.809431
0.896454
0.951886
0.814795
0.940561
0.858903
0.942945
0.788569
0.975728
0.854731
0.775456
0.913739
1.058578
0.860691
1.027584
0.911951
0.823736
0.814795
0.866652
1.131892
0.895858
1.060963
1.000762
1.131892
1.135468
1.211762
1.139641
1.090765
1.216531
1.483560
1.666546
5.210638
12.139678
32.280684
66.267848
152.031779
246.402621
396.745801
502.081513
600.170493
608.345866
518.445969
410.908461
255.978703
154.110789
67.015886
29.613972
8.046627
3.856421
3.329515
3.397465
3.651977
4.201531
5.518794
7.660985
11.235476
14.973879
19.652843
23.114681
25.616884
24.933815
22.922754
20.070672
16.024709
13.016462
9.414554
7.706881
6.240606
5.606413
5.529523
4.975796
5.523562
5.004406
5.310774
5.434752
5.543828
5.604625
5.688667
5.592704
5.477667
5.152822
5.500913
##ZVALUE=330
0.912547
0.669956
0.793934
0.874996
0.704527
0.748634
0.760555
0.853539
0.804663
0.819564
0.844598
0.799894
0.785589
0.795722
0.786781
0.898838
0.813603
0.879765
0.888705
0.918508
0.843406
0.884533
0.790954
0.798702
0.768900
0.868440
0.747442
0.887513
0.914931
0.916719
1.047850
0.976920
0.773668
1.027584
1.040697
0.854731
1.113415
0.917912
0.882745
0.990629
0.962615
1.023412
1.201630
1.213551
1.102686
1.365542
1.338720
2.499819
6.752610
21.324754
44.418573
109.718442
187.910795
328.514576
445.467830
571.876764
605.924726
557.606816
465.080738
309.353471
201.473832
92.620850
44.607520
14.537573
5.642772
3.739595
3.157854
3.415942
3.525615
4.161596
5.530715
7.877946
10.599494
15.461445
18.674731
22.256970
23.859739
24.041533
22.379756
18.856525
15.632510
11.655688
9.171963
7.618666
6.356835
5.483627
5.404949
5.333424
5.143881
5.270839
5.156994
5.412698
5.232692
5.130768
5.180836
5.362630
##ZVALUE=335
0.683665
0.751615
0.618696
0.729561
0.811815
0.752807
0.614524
0.876784
0.781417
0.801682
0.870824
0.805855
0.886917
0.735521
0.818968
0.762939
0.766516
0.818968
0.878572
0.889897
0.634789
0.787973
0.821948
0.741482
0.817776
0.704527
0.697970
0.759959
0.721812
0.761747
0.948906
0.765920
0.909567
0.939965
0.977516
0.859499
0.923872
0.865459
1.009703
0.881553
0.889897
1.006722
1.053810
1.071692
0.942945
1.071692
1.091957
1.187921
1.318455
1.873970
3.844500
13.306737
29.612780
77.872872
149.382949
285.704732
409.704447
558.305979
617.211461
603.286624
528.887510
379.303694
259.777904
135.771632
68.944693
21.180511
7.882714
3.723502
3.614426
3.581643
3.388524
3.870726
4.545450
6.005764
7.452965
10.811687
14.129877
18.309951
20.865798
22.482872
22.323728
20.326972
18.412471
14.554858
12.163520
9.349585
7.646680
6.236434
5.908608
5.349517
5.364418
5.068779
4.971623
5.305409
5.267859
5.165935
##ZVALUE=340
0.581741
0.556707
0.806451
0.630617
0.553727
0.576973
0.645518
0.615716
0.745654
0.679493
0.611544
0.619888
0.561476
0.619888
0.507832
0.708699
0.534654
0.602603
0.670552
0.720620
0.675917
0.735521
0.713468
0.689626
0.834465
0.669956
0.666976
0.616908
0.771880
0.718832
0.278950
0.659823
0.724792
0.694990
0.696778
0.795722
0.793934
0.668764
0.820756
0.788569
0.879765
0.928640
0.975728
0.869632
0.857711
0.899434
0.796914
0.910759
0.933409
0.980496
1.092553
1.315475
2.157688
8.245707
20.522475
58.634877
114.821792
228.627920
337.362885
484.262705
568.374991
594.376922
550.156832
426.626801
302.316546
159.232616
87.245703
34.008622
12.560487
4.075766
3.445745
3.381968
3.409982
3.553629
3.669858
4.547834
5.339980
7.700920
9.697676
14.161468
16.959906
20.070672
20.899773
21.158457
20.020604
17.258525
14.689565
11.591911
9.311438
7.371902
6.101727
5.476475
5.094409
5.029440
4.819632
4.966855
##ZVALUE=345
0.664592
0.570416
0.641942
0.752807
0.783801
0.556707
0.491738
0.578761
0.573993
0.484586
0.578761
0.737906
0.797510
0.632405
0.703931
0.673532
0.765920
0.637770
0.611544
0.795722
0.676513
0.567436
0.748634
0.758767
0.698566
0.718832
0.655651
0.794530
0.715852
0.641942
0.756979
0.682473
0.625849
0.614524
0.719428
0.828505
0.662804
0.727773
0.838637
0.824928
0.919700
0.684857
0.837445
0.845790
0.889897
0.802875
1.010895
0.800490
0.787973
0.940561
0.994802
0.947714
1.101494
1.109838
1.544952
5.160570
13.241768
39.067864
81.698895
183.542967
293.063521
445.830822
560.934544
635.678768
607.492924
491.238832
371.557474
216.931701
121.188760
45.350790
18.998981
5.561709
3.467798
3.473759
3.484488
3.520846
3.356934
3.623962
3.952980
5.379915
6.956458
9.689927
12.086630
15.522838
17.618537
19.417405
19.825697
18.684864
17.079711
14.251471
11.975765
8.563995
7.759929
6.147623
5.214810
4.959702
##ZVALUE=350
0.502467
0.433922
0.621676
0.578761
0.455976
0.548959
0.579953
0.422597
0.454783
0.481606
0.608563
0.531673
0.469685
0.594854
0.352859
0.446439
0.454783
0.449419
0.562668
0.426769
0.474453
0.518560
0.494719
0.591874
0.430942
0.463724
0.467896
0.416636
0.587702
0.533462
0.564456
0.417829
0.537634
0.626445
0.529885
0.604987
0.481606
0.451803
0.538826
0.463724
0.508428
0.726581
0.628829
0.557899
0.672936
0.547767
0.729561
0.737906
0.633597
0.653863
0.685453
0.631809
0.692606
0.785589
1.040697
0.927448
1.051426
2.917647
7.511973
24.740696
53.767562
134.604573
229.494572
385.718942
522.561669
642.032623
638.863444
565.411448
441.824794
260.402560
155.680776
69.062710
30.693412
7.790923
3.502965
2.992749
3.207922
2.960563
2.884865
2.921820
3.230572
3.747940
4.584789
6.446838
8.140802
11.137724
13.180971
16.312599
18.125772
18.214583
17.665625
15.818477
13.565421
10.707974
8.716583
6.938577
##ZVALUE=355
0.756979
0.708699
0.618696
0.666976
0.729561
0.820756
0.676513
0.750422
0.607967
0.637770
0.821948
0.771880
0.775456
0.609756
0.767708
0.686646
0.747442
0.522733
0.630617
0.662804
0.673532
0.635982
0.691414
0.766516
0.719428
0.617504
0.752807
0.796914
0.838637
0.614524
0.719428
0.722408
0.730753
0.703931
0.783801
0.784993
0.825524
0.741482
0.834465
0.856519
0.942945
0.860691
0.760555
0.652671
0.656843
0.797510
0.978708
0.839829
0.782609
0.770688
0.914931
0.926852
0.991821
1.024604
0.947714
0.997782
1.023412
1.267791
1.117587
1.843572
4.368424
16.269684
35.543442
88.527799
159.494877
293.653607
411.041975
542.636514
580.243468
536.378622
445.614457
298.068523
185.980797
81.070662
37.113428
10.321736
4.299879
2.998710
2.992749
2.904534
2.841949
2.941489
2.981424
3.461838
3.860593
4.602671
5.756617
7.915497
9.576678
12.476444
14.447570
16.636848
17.089844
17.051697
15.403628
13.183951
##ZVALUE=360
0.682473
0.586510
0.635982
0.650883
0.750422
0.748634
0.640750
0.638962
0.633597
0.719428
0.578761
0.683665
0.558496
0.674725
0.639558
0.602603
0.581741
0.650883
0.684857
0.642538
0.806451
0.562668
0.514984
0.576973
0.638962
0.688434
0.703931
0.687838
0.721812
0.743866
0.862479
0.792742
0.791550
0.665784
0.681877
0.777841
0.667572
0.811815
0.770688
0.754595
0.743866
0.722408
0.875592
0.745654
0.795722
0.752807
0.752807
0.770688
0.862479
0.857711
0.921488
1.035929
0.850558
1.018643
0.917912
0.932813
0.826716
0.984669
0.936985
1.292825
1.009703
1.508594
2.357960
8.355975
21.645427
59.963465
113.314986
221.682787
331.194997
478.366613
552.032590
556.819439
495.929718
348.023772
231.334567
109.292865
56.074858
18.401742
6.528497
3.103614
2.796650
2.845526
2.829432
2.821684
2.894998
3.046989
3.112555
3.442764
3.924966
5.008578
6.529689
8.920431
10.829568
12.929440
14.529824
15.367866
##ZVALUE=365
0.737906
0.762939
0.747442
0.812411
0.897646
0.839829
0.785589
0.744462
0.744462
0.769496
0.768900
0.814795
0.752807
0.761747
0.735521
0.688434
0.770688
0.741482
0.700951
0.691414
0.949502
0.834465
0.846982
0.779629
0.657439
0.767708
0.857711
0.751615
0.820756
0.827909
0.653863
0.859499
0.718832
0.879765
0.842810
0.824928
0.777841
0.736713
0.731945
0.941753
0.950694
0.857711
0.764728
0.793934
0.896454
0.873804
0.775456
0.934601
1.032948
0.786781
0.937581
0.793934
0.979900
0.975728
1.059771
0.792742
1.000762
0.903606
0.911951
0.925660
1.211762
1.065731
1.257658
1.344681
1.863837
4.053712
14.044642
32.580495
88.468790
160.840750
297.576785
403.603911
518.751740
562.157631
518.397689
433.523655
282.496810
171.557665
73.058605
32.509565
8.476973
3.495812
2.802610
2.688766
2.874732
2.563596
2.639890
2.639890
2.677441
3.039837
3.400445
3.602505
4.681945
5.803704
7.674694
9.509921
##ZVALUE=370
0.569820
0.586510
0.512600
0.630617
0.611544
0.577569
0.680685
0.565648
0.527501
0.551939
0.592470
0.720620
0.783801
0.555515
0.722408
0.582933
0.546575
0.613928
0.666976
0.850558
0.613928
0.671744
0.649691
0.609756
0.665784
0.810623
0.701547
0.664592
0.748634
0.655651
0.666976
0.692606
0.666976
0.702739
0.679493
0.805855
0.692606
0.728965
0.700951
0.639558
0.640750
0.646710
0.734925
0.731945
0.738502
0.830889
0.655651
0.857711
0.792742
0.763535
0.844598
0.904799
0.770688
0.699759
0.752807
0.831485
0.776649
0.759959
0.752807
0.732541
0.731945
0.823736
0.804663
1.062751
1.140833
1.254678
1.337528
2.785921
8.001924
27.684569
57.869554
128.730536
214.807987
354.745984
450.865626
526.185632
522.156954
441.929698
335.540771
190.868974
107.050538
39.580464
16.417503
4.712939
2.761483
2.489686
2.491474
2.279878
2.682805
2.461672
2.465844
2.628565
2.646446
3.004670
3.338456
3.897548
##ZVALUE=375
0.360608
0.384450
0.507832
0.406504
0.557899
0.490546
0.410676
0.375509
0.382662
0.488758
0.455976
0.392795
0.364780
0.374913
0.466704
0.341535
0.435710
0.614524
0.557899
0.454783
0.372529
0.421405
0.463724
0.402927
0.355840
0.441670
0.459552
0.455976
0.390410
0.417829
0.475645
0.424981
0.380874
0.408888
0.388622
0.438690
0.389814
0.453591
0.452995
0.450611
0.533462
0.570416
0.386834
0.474453
0.485778
0.393987
0.419617
0.511408
0.614524
0.393987
0.325441
0.417829
0.556707
0.563860
0.681877
0.538826
0.616908
0.464916
0.626445
0.486970
0.469685
0.640750
0.659823
0.589490
0.807643
0.596642
0.589490
0.881553
0.892878
1.659989
4.269481
16.024709
37.476420
97.791553
170.560479
302.011967
401.122570
506.572723
531.491637
484.062433
393.534899
249.353647
152.071714
66.811442
32.097697
8.859634
3.525615
2.080798
1.954436
2.209544
2.102852
1.993775
2.122521
2.103448
2.163649
2.408624
##ZVALUE=380
0.530481
0.643730
0.514984
0.546575
0.535846
0.502467
0.630617
0.694990
0.694990
0.661612
0.699759
0.632405
0.735521
0.568628
0.666976
0.642538
0.724792
0.641942
0.613928
0.553727
0.551939
0.619888
0.483990
0.528693
0.574589
0.510812
0.691414
0.574589
0.572801
0.558496
0.624657
0.729561
0.600815
0.557899
0.704527
0.680685
0.659823
0.615716
0.695586
0.453591
0.526905
0.592470
0.596642
0.516772
0.560880
0.613928
0.558496
0.787973
0.768900
0.724792
0.572801
0.775456
0.652671
0.678897
0.708699
0.690818
0.693798
0.751615
0.643730
0.579953
0.774860
0.583529
0.668764
0.834465
0.886917
0.794530
0.822544
0.942945
0.974536
1.091957
1.110435
1.467466
2.921820
11.353493
28.483868
77.312589
139.713883
254.410505
359.882712
485.220551
536.090732
511.207581
436.629653
300.412774
200.600624
95.779896
46.451688
14.604926
5.270839
2.604723
2.326965
2.098680
2.119541
2.239943
2.210736
2.211928
##ZVALUE=385
0.575781
0.463724
0.550747
0.642538
0.623465
0.560880
0.568628
0.422597
0.591874
0.584722
0.628829
0.692606
0.477433
0.590682
0.562668
0.359416
0.626445
0.501871
0.724792
0.516772
0.467896
0.648499
0.715852
0.506639
0.457764
0.583529
0.725985
0.523925
0.636578
0.607967
0.479817
0.556707
0.629425
0.661612
0.633597
0.686646
0.667572
0.529885
0.667572
0.621676
0.624657
0.659823
0.643730
0.460744
0.640750
0.612736
0.725985
0.724792
0.510812
0.699759
0.716448
0.529885
0.652671
0.614524
0.644922
0.563860
0.663996
0.650883
0.723600
0.606775
0.647902
0.691414
0.627637
0.721812
0.635982
0.753999
0.934601
0.917912
0.894666
1.018643
0.985861
1.060963
1.034737
1.102686
1.866817
4.845858
18.953681
44.924617
110.909939
192.135572
327.565670
421.700478
515.090823
542.028546
491.067767
406.437516
263.872743
165.012479
71.256757
32.897592
9.819865
3.492832
2.052784
2.066493
2.250671
2.123713
##ZVALUE=390
0.610948
0.628829
0.615716
0.504851
0.474453
0.550747
0.504851
0.463724
0.409484
0.524521
0.436902
0.606775
0.610948
0.601411
0.586510
0.620484
0.576973
0.681877
0.638962
0.578761
0.482798
0.535846
0.453591
0.675917
0.546575
0.658631
0.570416
0.486970
0.494719
0.765920
0.610948
0.577569
0.701547
0.625849
0.752807
0.760555
0.869632
0.617504
0.567436
0.777841
0.786781
0.645518
0.736713
0.621676
0.618696
0.630617
0.551939
0.561476
0.600815
0.614524
0.808835
0.708699
0.745654
0.698566
0.553727
0.606775
0.687838
0.697970
0.579953
0.841618
0.716448
0.741482
0.707507
0.706911
0.718832
0.717640
0.712872
0.803471
0.819564
0.796914
0.905991
1.028776
1.041889
0.923872
0.994802
0.923872
1.357794
2.959967
12.794733
33.142567
88.411570
156.336427
273.411870
375.349522
489.890575
537.575483
522.618890
457.928777
322.850943
216.518641
106.972456
52.511692
16.400814
5.604625
2.221465
1.949668
##ZVALUE=395
0.625849
0.501871
0.408888
0.491738
0.586510
0.571609
0.544786
0.606775
0.519753
0.526905
0.637770
0.511408
0.704527
0.574589
0.498891
0.582933
0.573993
0.534654
0.475645
0.537634
0.438690
0.482798
0.623465
0.587702
0.508428
0.583529
0.613928
0.691414
0.449419
0.557899
0.659823
0.546575
0.437498
0.551939
0.568628
0.655651
0.772476
0.637770
0.623465
0.681877
0.647902
0.725985
0.687838
0.605583
0.571609
0.666976
0.608563
0.551939
0.645518
0.435710
0.514984
0.526905
0.647902
0.458956
0.647902
0.679493
0.693798
0.748634
0.727773
0.771880
0.670552
0.707507
0.633597
0.721812
0.660419
0.754595
0.762939
0.864863
0.977516
0.884533
0.956655
0.912547
1.013875
0.870824
0.819564
1.034737
0.949502
0.925660
1.059771
2.365708
7.364750
26.817918
55.561662
120.280981
199.199915
338.415504
446.757674
557.999611
582.398772
530.346632
436.066985
277.543664
170.085430
72.433949
32.301545
9.113550
##ZVALUE=400
0.536442
0.578761
0.461936
0.570416
0.535846
0.627637
0.567436
0.600815
0.555515
0.715852
0.544786
0.559688
0.592470
0.521541
0.647902
0.492930
0.415444
0.468493
0.548959
0.720620
0.585914
0.380874
0.543594
0.679493
0.559688
0.524521
0.433922
0.584722
0.582933
0.481606
0.491738
0.576973
0.580549
0.584722
0.680685
0.720620
0.529885
0.649691
0.710487
0.775456
0.632405
0.646710
0.726581
0.656843
0.612736
0.590682
0.565648
0.549555
0.663996
0.534654
0.504851
0.713468
0.712872
0.641942
0.619888
0.633597
0.734925
0.757575
0.672936
0.859499
0.802875
0.588894
0.761747
0.646710
0.606775
0.800490
0.673532
0.765920
0.747442
0.762939
0.997782
0.832677
0.949502
0.979900
0.959635
1.016855
0.891685
0.831485
1.002550
1.016855
1.007915
1.474619
4.456639
12.293458
39.127469
78.934431
169.462562
262.819529
403.499007
490.332842
550.697446
531.703830
434.143543
325.590968
186.131001
108.633637
##END
