##TITLE=
##FORMAT=SPECTACLE-ASCII V-1.2
##DATA TYPE=ULTRAVIOLET SPECTRUM
##SECOND TYPE=ULTRAVIOLET SPECTRUM
##DATE=09/25/17
##TIME=15:29:55
##SPECTROMETER/DATA SYSTEM=SPECTACLE
##XUNITS=NM EM
##YUNITS=ENERGY
##YFACTOR=1
##FIRSTX=220
##LASTX=410
##NPOINTS=96
##3DDATA=Equidistant
##ZUNITS=NM EX
##FIRSTZ=210
##LASTZ=400
##ZPOINTS=39
##XYDATA=(Y..Y)
##ZVALUE=210
3.971457
3.912449
3.390908
3.448725
3.931522
3.508925
3.735423
4.070997
4.260540
3.656745
4.270673
4.021525
3.026724
4.290938
3.805757
3.790855
3.650784
3.073812
3.642440
3.629923
3.618598
3.850460
4.117489
3.854632
3.985763
4.187822
4.138947
4.198551
4.285574
3.812909
4.491806
4.408956
4.040599
4.727840
4.941821
5.229712
4.760623
4.919767
4.846454
5.794764
4.035830
5.346537
4.921556
5.494952
6.255507
5.664825
5.563498
5.896688
5.925894
6.171465
6.059408
6.475449
5.752444
6.169677
6.296635
6.146431
6.634593
6.490946
6.565452
6.442666
6.045699
6.833673
6.401539
6.728768
6.657839
6.200671
7.065535
7.331967
8.423924
8.250475
9.639859
11.227727
12.197495
14.125705
13.773441
17.118454
17.225742
17.497540
19.017458
17.107725
17.017722
16.439557
14.948845
12.452602
12.003779
10.005832
8.418560
6.834865
7.408857
6.850958
6.713867
6.520748
6.367564
7.249713
7.793903
7.452965
##ZVALUE=215
6.550550
7.103682
6.315708
6.682873
5.218983
5.496740
4.415512
4.770756
4.828572
5.041957
5.126595
5.212426
5.002618
4.917979
3.935695
3.889799
4.266500
3.604889
3.248453
4.211664
3.770590
4.083514
3.810525
3.969669
4.137754
4.099607
4.476905
4.194975
4.336834
4.338622
4.851818
5.015731
4.654527
4.817843
5.281568
4.591942
4.633665
5.034804
5.419850
5.810857
5.426407
5.947948
6.140471
5.491972
6.243587
6.068945
5.900860
5.896688
5.364418
6.442666
6.038547
6.516576
6.256700
5.899668
6.438494
5.919933
6.515980
7.033944
7.355809
7.163882
6.779432
7.406473
6.408691
7.555485
6.808639
7.010698
7.284880
7.033944
8.034706
8.799434
10.656714
10.400414
11.904836
15.225410
14.974475
17.311573
16.901493
18.164515
17.733574
16.546845
14.858842
13.758540
12.642741
12.179613
10.796785
9.136796
8.506775
9.269714
7.085800
6.036758
7.425547
6.944537
6.895661
6.007552
6.920695
7.069707
##ZVALUE=220
11.492968
10.687709
12.997985
12.617707
11.979938
12.831688
9.887815
7.918477
6.993413
5.526543
5.738735
6.863475
6.866455
6.942749
5.997419
5.433559
4.878640
4.844666
4.222989
4.060864
3.810525
3.825426
3.868937
4.674792
3.763437
4.333854
4.317760
5.037785
4.588962
4.028678
4.764795
4.792809
4.361868
5.099773
5.795956
5.481839
5.843639
6.382465
6.107688
5.789995
5.975962
6.971955
6.239414
5.926490
6.861687
6.943941
6.491542
6.393790
7.504821
7.313490
6.978512
7.071495
7.916689
6.777644
8.109808
6.725788
6.916523
8.440614
8.627772
7.341504
7.858872
8.276701
7.778406
8.006692
7.458925
7.794499
8.076429
8.861423
9.362698
10.674596
10.198951
12.001991
13.612509
15.265942
16.969442
17.287731
17.993450
18.854737
19.275546
18.913746
18.087626
15.962720
15.685558
14.141798
12.726784
11.533499
9.765625
9.228587
8.082986
8.210540
8.094907
8.106828
8.005500
7.581711
7.614493
6.982684
##ZVALUE=225
12.457967
11.188984
17.776489
21.793842
27.196407
32.387972
31.963587
30.213594
23.456812
17.907619
11.264682
8.989573
9.695888
9.405613
10.081530
10.533929
9.864569
9.150505
8.714795
6.395578
5.022883
5.735755
4.306436
4.042983
4.430413
4.452467
4.369617
4.989505
4.024506
4.754663
4.669428
5.256534
5.544424
4.661679
5.692840
6.725788
6.152987
5.683899
6.141663
7.175803
7.165670
6.761551
7.612705
7.056594
7.177591
7.793903
7.220507
7.317662
7.597804
7.499456
7.093549
7.528663
7.634759
7.600784
8.239746
7.512569
8.080602
8.116961
8.070469
8.523464
8.331537
7.712841
9.389520
9.360909
8.224845
8.385777
8.434653
8.479953
9.603500
10.860562
11.621714
12.027621
12.456775
14.556646
14.707446
17.076731
15.121698
16.623735
17.658472
15.552640
14.434457
13.174415
13.626814
13.118982
11.277795
10.613799
9.488463
9.122491
8.887649
9.756684
8.046627
8.344650
8.412600
8.097887
7.931590
7.217526
##ZVALUE=230
8.640885
9.519458
14.126897
24.690628
34.721494
46.534538
59.022903
71.596503
70.580840
65.659881
51.581860
35.193563
26.546717
15.269518
11.712909
13.762712
15.233755
15.436411
16.678572
14.214516
12.400746
11.504889
8.131862
5.655885
4.441738
4.604459
4.545450
4.673600
5.344748
5.810857
5.190969
5.033612
5.948544
5.505681
5.602837
7.015467
6.021857
6.619692
6.993413
6.978512
7.279515
7.743835
8.097887
7.885695
8.217692
7.632971
7.583499
7.588863
7.580519
8.483529
7.878542
9.404421
8.447766
8.868575
8.359551
8.819699
9.397864
9.560585
9.965897
9.097457
9.155869
9.494424
9.207726
10.101795
9.194613
9.253621
10.700822
10.750890
10.942817
10.642409
11.960864
13.766885
14.624000
15.773773
16.615987
18.685460
16.645789
17.737746
17.127991
16.926527
16.712546
15.123487
13.804436
13.353825
13.246536
11.379719
11.231899
10.373592
9.957552
9.726882
9.906888
10.172725
9.684563
9.401441
9.915829
9.781718
##ZVALUE=235
4.908442
5.208850
7.814765
13.537407
23.331642
40.557981
55.463910
88.395476
114.671588
133.086443
133.041739
130.434632
95.451474
71.896911
41.625500
28.687716
17.704964
17.997622
19.315481
23.391843
24.410486
21.756887
20.709634
16.117692
12.507439
9.551644
7.277727
6.073713
5.811453
5.452633
5.314946
4.936457
5.594492
6.604791
6.529689
5.975962
6.720424
7.684827
6.527901
7.119775
6.989837
7.709861
7.395744
7.515550
8.159876
8.645654
7.895827
8.430481
9.535551
8.841753
8.859634
9.215474
9.660721
9.324551
9.565949
10.555983
10.221601
9.868741
10.607839
11.784434
10.417700
10.578632
10.069609
11.070967
11.129975
10.483861
11.023879
11.099577
11.513829
13.073683
13.539791
15.578866
16.928911
18.591881
18.606782
18.615723
20.128489
19.958615
20.201802
18.145442
16.350746
16.609430
17.029643
15.108585
14.549494
11.589527
11.897683
12.111664
11.677742
11.456609
11.955500
12.387633
12.181997
10.815859
11.576414
10.142922
##ZVALUE=240
3.304482
3.294945
3.556609
4.668832
8.204579
14.005899
30.226707
49.075484
91.191530
125.521421
176.392794
197.007656
207.504630
194.281936
160.481930
110.063553
75.675845
43.548942
28.122663
22.115707
24.610758
27.505755
29.851794
29.999614
27.979612
24.785995
20.010471
14.134645
11.482835
9.257793
7.107854
6.363988
6.282926
6.172657
6.664991
6.329417
6.759763
6.163716
7.698536
7.187724
7.229447
7.389784
7.121563
8.230805
8.043647
6.953478
7.713437
8.242726
9.218454
8.057952
8.164644
9.034872
8.543730
9.437799
8.866787
9.545684
9.303689
8.993745
9.692907
10.452867
10.809898
10.485649
10.548830
11.045933
11.724830
10.963678
11.233687
11.580586
12.429953
12.497902
13.600588
16.076565
16.963482
16.061664
19.224882
17.936826
20.117760
20.246506
17.882586
18.397570
18.133521
17.513633
15.375614
15.128851
14.844537
13.579726
12.836456
13.325810
11.344552
11.659861
12.144446
11.475682
11.371970
12.345910
12.142658
11.677742
##ZVALUE=245
2.984405
2.875924
2.803802
2.809763
3.004670
4.699826
6.586909
14.477968
26.186705
51.168799
90.028644
139.137506
204.185843
245.633721
262.298584
260.452628
217.817426
170.837641
126.496553
70.181489
38.633943
22.711754
21.580458
27.900934
31.226873
33.221841
34.961700
31.692982
28.527975
21.886826
18.413663
12.869835
8.609891
6.993413
5.973577
5.708933
6.353855
6.370544
6.262660
6.380677
5.918741
6.090999
6.731749
5.751848
6.617904
6.708503
6.532669
5.997419
6.682873
6.677508
6.929636
7.476807
8.014441
8.424520
8.045435
8.281469
7.740855
8.957982
8.434653
8.352995
8.791685
8.936524
8.643866
9.648800
9.777546
9.981990
10.014772
10.793805
9.902716
11.284947
11.838675
13.746619
13.772845
14.871955
16.247630
15.313625
15.307665
15.590787
15.358925
15.933514
14.319420
15.122890
14.665723
13.096929
12.206435
12.310743
12.603998
11.206865
10.600686
11.592507
11.164546
11.174679
11.276603
10.456443
9.946823
10.333657
##ZVALUE=250
2.250671
2.482533
2.440810
2.625585
2.424717
2.436638
2.685785
3.382564
5.406737
11.250973
24.169683
51.332712
87.510943
151.954889
202.527642
270.325541
303.700566
310.572982
292.061567
224.065781
164.198875
109.096766
52.309632
27.957559
21.333694
23.381710
29.303432
34.123659
37.338734
36.521554
34.863949
29.446483
23.689866
16.326904
12.853742
8.540750
7.085800
6.023645
5.554557
6.015897
5.051494
5.435944
4.981756
5.177855
5.979538
6.111860
5.663633
5.417466
5.994439
6.395578
5.963445
6.561875
6.320477
6.807446
6.602407
7.576942
7.590652
7.979870
7.978678
8.213520
7.777810
9.046793
8.696914
8.137822
8.573532
8.681417
8.406639
8.962750
10.034442
10.218620
11.033416
11.173487
12.399554
11.842847
13.019443
13.141632
13.318658
13.285875
12.083650
12.770891
11.744499
11.851788
11.555552
12.497902
11.006594
10.399818
10.492802
9.259582
9.370446
9.848475
10.112524
9.429455
9.182692
8.916855
9.445548
9.222627
##ZVALUE=255
2.023578
2.168417
2.181530
2.489686
2.263784
2.082586
2.246499
2.383590
2.464652
2.666712
4.669428
8.570552
18.365979
38.721561
71.751475
132.366419
191.803575
272.312760
328.333974
368.926525
355.128646
317.819715
226.203799
147.884488
74.675679
42.223930
21.522641
20.065904
25.862455
29.436946
34.860969
37.845969
39.535761
37.129521
30.316710
23.020506
17.585754
11.816621
8.042455
5.784631
5.834699
5.368590
4.693866
5.157590
5.018711
5.349517
5.473495
5.920529
5.733967
5.659461
6.278753
6.430745
6.040931
6.392598
7.279515
6.918907
6.593466
7.707477
7.128716
7.368922
8.050799
8.472800
7.699728
7.496476
8.388758
8.135438
7.664561
8.545518
9.047985
10.013580
9.466410
10.062456
10.072589
11.718869
11.597872
11.841655
11.880994
11.624694
10.867715
11.566877
10.923743
9.916425
9.807944
10.008812
9.066463
9.174943
9.119511
8.774996
8.835793
8.457899
8.421540
8.791685
8.667707
8.525848
8.892417
9.099841
##ZVALUE=260
1.853704
1.891851
1.984835
1.944900
1.821518
1.990795
1.819730
1.925826
2.022982
1.977682
2.267957
2.128482
3.394485
5.919933
13.790727
27.223825
64.022541
108.482838
165.149570
271.424651
360.587835
440.042615
458.653569
420.735478
349.225998
224.856734
153.360963
73.687434
37.774444
17.306805
17.637610
24.840832
31.282902
37.813783
40.263534
39.983988
36.514997
30.404925
24.140477
16.893744
12.380481
8.268952
6.685853
5.238652
5.562901
5.257726
5.451441
5.408525
5.627871
6.011724
5.663633
5.748868
6.191730
6.010532
6.510615
6.728768
6.495714
7.108450
7.245541
6.549954
6.954670
7.239580
7.722974
7.130504
7.185936
7.457733
8.123517
7.180572
8.311868
8.359551
9.156466
9.017587
9.478927
10.079741
10.370612
10.700822
10.452867
10.814667
10.639429
10.486841
9.883642
9.269714
9.382963
8.577704
8.358955
7.884502
7.708669
8.583665
8.265972
7.865429
7.985830
7.950664
7.561445
7.397532
7.401705
7.644892
##ZVALUE=265
1.926422
1.909733
1.970530
1.716614
1.904964
1.855493
2.033710
2.173781
2.116561
1.995564
2.056956
2.032518
2.049804
1.985431
2.564788
5.039573
9.809732
23.133755
44.852495
101.303458
165.797472
249.959826
373.064876
453.993678
497.382879
482.495427
405.273438
318.338871
195.937753
119.455457
62.817931
22.557974
15.615821
19.914508
25.718808
33.527613
37.456751
41.031837
40.353537
36.348701
30.475855
23.315549
17.560720
11.807680
8.579493
6.453991
5.866885
5.654693
5.634427
5.683899
5.933642
5.815625
6.287694
6.648898
6.280541
6.573796
7.039905
6.582737
7.053614
6.954670
6.784797
7.339716
7.399917
7.000566
7.504821
7.281899
7.468462
7.355809
7.683635
7.427931
8.109808
8.433461
8.719563
9.524822
9.905696
10.012984
9.967685
9.994507
9.765625
9.140968
8.852482
8.404851
8.111000
7.930994
7.757545
7.355809
7.673502
7.258654
7.242560
8.068681
7.332563
6.937981
7.424951
6.750822
7.192492
7.152557
##ZVALUE=270
1.674891
1.680851
1.629591
1.598597
1.587868
1.648664
1.629591
1.621842
1.526475
1.449585
1.652837
1.634955
1.773834
1.797676
1.838803
1.866817
2.064705
2.957582
6.685853
15.601516
31.911731
78.687668
139.411688
248.768926
354.425907
484.039783
534.869432
546.598434
504.412651
393.886566
286.260843
156.660676
87.441802
31.314492
15.646815
14.135838
18.766522
26.861429
33.085942
38.909912
41.378736
40.507913
38.468838
30.838847
24.523735
16.906857
12.736917
8.624792
7.034540
6.151795
5.707741
5.982518
5.580783
6.076694
6.635785
6.138682
6.146431
6.217957
6.140471
6.366968
6.881952
6.214976
7.223487
6.634593
6.679893
6.249547
6.574988
7.011890
6.939769
7.410645
7.186532
7.600784
8.263588
8.558631
8.286834
9.083748
8.483529
8.700490
8.547902
7.900000
7.674694
7.105470
7.472634
7.172823
6.594658
7.042885
6.940961
6.658435
6.300807
6.792545
6.510615
6.677508
6.547570
6.247759
6.340742
6.314516
##ZVALUE=275
1.393557
1.321435
1.411438
1.547933
1.727939
1.497865
1.487732
1.446605
1.425743
1.457930
1.671910
1.493692
1.576543
1.475811
1.445413
1.692772
1.513958
1.622438
1.974702
2.314448
4.165769
9.742975
26.695728
57.695508
128.497481
200.868845
326.717496
436.877012
558.971763
591.117740
575.526953
497.133732
378.893018
217.063427
127.727985
49.572587
21.301508
11.341572
13.708472
20.376444
26.083589
33.373833
38.861632
42.011738
41.494966
36.610961
32.257438
24.096966
18.654466
13.297796
9.734631
6.985664
6.281734
6.195903
5.624890
6.069541
5.869865
5.957484
6.106496
6.278753
6.381869
6.181598
6.403923
6.336570
6.291866
6.689429
6.410480
6.436706
6.629825
6.850958
6.950498
7.196665
7.673502
7.729530
8.212924
7.621646
8.436441
8.574724
7.669926
7.190704
7.375479
7.070899
6.985664
6.866455
6.741881
6.847978
6.161928
6.000996
6.095767
5.997419
6.222725
5.742908
6.159544
6.063581
5.986691
6.334782
##ZVALUE=280
1.361966
1.316667
1.291633
1.380444
1.425743
1.248717
1.340508
1.376867
1.462698
1.412630
1.320839
1.555681
1.330972
1.560450
1.541972
1.397729
1.502633
1.429915
1.456738
1.696944
1.750588
1.803637
3.543496
7.927418
22.575855
46.072006
100.726485
168.463588
297.814608
419.279933
536.966920
650.584698
673.590899
598.706007
477.115512
299.372673
184.327960
79.643726
34.133792
11.580586
10.374784
14.948845
19.166470
27.386546
33.402443
40.173531
40.972829
39.537549
35.903454
29.895902
24.119616
17.289519
12.713671
8.855462
7.018447
6.571412
6.166697
5.678535
5.853772
6.052852
6.038547
6.147623
6.262660
6.256700
6.048679
6.216764
6.071925
6.347895
6.209612
6.472468
6.921887
7.470846
7.376671
7.767677
7.802844
7.645488
8.082986
7.524490
7.501841
7.329583
6.819963
6.894469
6.301999
6.762743
6.091595
5.850792
6.056428
5.720854
6.084442
5.605817
5.742908
5.666614
6.027818
5.678535
5.817413
5.771518
##ZVALUE=285
1.402497
1.234412
1.176596
1.105666
1.430511
1.421571
1.372695
1.379848
1.444817
1.387596
1.356602
1.387596
1.377463
1.282692
1.311898
1.269579
1.514554
1.326799
1.401901
1.242757
1.431704
1.766682
1.619458
1.683831
2.376437
4.859567
13.575554
27.079582
69.458485
129.676461
216.351748
382.746458
524.429679
696.287751
750.906467
706.665516
606.174469
408.507586
264.955759
126.581788
61.303973
17.986894
9.153485
9.943843
12.914538
19.779801
24.604797
32.148957
36.204457
39.719939
39.445758
34.507513
30.725598
22.970438
18.085837
11.968613
9.564757
6.916523
5.837679
5.782843
5.823970
6.006956
5.906820
5.454421
5.788803
5.812645
5.594492
5.582571
5.930662
6.292462
6.347895
6.736517
6.806850
6.642938
7.165670
6.915927
7.148981
7.035732
6.580949
6.362796
6.389618
6.334782
6.341934
6.056428
5.685687
5.710721
5.577803
5.644560
5.773902
5.513430
5.512834
5.528927
5.260706
5.820990
5.525947
5.433559
##ZVALUE=290
1.165867
1.221895
1.282692
1.202822
1.005530
1.372695
1.219511
1.240969
1.215935
1.324415
1.271963
1.391768
1.134872
1.259446
1.284480
1.239777
1.313686
1.266599
1.351833
1.584888
1.239777
1.353621
1.428723
1.541972
1.619458
1.735687
1.820922
2.737641
7.745624
17.156601
35.916567
91.832876
168.667436
327.890515
473.775864
667.987466
765.110850
778.034925
700.456500
514.559746
356.867909
180.884600
93.116760
30.531883
11.245608
7.287860
8.754730
13.312697
17.366409
25.117993
29.460788
36.538839
38.698912
37.095547
35.162568
27.617812
23.030639
16.501546
11.281967
8.493662
6.932616
5.468726
5.169511
5.412698
5.298853
5.259514
5.672574
5.448461
5.620718
5.666614
6.223917
6.322861
6.331801
6.488562
6.185770
6.263852
6.646514
5.639791
5.657673
5.661845
5.533695
5.561709
5.710721
5.234480
5.679727
5.428791
5.556941
5.226731
5.183816
5.150437
4.872680
5.002618
4.954934
5.460978
5.599856
4.976988
##ZVALUE=295
1.030564
0.955462
0.899434
0.869632
0.959635
1.002550
0.926852
1.136661
1.002550
1.063943
1.184940
0.919700
0.850558
0.946522
0.942945
1.085997
1.140833
1.077652
1.177788
0.911951
1.117587
0.845790
1.067519
1.305938
1.166463
1.153946
1.321435
1.382828
1.594424
1.817942
4.422665
10.715723
31.530857
62.862635
149.999857
251.585841
442.789793
608.309507
789.479613
844.543576
791.967511
670.183897
446.995497
285.544991
126.653910
59.208870
16.241670
7.248521
6.186962
7.853508
12.043715
16.054511
22.812486
28.317571
34.278631
36.475658
34.979582
32.822490
27.365685
22.203922
15.884638
11.972785
8.441806
6.612539
5.305409
4.870892
4.857779
5.165935
5.074739
5.114675
5.069971
5.264878
5.667806
6.009936
5.922914
5.747676
5.663633
5.326867
5.488992
5.242825
5.283952
5.300641
5.200505
5.065799
4.788637
4.808903
4.965663
4.935861
4.805923
4.982948
4.704595
4.897714
4.720688
4.764795
4.641414
4.849434
##ZVALUE=300
1.135468
1.129508
1.159906
1.215935
1.061559
1.025796
1.076460
1.087785
1.207590
1.191497
1.124740
1.181960
1.036525
1.176000
1.072884
1.124740
1.241565
1.188517
1.084805
1.206994
1.254678
1.092553
1.161695
1.224875
1.342893
1.465678
1.217723
1.577735
1.495481
1.537800
1.569986
1.679659
2.920628
7.077456
20.696521
43.121576
106.983781
196.080804
376.022458
542.631745
762.711763
871.462822
888.837576
804.079771
582.953691
396.495461
198.851824
100.061893
30.483603
10.986924
5.232692
5.958676
7.907748
10.702610
16.176701
21.305680
28.012991
32.069683
34.284592
34.721494
30.592680
27.338862
21.197796
16.281605
10.634661
7.930994
6.202459
5.353689
4.801750
4.623532
4.535913
4.871488
5.141497
5.210638
5.299449
5.254745
5.529523
5.359650
5.237460
4.900694
5.045533
4.855990
4.785657
4.602671
4.850626
4.887581
4.750490
4.533529
4.909635
4.766583
5.005598
4.838705
4.950762
4.717708
4.525781
4.440546
##ZVALUE=305
1.011491
1.009703
0.951886
0.968575
0.859499
1.088977
1.051426
0.831485
0.933409
0.956655
1.045465
1.097918
0.993609
1.261830
1.010895
1.010895
1.236796
1.259446
1.189709
1.034737
1.146793
1.055598
1.209974
1.179576
1.220703
1.319647
1.130700
1.232624
1.326799
1.447797
1.354814
1.457930
1.613498
1.769662
1.996756
4.989505
12.277961
36.992431
75.914860
176.160932
295.232534
514.924526
699.231029
893.367529
951.990485
870.151520
725.745559
488.509536
311.664939
139.174461
63.066483
17.435551
6.763935
5.372763
6.120801
8.092523
10.838509
16.096830
20.725727
27.141571
30.365586
33.208728
32.320619
29.325485
25.606751
18.904805
14.752746
10.347962
7.754564
5.834699
5.519986
5.136728
4.837513
5.157590
5.189776
5.423427
5.223751
4.971623
4.725456
4.610419
4.834533
4.685521
4.517436
4.537702
4.536510
4.734993
4.902482
5.039573
5.025864
4.748702
4.588962
4.737973
4.713535
4.834533
4.631877
4.541874
##ZVALUE=310
1.185536
1.013875
1.258850
1.164675
1.199841
1.053810
1.195669
1.239777
1.023412
1.087785
1.220703
1.152754
0.943542
1.203418
1.147985
1.039505
1.233816
1.125932
1.184940
1.355410
1.300573
1.339912
1.105666
1.170635
1.139641
1.257658
1.237988
1.261830
1.293421
1.205802
1.502633
1.246929
1.406670
1.814961
1.579523
1.761913
1.856685
3.098845
7.063746
23.102760
51.326752
131.815672
234.740973
436.893702
641.590953
909.578800
1013.469696
1016.067863
932.598710
680.797696
462.010503
227.220654
114.693642
34.840703
11.952519
5.274415
5.000830
5.513430
7.294416
10.316968
13.511777
19.065738
24.431944
28.427839
30.671954
30.552745
28.436780
24.224520
19.435883
14.017820
10.717511
7.905960
6.268620
5.280972
5.495548
5.206466
4.818439
4.830956
4.959702
4.885793
4.460812
4.394650
4.684925
4.352927
4.516840
4.833937
4.420877
4.687905
4.557967
4.848838
4.698634
4.761815
4.917979
4.730821
4.846454
4.607439
##ZVALUE=315
0.905991
1.016855
1.020432
0.937581
1.013875
1.042485
1.142621
0.811815
0.779629
1.067519
0.959635
0.923872
0.939965
0.897646
1.023412
1.176000
1.052618
1.021624
1.032948
1.086593
1.027584
0.959635
1.058578
1.033545
0.872612
1.010895
1.224875
1.272559
1.232624
1.139641
1.039505
1.281500
1.325607
1.171827
1.268983
1.400709
1.444817
1.558661
1.616478
2.194643
4.877448
16.828775
41.156411
112.261772
211.084485
412.894487
593.194962
844.686031
999.957919
1015.936732
1015.936732
843.533874
626.024604
335.611701
176.373720
54.672956
17.928481
5.618930
4.637837
4.839897
5.109906
7.032752
8.689761
13.237596
17.292500
22.947788
26.404858
28.466582
29.282570
26.054978
22.630692
17.843843
14.348626
10.511875
7.879734
6.163716
5.118847
4.737973
4.504919
4.302859
3.963709
4.345775
4.296899
4.318953
4.505515
4.496574
4.329681
4.222989
4.427433
4.396439
4.464984
4.375577
4.228950
4.349947
4.529953
4.336834
##ZVALUE=320
0.883937
0.945926
0.982881
0.748634
1.014471
1.078844
0.957847
1.083612
0.980496
0.969768
0.877976
0.865459
0.928640
0.838637
0.760555
0.853539
0.931621
0.946522
0.962615
1.056790
0.884533
1.007915
1.072884
0.873804
1.001954
1.154542
0.991821
1.131892
0.950694
1.039505
1.009703
1.066923
1.190901
1.259446
1.090765
1.219511
1.241565
1.305938
1.456738
1.426935
1.482964
1.732707
2.668500
9.551644
25.882721
83.696842
161.061883
318.493843
484.853983
749.555826
950.829983
1015.928984
1015.928984
985.880494
777.959824
456.474423
256.174803
98.086596
36.987662
8.342862
4.713535
4.275441
4.389882
5.040765
5.827546
8.539557
11.232495
17.079711
20.395517
24.532676
26.921630
27.321577
25.739670
21.881461
18.208623
12.937784
9.837747
6.937981
5.619526
4.364848
4.091859
3.948808
4.000664
4.147887
4.047751
4.081726
4.080534
4.041791
4.205704
4.200935
4.177690
4.060864
4.118681
4.169941
4.238486
4.193783
##ZVALUE=325
0.839829
0.895858
0.888705
1.009703
0.863671
0.796914
0.873804
0.954866
0.831485
0.842810
0.860691
0.881553
0.828505
0.942945
1.012683
0.975728
0.916719
0.899434
0.966787
0.802875
0.976920
0.962615
0.947714
1.205802
0.989437
0.917912
0.975728
1.039505
1.087785
1.064539
1.056790
1.047850
1.051426
1.024604
1.057982
1.125932
1.122952
1.225471
1.117587
1.277924
1.385808
1.463890
1.518726
1.654625
2.264977
6.878972
16.629696
55.602789
116.916895
269.058943
437.642932
705.713034
922.123790
1015.929580
1015.929580
1015.929580
912.723541
578.434467
359.970927
152.302980
63.057542
13.806820
5.326867
3.954768
4.019737
4.045963
4.436970
6.112456
7.990599
11.939406
15.748739
19.895434
23.336411
25.763512
25.464892
23.373961
20.247698
15.700459
12.262464
8.573532
6.519556
4.953742
4.434586
3.994703
3.853440
3.996491
3.983974
3.861785
4.036427
3.980994
4.055500
4.097819
3.950596
4.161596
4.250407
4.002452
##ZVALUE=330
0.827909
0.780821
0.973940
0.919700
0.810623
0.742674
0.836849
0.781417
0.756979
0.865459
0.924468
0.860691
0.896454
1.092553
0.967979
0.717640
0.847578
0.717640
1.005530
0.898838
1.034737
0.942945
1.103878
0.896454
0.935793
1.055598
0.844598
0.903606
0.974536
1.013875
0.892878
0.932813
0.984669
0.883937
0.853539
1.127720
1.172423
1.020432
1.123548
1.219511
1.274943
1.328588
1.375675
1.451969
1.551509
1.522899
1.597404
3.315806
8.923411
33.966899
80.971718
208.229423
363.444686
636.736751
865.638852
1015.924811
1015.924811
1015.924811
996.930599
702.154636
464.253426
215.908885
100.541711
27.776957
8.146763
3.859997
3.793836
3.719926
3.654957
4.647970
5.808473
8.180737
11.284947
15.599728
19.128919
22.964478
23.940802
23.908615
22.290945
18.130541
14.965534
10.701418
8.626580
6.479621
5.295873
4.143715
4.124641
3.805757
3.867745
3.761649
3.876686
3.904700
3.796816
3.970861
4.037619
3.954768
##ZVALUE=335
0.874996
0.907779
0.903606
0.748634
0.833869
0.721812
0.875592
0.781417
0.824928
0.792742
0.884533
0.829697
0.954866
0.849962
0.918508
0.793934
0.783801
0.871420
0.812411
0.822544
0.930429
1.023412
0.840425
0.913739
1.023412
0.850558
0.875592
0.924468
0.850558
0.857711
0.903606
0.968575
0.960827
1.019835
1.057982
1.046658
1.072884
1.075864
1.071692
1.092553
1.138449
1.103878
1.056790
1.284480
1.188517
1.341701
1.433492
1.514554
1.601577
2.671480
5.571842
20.833611
56.453943
170.941949
333.951712
640.981793
881.827474
1015.939713
1015.939713
1015.939713
1015.939713
806.713700
572.074652
311.869979
166.044831
52.473545
16.109943
4.561543
4.026890
3.856421
4.092455
4.356503
4.685521
6.210804
7.786751
11.129975
14.027953
18.170476
20.220876
22.611618
22.099614
19.947886
17.353892
13.887882
11.176467
8.425713
6.405711
5.094409
4.547834
3.974438
3.908873
3.900528
3.731847
3.891587
3.687739
3.721714
##ZVALUE=340
0.854731
0.822544
0.811815
0.914931
0.996590
0.742674
0.788569
0.786781
0.923872
0.802875
0.978708
0.758767
0.699759
0.798702
0.731945
0.755787
0.722408
0.690818
0.684857
0.774860
0.868440
1.012683
0.949502
0.994802
0.948906
1.053810
0.911951
0.814795
1.014471
0.861883
0.937581
0.960827
0.832677
0.927448
1.068711
1.029968
1.005530
0.940561
0.917912
1.170635
1.158714
1.072884
1.198649
1.173615
1.253486
1.273751
1.205802
1.234412
1.418591
1.581907
1.855493
2.056956
3.397465
11.673570
33.398867
115.041733
247.046947
536.162853
807.519555
1015.957594
1015.957594
1015.957594
1015.957594
953.348875
674.563646
345.629454
189.329982
71.716905
24.300814
5.710721
4.316568
4.290938
4.148483
4.159808
4.180670
4.579425
5.531907
7.630587
9.930730
13.497472
17.061830
20.085573
21.290779
20.965934
19.305944
16.996861
13.830662
10.329485
8.425713
6.584525
5.045533
4.389882
3.927946
3.652573
3.741980
3.659725
##ZVALUE=345
0.805855
0.838637
0.752807
0.831485
0.790954
0.736713
0.710487
0.860691
0.830889
0.932813
0.767708
0.782609
0.790954
0.740886
0.899434
0.772476
0.752807
0.926852
0.871420
0.904799
0.828505
0.715852
0.693798
0.812411
0.880957
0.816584
0.818968
0.928640
0.802875
0.839829
0.960827
0.846982
0.901818
0.851750
0.995994
0.890493
1.037717
1.026988
0.917912
0.966787
0.821948
1.061559
0.982881
1.121759
1.032948
1.150966
1.246929
1.270771
1.391768
1.401901
1.357794
1.399517
1.452565
1.774430
2.151728
6.769896
19.595623
71.517825
161.897540
380.639434
609.898567
966.445804
1015.940905
1015.940905
1015.940905
1006.589532
785.457492
462.215543
258.436799
95.763803
37.338734
9.118915
4.855990
4.320741
4.089475
3.894567
3.966689
3.813505
4.231930
5.105734
6.749630
9.391904
12.346506
14.981627
17.275810
19.097924
19.097924
18.218756
16.458631
13.504624
11.034608
8.192658
6.332994
5.007982
4.083514
3.734827
##ZVALUE=350
0.740886
0.722408
0.540614
0.636578
0.709891
0.636578
0.538826
0.488758
0.668764
0.756979
0.687838
0.583529
0.640750
0.762939
0.710487
0.682473
0.601411
0.614524
0.660419
0.645518
0.645518
0.803471
0.684857
0.646710
0.831485
0.601411
0.867844
0.750422
0.779629
0.684857
0.850558
0.836849
0.610948
0.697970
0.746846
0.784993
0.752807
0.667572
0.798702
0.848770
0.822544
0.840425
0.760555
0.903606
0.838637
1.011491
0.923872
1.136661
1.020432
1.158714
1.101494
1.089573
1.237988
1.337528
1.395941
1.581907
1.790524
3.910661
10.558963
40.487647
96.343756
249.120593
424.272418
718.263984
966.312885
1015.848517
1015.848517
1015.848517
868.246555
526.651740
323.367715
140.569806
59.890747
12.714863
5.063415
4.083514
3.704429
3.531575
3.363490
3.136992
3.330708
3.598928
4.512668
6.105900
8.011460
10.977983
13.494492
16.004443
17.345548
18.195510
17.514825
15.162826
12.953877
10.115504
8.032918
6.061792
##ZVALUE=355
0.568628
0.572801
0.788569
0.590682
0.285506
0.623465
0.679493
0.531673
0.456572
0.457764
0.463724
0.454783
0.572801
0.476837
0.608563
0.526905
0.568628
0.387430
0.432730
0.586510
0.486970
0.550747
0.745654
0.656843
0.686646
0.601411
0.681877
0.681877
0.551939
0.586510
0.745654
0.513792
0.618696
0.609756
0.776649
0.652671
0.775456
0.568628
0.590682
0.855923
0.764728
0.595450
0.617504
0.734925
0.711679
0.633597
0.784993
0.806451
0.798702
0.869632
0.860691
1.098514
1.081824
1.046658
1.226664
1.330972
1.283884
1.411438
1.517534
2.442598
5.909801
25.957823
67.364573
182.807446
352.320671
675.575733
915.089846
1015.704870
1015.704870
1015.704870
986.330509
657.113791
416.615605
176.404715
79.015493
19.267797
6.237626
3.455877
3.382564
3.192425
3.041625
3.006458
3.112555
3.066659
3.376603
4.299879
5.457997
7.324815
9.000897
12.112856
14.073849
16.247630
16.639829
15.964508
14.765859
12.123585
##ZVALUE=360
0.678897
0.665784
0.819564
0.723600
0.806451
0.677705
0.707507
0.855923
0.770688
0.653863
0.819564
0.772476
0.779629
0.777841
0.619888
0.751615
0.807643
0.793934
0.713468
0.854731
0.836849
0.899434
0.851750
0.942945
0.641942
0.781417
0.886917
0.776649
0.904799
0.788569
0.900626
0.753999
0.837445
0.935793
0.910759
0.863671
1.018643
0.881553
0.985861
0.833869
0.927448
0.826716
1.046658
1.003742
0.983477
1.131892
1.101494
0.850558
1.056790
1.200438
1.188517
1.085997
1.184940
1.193881
1.302958
1.230836
1.386404
1.435876
1.564622
1.609921
1.800656
2.049804
3.608465
12.893677
35.789609
113.247633
234.289765
493.962765
738.216639
1013.858914
1015.939713
1015.939713
1015.939713
830.608606
561.636686
270.160437
131.951571
40.656924
12.407899
4.104972
3.588796
3.228784
3.309846
3.200769
2.837777
3.056526
3.006458
3.226995
3.764629
4.944801
6.125569
8.869767
10.782480
12.896657
14.545918
15.229583
##ZVALUE=365
0.757575
0.803471
0.833869
0.905991
0.631809
0.832677
0.824928
0.799894
0.850558
0.827909
0.826716
0.899434
0.816584
0.669956
0.797510
0.744462
0.801682
0.915527
0.867844
0.958443
0.913739
0.697970
0.874996
0.745654
0.868440
0.829697
0.869632
0.916719
0.971556
0.849962
1.020432
1.030564
0.869632
0.815988
0.802875
0.915527
1.019835
0.962615
0.954866
0.880957
0.981688
0.929832
0.985861
0.995994
0.992417
1.047850
1.016855
0.940561
1.119971
0.887513
0.921488
1.192689
1.056790
1.200438
1.386404
1.224875
1.329780
1.301765
1.313686
1.453757
1.542568
1.666546
2.048612
2.041459
2.740622
7.334948
20.570755
70.110559
160.397887
373.537540
587.914586
895.833969
1015.965939
1015.965939
1015.965939
918.885469
669.427514
362.515450
187.591910
60.060620
18.812418
4.728436
3.479719
3.225803
3.226995
2.974868
2.843738
3.013611
2.813935
2.697706
2.991557
3.693700
4.150867
5.539656
7.320642
9.408593
##ZVALUE=370
0.853539
0.697970
0.659823
0.606775
0.813603
0.760555
0.674725
0.654459
0.771880
0.616908
0.623465
0.613928
0.655651
0.693798
0.768900
0.827909
0.854731
0.673532
0.749826
0.648499
0.781417
0.780821
0.812411
0.674725
0.770688
0.785589
0.784993
0.950694
0.939965
0.692606
0.705719
0.941753
0.839829
0.877976
0.742674
0.770688
0.936985
0.748634
0.782609
0.840425
0.823736
0.842810
0.667572
0.896454
0.891685
1.138449
0.945926
0.901818
0.984669
0.912547
1.004934
1.036525
1.094937
0.905991
1.009703
1.109838
1.072884
1.152754
1.199841
1.104474
1.211762
1.522899
1.741648
1.655817
1.886487
2.029538
2.068877
4.424453
12.970567
49.183965
116.855502
288.893580
498.001575
861.225724
1015.939713
1015.939713
1015.939713
1011.935472
798.716545
451.920629
250.106454
91.794729
35.466552
7.619858
3.666878
2.883673
2.878904
2.650619
2.783537
2.548695
2.610683
2.588630
2.638698
2.633929
3.164411
3.766418
##ZVALUE=375
0.836849
0.732541
0.838637
0.703931
0.671744
0.662804
0.632405
0.726581
0.678897
0.666976
0.675917
0.554919
0.708699
0.786781
0.497699
0.671744
0.795722
0.713468
0.592470
0.781417
0.831485
0.766516
0.745654
0.692606
0.647902
0.731945
0.599623
0.660419
0.783801
0.812411
0.813603
0.719428
0.950694
0.666976
0.706911
0.872612
0.703931
0.804663
0.882745
1.018643
0.959635
0.743866
0.824928
0.790954
0.685453
0.905991
0.841618
0.867844
0.764728
0.949502
0.944734
0.820756
0.816584
0.921488
0.788569
1.008511
0.971556
1.078844
1.138449
1.091957
1.164675
1.314878
1.259446
1.514554
1.441836
1.409650
1.540780
1.666546
1.951456
3.074408
6.940961
27.916431
74.084997
215.082765
407.623053
760.272741
1010.689735
1015.939713
1015.939713
1015.939713
1015.939713
664.875507
406.822562
185.211897
81.932545
19.094944
5.780458
3.319979
3.245473
2.687573
2.670884
2.910495
2.653599
2.395511
2.399683
2.364516
##ZVALUE=380
0.666976
0.509620
0.590682
0.578761
0.663996
0.695586
0.766516
0.817776
0.822544
0.749826
0.670552
0.736713
0.722408
0.574589
0.641942
0.518560
0.669956
0.674725
0.742674
0.572801
0.615716
0.743866
0.863671
0.811815
0.678897
0.877976
0.836849
0.768900
0.708699
0.744462
0.661612
0.764728
0.631809
0.755787
0.715852
0.568628
0.677705
0.763535
0.617504
0.683665
0.691414
0.747442
0.699759
0.627637
0.791550
0.781417
0.793934
0.738502
0.865459
0.771880
0.911951
0.893474
0.813603
0.883937
0.713468
0.860691
0.837445
0.811815
0.935793
0.906587
0.849962
1.096725
1.046658
0.901818
1.061559
1.090765
1.241565
1.208782
1.305938
1.696944
1.728535
2.262592
4.460812
19.725561
56.249499
167.017579
316.827893
604.840517
871.583819
1015.939713
1015.939713
1015.939713
1015.939713
753.096938
507.339835
234.641433
111.141801
31.395555
9.975433
3.342628
3.077984
2.680421
2.583861
2.603531
2.210736
2.356768
##ZVALUE=385
0.721812
0.564456
0.614524
0.555515
0.748634
0.744462
0.843406
0.707507
0.657439
0.588894
0.543594
0.661612
0.630617
0.588894
0.596642
0.664592
0.720620
0.503659
0.592470
0.663996
0.661612
0.610948
0.678897
0.707507
0.704527
0.648499
0.691414
0.524521
0.625849
0.630617
0.588894
0.588894
0.741482
0.693798
0.725985
0.775456
0.700951
0.721812
0.848770
0.763535
0.740886
0.836849
0.757575
0.710487
0.646710
0.674725
0.734925
0.755787
0.773668
0.738502
0.771880
0.840425
0.772476
0.809431
0.902414
0.926852
0.946522
0.864863
0.891685
0.973940
0.891685
0.924468
0.927448
0.956655
0.894666
1.124740
1.198649
1.418591
1.343489
1.466870
1.546741
1.822710
1.833439
2.215505
2.866983
9.675622
31.501651
109.217763
234.306455
515.070558
793.014765
1015.936732
1015.936732
1015.936732
1015.936732
942.095518
684.458017
379.634500
210.759640
74.315667
23.387671
4.445910
2.742410
2.471805
2.357960
2.270937
##ZVALUE=390
0.555515
0.591874
0.651479
0.533462
0.510812
0.650883
0.748634
0.625849
0.643730
0.672936
0.696778
0.707507
0.529885
0.551939
0.576973
0.626445
0.672936
0.663996
0.656843
0.538826
0.622869
0.658631
0.642538
0.632405
0.578761
0.649691
0.645518
0.744462
0.781417
0.595450
0.647902
0.668764
0.614524
0.700951
0.689626
0.788569
0.746846
0.656843
0.644922
0.808835
0.621676
0.810623
0.732541
0.772476
0.683665
0.778437
0.759959
0.764728
0.671744
0.789762
0.814795
0.907779
0.760555
0.797510
0.822544
0.808835
0.913739
0.877976
0.917912
0.924468
0.983477
1.025796
1.046658
0.962615
0.991821
1.117587
1.132488
1.176000
1.342893
1.271963
1.478791
1.506805
1.608729
1.697540
1.831651
2.054572
2.388954
5.645752
18.055439
77.193975
181.178451
433.591008
684.351921
998.760462
1015.939713
1015.939713
1015.939713
1015.939713
961.393714
599.796772
343.664885
135.778785
54.330826
9.889603
3.343821
2.791882
##ZVALUE=395
0.581741
0.687838
0.743866
0.644922
0.605583
0.734925
0.731945
0.736713
0.468493
0.466704
0.633597
0.668764
0.715852
0.737906
0.697970
0.727773
0.673532
0.760555
0.718832
0.581741
0.426769
0.702739
0.587702
0.780821
0.681877
0.745654
0.691414
0.682473
0.691414
0.722408
0.858903
0.774860
0.585914
0.673532
0.807643
0.710487
0.574589
0.617504
0.678897
0.738502
0.818968
0.794530
0.788569
0.754595
0.784993
0.840425
0.760555
0.642538
0.634789
0.608563
0.623465
0.800490
0.810623
0.772476
0.812411
0.751615
0.933409
0.844598
0.851750
0.908971
0.865459
0.891685
0.852942
0.935793
1.013875
0.930429
1.104474
1.153946
1.046658
1.084805
1.383424
1.403689
1.562834
1.571774
1.649857
1.659989
1.553893
1.637936
1.855493
3.311634
9.714961
43.623447
110.155940
284.413695
485.988855
826.538801
1015.939713
1015.939713
1015.939713
1015.939713
980.412960
629.310012
399.211645
182.029605
81.309676
21.105409
##ZVALUE=400
0.658631
0.572801
0.729561
0.481606
0.618696
0.607967
0.692606
0.632405
0.522733
0.649691
0.718832
0.625849
0.632405
0.662804
0.590682
0.726581
0.645518
0.603795
0.656843
0.555515
0.562668
0.494719
0.571609
0.703931
0.673532
0.700951
0.649691
0.630617
0.769496
0.613928
0.795722
0.608563
0.637770
0.704527
0.673532
0.703931
0.802875
0.746846
0.678897
0.879765
0.639558
0.736713
0.739694
0.751615
0.700951
0.730753
0.654459
0.632405
0.756979
0.798702
0.774860
0.632405
0.772476
0.913739
0.885725
0.797510
0.786781
0.734925
0.867844
0.838637
0.964999
0.926852
0.794530
1.005530
0.900626
0.857711
1.070499
1.089573
1.163483
1.102686
1.176000
1.329780
1.242757
1.452565
1.493692
1.301765
1.336932
1.313686
1.236796
1.442432
1.692772
2.584457
5.765557
22.256970
61.644912
187.480450
350.343585
650.293827
896.318555
1015.939713
1015.939713
1015.939713
1000.455618
706.868768
471.975803
234.372616
##END
