##TITLE=
##FORMAT=SPECTACLE-ASCII V-1.2
##DATA TYPE=ULTRAVIOLET SPECTRUM
##SECOND TYPE=ULTRAVIOLET SPECTRUM
##DATE=09/25/17
##TIME=15:11:36
##SPECTROMETER/DATA SYSTEM=SPECTACLE
##XUNITS=NM EM
##YUNITS=ENERGY
##YFACTOR=1
##FIRSTX=220
##LASTX=410
##NPOINTS=96
##3DDATA=Equidistant
##ZUNITS=NM EX
##FIRSTZ=210
##LASTZ=400
##ZPOINTS=39
##XYDATA=(Y..Y)
##ZVALUE=210
3.820658
3.808737
3.562570
3.558993
3.460646
3.813505
3.852844
3.965497
4.043579
3.948808
3.643632
3.922582
3.455877
3.648996
3.357530
3.700852
3.411770
3.535748
4.071593
4.147887
3.806949
3.728867
3.729463
3.377795
4.078746
3.657937
3.810525
4.644990
3.838539
4.603863
4.097819
4.491806
4.272461
4.790425
4.164577
4.564524
3.985763
4.411936
5.205870
4.507899
4.244447
4.743934
5.085468
4.416704
4.370809
4.525781
4.612803
4.849434
5.098581
4.600883
5.208850
4.959702
4.682541
5.086660
5.181432
5.724430
5.190969
5.794764
5.206466
5.228519
5.162954
5.557537
6.083846
5.504489
5.110502
4.746914
5.732775
5.489588
6.187558
6.591678
6.235838
6.855726
7.590652
8.806586
8.605719
10.044575
9.770989
10.442734
11.025667
10.629892
11.551976
10.803938
10.656714
10.102987
9.399652
8.258820
7.325411
6.026626
6.553531
5.695820
5.881786
5.867481
4.952550
5.720854
5.748868
6.223917
##ZVALUE=215
5.152822
5.416870
5.316734
4.809499
4.372597
3.877878
4.320741
4.668832
5.001426
4.679561
5.303621
4.640818
4.666448
4.885793
4.447699
3.873706
3.561974
3.782511
3.392696
3.979802
3.822446
3.652573
3.886819
4.067421
3.732443
4.894733
3.835559
3.663898
4.284978
4.430413
4.032850
4.233718
4.226565
4.421473
4.540682
4.707575
4.323721
5.016923
4.958510
5.025864
4.557967
5.302429
4.991889
4.616976
4.627705
5.651712
5.507469
4.951954
4.854798
5.304813
5.359650
5.550981
5.256534
4.989505
5.260706
5.232692
5.919933
5.218983
5.129576
5.557537
5.182624
5.985498
5.281568
5.020499
5.222559
5.275607
5.488992
6.046891
5.500913
5.885959
6.433725
6.488562
8.629560
9.293556
9.484887
9.485483
10.322928
10.650754
11.088848
10.813475
12.133718
10.493994
10.653734
10.248423
8.795857
8.217692
7.542968
6.127954
6.169677
6.554723
5.021691
5.632639
5.216599
5.292892
5.909801
5.554557
##ZVALUE=220
9.941459
10.265708
9.047985
10.947585
10.770559
8.603930
8.115768
7.557869
6.395578
5.637407
6.235838
6.150603
6.348491
5.970597
6.932616
6.362796
4.668832
4.678965
4.742742
4.258752
3.972650
4.164577
3.832579
4.143715
4.165769
4.184842
4.409552
4.301667
4.105568
4.522800
4.232526
4.741549
4.051924
4.870892
4.495978
4.355907
4.383922
4.270673
4.942417
5.460978
4.745722
5.076528
4.614592
5.351901
4.757643
4.979968
5.579591
5.509853
6.007552
5.136728
5.870461
5.590916
5.657673
5.899668
5.674958
5.356669
4.953742
5.726814
5.982518
6.108880
5.644560
5.688667
5.832911
5.796552
6.417632
5.971789
5.713701
5.710721
6.168485
6.857514
6.585717
7.499456
8.358955
8.365512
8.794665
9.955764
10.182858
10.143518
9.917617
9.857416
10.160804
8.400679
8.471608
8.723736
7.723570
7.707477
6.471872
6.157756
5.740523
6.428957
5.761981
5.928874
5.903840
5.643964
5.803704
6.308556
##ZVALUE=225
9.756684
11.324883
12.626648
16.700625
21.819472
21.238923
22.789836
21.519661
17.158985
14.531612
10.647774
8.047819
9.624958
9.385943
9.066463
11.052489
9.808540
8.520484
7.605553
6.909966
5.375743
4.624724
4.407763
4.146695
4.163980
4.127622
4.438758
4.325509
4.209876
4.520416
4.126430
4.746914
4.815459
4.383922
4.669428
5.042553
4.871488
4.743934
5.174875
5.301833
4.719496
5.071759
5.430579
4.632473
5.164742
4.982948
5.711913
5.816817
5.171895
5.512834
5.491972
5.601645
6.043911
6.323457
6.308556
5.709529
6.285906
5.720854
5.391836
6.087422
6.453991
6.740689
6.110668
6.729960
6.454587
6.443858
6.570816
6.870627
7.198453
7.054806
7.774830
8.598566
8.471608
9.287000
8.336902
10.039806
9.417534
10.265708
9.595752
11.086464
10.635853
8.773804
9.417534
8.258820
8.351803
7.503629
7.620454
7.815957
7.192492
6.372929
7.445812
6.586909
6.662607
6.641746
7.101893
7.148981
##ZVALUE=230
8.114576
8.711815
13.256669
18.578768
26.991963
34.786463
45.839548
49.647689
49.538612
45.870543
36.260486
27.391911
20.830631
13.773441
12.328625
12.486577
14.047623
15.279651
14.930964
13.541579
12.573600
11.378527
7.591844
5.471706
5.205870
5.027652
4.383922
4.448891
5.143881
4.888773
4.602671
5.287528
5.484819
5.146861
4.931688
5.636811
5.664825
5.699992
5.230904
5.726814
5.362630
6.214976
5.759597
5.610585
5.827546
5.596876
5.934834
4.918575
5.351901
5.218983
6.016493
6.254911
5.408525
5.867481
6.508827
6.996989
5.968809
6.510615
7.095933
7.382631
6.755590
7.126927
7.852912
7.030964
7.788539
8.069873
8.144975
8.475780
9.112954
9.541512
8.885860
9.225607
10.599494
11.299849
10.308623
11.037588
11.465549
11.139512
11.937618
11.494756
11.486411
11.539459
11.120439
10.650754
11.123419
10.817647
9.465814
11.053681
10.621548
9.827614
9.104609
9.533763
8.445978
9.385943
8.641481
8.790493
##ZVALUE=235
4.452467
4.452467
6.737709
11.528730
19.778609
32.610893
48.770905
70.893764
81.000924
96.776485
103.065968
95.148683
69.043636
52.689910
33.151507
24.498701
15.141964
17.494559
19.136667
22.671819
24.358630
20.736456
20.180941
16.042590
12.086630
8.432865
7.706881
6.186962
6.398559
5.829930
6.247759
5.394816
6.388426
6.089807
5.105734
6.520748
5.898476
5.928874
5.282760
6.092787
5.685687
6.130934
5.513430
6.380677
6.414652
6.177425
6.476641
6.625652
6.375909
6.306767
6.104708
6.685853
6.617904
6.283522
6.456971
7.878542
7.233620
7.691979
7.776618
7.708669
7.019639
8.427501
8.032918
8.478761
9.165406
7.915497
8.768439
9.026527
10.332465
10.004640
10.788441
11.722445
12.105703
13.504624
14.439821
14.973879
14.839768
15.735626
15.315413
15.387535
15.581846
16.139746
16.754866
16.514659
15.712976
14.720559
13.935566
13.882518
14.034510
13.511777
13.129711
13.235807
13.325810
12.688637
12.291670
12.264848
##ZVALUE=240
3.258586
3.198981
3.815889
4.905462
7.825494
13.527870
26.373863
42.337775
72.103739
101.968646
136.396885
150.362849
154.565573
147.923827
121.727586
82.376003
58.528781
34.930706
23.339987
20.063519
20.785928
26.598573
28.009415
29.106736
26.699901
25.463700
20.232797
17.503500
13.219714
10.577440
8.515716
7.343888
7.623434
7.437468
7.562637
8.157492
7.828474
7.933974
6.490946
6.567836
6.322861
7.072687
7.231832
6.621480
6.475449
7.032752
6.609559
6.569624
6.096959
6.448627
7.278919
7.539988
6.521940
7.284880
7.513762
7.867813
7.997751
7.849932
7.550716
8.093715
8.229613
8.494854
7.933974
9.358525
9.741783
9.111762
9.515882
9.988546
10.462999
11.478662
12.021661
12.916923
15.153885
14.938712
15.526414
16.724467
16.980767
18.713474
17.816424
19.007921
19.719601
19.066930
19.007921
18.951893
18.707514
18.287897
17.466545
18.340945
16.062856
18.161535
16.876459
17.405748
17.376542
16.833544
15.764832
14.619827
##ZVALUE=245
2.763867
2.743602
2.749562
2.827644
3.208518
3.800988
6.592870
11.769533
25.665760
41.133761
77.526569
111.424923
147.803426
188.606977
200.812817
193.260908
171.159506
124.587417
89.238882
49.764514
29.794574
21.368861
22.782683
27.906895
33.117533
33.409595
33.655763
33.190846
27.670860
26.050806
20.398498
15.666485
13.008714
9.713769
9.211898
8.182526
7.848740
8.518696
8.301735
7.672906
6.588697
6.850958
6.965995
6.369948
6.373525
5.483627
5.710721
5.969405
5.718470
6.391406
6.191730
6.579757
6.693602
6.116629
6.529689
6.467700
6.802678
6.655455
6.339550
6.622672
6.724596
6.936789
7.580519
8.070469
8.695722
8.095503
8.562803
8.579493
10.479689
9.337664
9.896755
10.952950
12.871623
14.154911
14.210939
14.429688
16.192794
17.613769
18.211603
16.864538
17.441511
17.650723
18.300414
18.043518
17.756820
17.440915
17.349720
17.379522
15.767813
16.193986
16.411543
16.407967
15.624762
16.553998
15.308857
14.887452
##ZVALUE=250
2.364516
2.593994
2.587438
2.184510
2.672672
2.474785
2.535582
3.177524
6.195903
9.655952
22.435784
41.062832
67.848563
113.199949
151.996613
208.001733
227.402449
232.167840
219.553709
165.969729
125.057697
77.616572
41.594505
23.961663
21.556616
25.883913
30.744672
33.969879
37.778616
38.846731
36.623478
32.575727
26.685596
20.931959
16.555786
11.447668
9.151697
7.578731
7.212758
7.719994
6.562471
6.559491
5.496740
5.895495
5.518794
5.806684
5.568862
5.930662
5.397797
5.678535
6.271601
5.264878
6.130934
5.453825
6.349683
6.436706
5.965829
5.837679
6.357431
5.809665
6.696582
6.704926
6.537437
6.577969
6.620884
7.145405
7.515550
7.971525
8.039474
8.122921
9.293556
9.152889
10.791421
11.119843
11.249781
11.943579
12.890697
13.795495
14.115572
13.891459
14.871955
14.523864
13.723969
14.823675
14.112592
15.467405
14.003515
14.511943
14.481544
15.090704
13.784766
13.370514
13.814569
14.884472
14.517903
13.873577
##ZVALUE=255
2.089739
2.161860
2.298951
2.081990
2.180934
2.284646
2.260804
2.259612
2.171993
2.681613
4.106760
8.497834
16.574860
36.715865
60.518980
108.074546
153.375864
216.126442
253.481865
281.384587
266.391635
238.305926
165.470839
111.186504
57.322979
33.552647
19.803643
19.219518
26.258826
32.380819
36.192536
37.658811
39.653778
34.979582
31.971931
23.944974
18.572807
12.812614
9.215474
7.049441
5.919933
5.462766
5.668998
5.113482
4.926920
4.921556
4.940629
4.835725
5.164742
5.080700
5.101562
5.263686
5.319715
5.899668
5.075932
5.457997
5.378723
5.193949
5.064607
5.805492
5.606413
5.683899
5.831718
5.821586
5.648732
5.723834
5.853772
5.927682
6.528497
6.677508
6.666780
7.417798
8.168817
9.179711
9.439588
9.405613
10.089874
9.763837
11.074543
10.049939
9.788871
11.070967
11.173487
10.808706
10.581613
10.685921
11.205673
10.792613
10.690689
11.178851
11.133552
11.204481
10.860562
10.596514
10.374784
10.544658
##ZVALUE=260
2.005696
1.907945
2.251863
2.016425
1.881719
1.945496
2.252460
2.117753
1.945496
2.234578
1.838803
2.041459
3.153682
5.576611
12.881756
24.650693
53.822994
87.667704
78.771710
204.360485
262.264609
315.413475
319.476724
281.409621
227.602720
142.756701
94.779730
46.951771
25.455952
17.148852
18.472672
24.392605
30.642748
34.537911
38.737655
37.291646
35.396814
29.720664
23.475885
16.461611
11.426806
7.040501
5.458593
4.563928
4.559755
4.245639
4.249811
4.889965
4.725456
4.240870
4.100800
4.859567
4.343987
4.343987
4.635453
4.657507
4.668832
4.696846
4.823804
5.155802
4.983544
5.327463
5.298853
4.981756
5.035996
5.369782
6.070733
5.345941
5.349517
5.702972
6.319880
6.561875
6.871819
7.321835
7.834435
7.353425
7.923841
8.378625
8.020997
8.109808
7.729530
7.949471
8.175969
8.768439
8.211732
8.361936
8.104444
8.595586
9.093881
8.536577
8.487701
8.960962
8.386970
8.960962
8.817911
8.370876
##ZVALUE=265
1.899600
1.732707
1.655817
1.460910
1.786947
1.674891
1.668930
1.748800
1.882911
1.914501
1.763701
1.624823
1.932979
2.029538
2.091527
4.124641
9.895563
18.363595
43.022633
76.226592
142.078996
206.985474
294.200778
344.064832
359.465480
334.839821
289.768577
195.663571
132.023692
68.341494
35.666823
16.046762
13.960600
17.996430
23.647547
31.542778
35.932660
37.947893
37.821531
33.786893
29.326677
20.772815
15.718937
10.614991
7.287860
5.032420
4.152656
4.006624
3.836751
3.659725
3.864765
4.117489
4.199743
4.619956
4.716516
4.719496
4.390478
4.455447
4.555583
4.939437
4.555583
4.783869
5.201697
4.761815
4.934669
4.932880
5.013943
5.232692
5.285740
5.570650
5.380511
5.770922
6.229877
6.076694
6.998777
6.192923
6.838441
6.754994
6.865859
7.016659
7.259846
7.138848
6.895661
6.822944
6.904602
7.404685
6.968975
7.621646
6.949902
6.670952
7.183552
7.407665
7.332563
7.806420
7.117987
8.030534
##ZVALUE=270
1.552701
1.599789
1.428723
1.458526
1.648664
1.719594
1.571774
1.552701
1.642704
1.652837
1.557469
1.666546
1.666546
1.756549
1.731515
1.879930
1.826882
2.815723
5.326867
14.741421
30.575991
58.127642
119.526982
184.623003
284.421444
340.532660
396.564603
393.485427
344.272852
277.016759
204.101801
111.580491
59.973598
22.650957
12.395978
12.920499
17.477870
24.830699
30.104518
36.204457
38.880706
38.365722
33.947825
27.910471
21.467805
14.194846
11.415482
6.937981
4.968643
4.377961
3.933907
3.852844
3.884435
3.979802
4.192591
4.592538
4.617572
4.296899
4.271865
4.230738
4.669428
4.544854
4.571676
4.766583
4.687905
4.690886
5.233884
5.233884
5.241632
5.131960
5.497932
5.581975
5.702972
6.145835
6.128550
6.189942
6.284714
6.575584
6.390810
6.150603
6.341934
6.054640
6.650686
6.406903
6.146431
6.161928
6.084442
6.221533
6.224513
6.056428
5.900860
6.323457
6.502867
6.491542
6.155968
6.803870
##ZVALUE=275
1.501441
1.337528
1.499653
1.408458
1.356602
1.401901
1.479983
1.512766
1.559854
1.484752
1.331568
1.689792
1.702905
1.591444
1.673698
1.549721
1.684427
1.604557
1.604557
2.109408
3.835559
8.396506
23.842454
47.096610
102.831721
156.521797
246.212482
317.496657
390.558839
417.327881
411.196947
341.516733
257.501006
146.405697
86.077452
33.371449
14.984608
9.887815
11.693835
18.146634
23.501515
31.513572
34.802556
37.976503
37.084818
32.871962
28.254986
21.583438
16.306639
10.633469
7.916689
5.834699
4.605651
4.441738
4.153848
4.309416
4.236698
4.675984
4.249811
4.691482
4.955530
4.725456
4.597902
4.570484
4.722476
4.698634
4.502535
4.963875
4.852414
4.874468
5.257726
5.299449
5.628467
5.880594
5.918741
5.931854
6.305575
6.118417
5.702972
6.174445
5.818605
5.714893
5.932450
6.115437
5.797744
5.967617
5.560517
6.059408
5.938411
5.625486
5.629659
6.285906
5.838871
5.948544
5.665421
5.866885
##ZVALUE=280
1.335740
1.246929
1.379848
1.323819
1.375675
1.369715
1.292825
1.368523
1.285672
1.285672
1.278520
1.424551
1.337528
1.548529
1.371503
1.527667
1.415610
1.520514
1.471639
1.646876
1.526475
1.636744
2.881885
6.959438
19.064546
36.627650
77.005625
123.338699
210.420489
288.989544
366.113782
427.073836
429.619551
371.381640
295.030475
178.469419
108.953714
47.858953
22.263527
9.094477
8.524656
12.204647
16.735792
24.070740
29.744506
35.717487
37.717819
36.550760
33.195615
27.206540
21.420717
15.419722
11.563897
7.288456
5.995631
4.557967
4.536510
4.362464
4.438758
4.305840
4.458427
4.599690
4.620552
4.614592
4.908442
4.831553
5.116463
4.975796
4.928708
5.038977
5.210638
5.060434
5.248785
5.467534
6.059408
5.594492
5.646944
5.791783
5.855560
5.852580
5.743504
5.320907
5.570650
6.035566
5.501509
5.389452
5.353689
5.988479
5.656481
5.664825
5.752444
5.695820
5.734563
5.681515
5.949736
5.800724
##ZVALUE=285
1.202822
1.189709
1.450777
1.260638
1.244545
1.066923
1.237988
1.133680
1.084805
1.180768
1.122952
1.177788
1.325607
1.296997
1.225471
1.407862
1.498461
1.390576
1.576543
1.551509
1.283884
1.446605
1.480579
1.634955
2.040863
4.000664
10.736585
22.074580
53.842664
93.275905
168.472528
249.095559
335.387588
431.212783
462.769866
423.056483
355.490446
236.366987
154.369473
72.625875
34.823418
11.389852
6.843805
8.327961
11.047721
17.794967
22.272468
29.374957
33.792853
36.994815
36.796927
33.426881
28.696656
21.484494
16.242862
10.265708
7.715821
5.516410
4.878640
4.477501
4.409552
4.332662
4.331470
4.640818
4.659891
4.750490
4.670620
4.649758
4.881620
4.848838
5.017519
5.296469
5.423427
5.453825
5.424619
5.733967
5.695820
5.371571
5.395412
5.492568
5.523562
5.386472
5.416870
5.279779
5.453825
5.447865
5.582571
5.487800
5.317926
5.316734
5.461574
5.445480
5.417466
5.498528
5.267859
5.288720
##ZVALUE=290
1.040697
1.176000
1.364946
1.277924
1.316667
1.216531
1.091957
1.007915
1.105666
1.193881
1.228452
1.244545
1.230836
1.281500
1.281500
1.078844
1.126528
1.322627
1.134872
1.219511
1.144409
1.400709
1.401901
1.148582
1.444817
1.352429
1.496673
2.787709
5.717874
15.837550
31.770468
74.510574
126.453638
221.651793
305.517912
409.760475
460.312963
453.105569
401.639938
294.834971
201.319456
101.833940
52.966475
17.993450
7.373691
5.882978
7.571578
11.458993
15.792847
22.355914
27.478933
33.380985
35.393834
35.736561
32.273531
26.738644
21.006465
15.276670
10.850430
7.444620
5.846620
4.734993
4.467964
4.280806
4.169941
4.427433
4.519820
4.428625
4.633665
4.602671
4.828572
4.986525
5.304813
5.170703
4.946589
5.325675
5.239844
5.421638
5.008578
5.084872
5.377531
5.252957
5.299449
5.030632
5.234480
5.348921
5.309582
5.391836
5.337596
5.436540
5.852580
5.343556
5.350709
5.367994
5.448461
5.414486
##ZVALUE=295
1.081824
1.158714
1.067519
1.099706
1.057982
1.332760
1.098514
1.239777
0.983477
1.056790
1.096725
1.060963
1.155734
0.979900
1.075864
1.140833
1.139641
1.243949
1.129508
1.163483
1.065731
1.141429
1.116991
1.302958
1.177788
1.232624
1.457930
1.406670
1.646876
1.516938
3.726482
8.748770
24.282932
49.081445
106.843710
171.626806
279.513597
368.747711
457.551479
473.646522
439.134836
367.909670
243.755579
155.359507
70.973635
32.496452
10.621548
5.196929
5.100965
6.776452
10.783672
15.017986
21.204948
26.323795
31.545758
33.313632
33.603907
30.529499
25.597811
21.328926
14.881492
11.582971
7.213950
6.016493
4.967451
4.372597
4.319549
4.534721
4.548430
4.668832
4.632473
4.818439
4.488826
5.252957
5.013943
5.084872
5.208850
5.173683
5.152822
4.995465
5.171895
5.348921
5.222559
5.136728
5.158782
5.319715
5.249977
5.233884
5.067587
5.458593
5.036592
5.163550
5.134940
5.345941
5.183816
5.413890
##ZVALUE=300
1.102686
1.080632
0.997782
1.221895
1.039505
1.029968
0.884533
1.040697
1.201630
1.020432
1.029968
1.147985
0.891685
1.198649
0.995994
1.062751
1.120567
1.218915
1.083612
0.975728
1.247525
1.083612
0.999570
1.149774
1.241565
1.163483
1.002550
1.235604
1.216531
1.401901
1.283884
1.549721
2.097487
5.946755
13.536811
38.153529
72.364807
145.990849
219.039917
336.724520
419.426560
481.194854
479.619503
411.736965
319.323540
185.877681
111.832619
50.947666
22.377968
6.597638
4.175901
5.069971
6.417632
10.166764
13.820529
20.536780
25.565624
30.281544
32.880902
32.331944
29.731989
25.072694
20.413995
14.487505
10.853410
7.184744
5.802512
4.742742
4.302859
4.419684
4.210472
4.606843
4.513860
4.612803
4.668832
4.693866
4.756451
4.610419
4.953742
4.854798
4.801750
5.069971
4.703999
5.168915
4.903674
4.906654
4.995465
5.049706
5.323887
5.134940
5.005598
5.290508
5.104542
5.222559
5.123615
5.241632
##ZVALUE=305
0.980496
1.057982
1.009703
1.053810
1.026988
0.908971
0.927448
0.962615
0.837445
0.987649
0.873804
1.052618
0.848770
0.834465
1.106858
1.117587
1.067519
1.088977
0.967979
0.997782
1.045465
0.893474
0.983477
1.035929
1.165867
1.263618
1.197457
1.177788
0.986457
0.999570
1.094937
1.145601
1.373887
1.308918
1.592636
3.975630
9.509921
27.593970
54.063797
115.647912
184.073448
295.499563
386.343598
470.258594
490.013957
442.580581
368.236899
243.976712
156.418681
72.273612
33.806562
10.580420
4.777908
3.982782
4.357696
6.991625
9.647608
14.323592
19.395947
24.798512
28.658509
31.043887
31.228662
28.454661
24.413466
18.339753
14.221668
10.023713
7.177591
5.463958
4.757643
4.422665
4.330873
4.436970
4.735589
4.750490
4.646778
4.586577
4.926920
4.593730
4.663467
4.850626
4.472733
4.762411
4.700422
4.977584
5.046725
4.814863
4.956722
5.086660
4.803538
5.026460
5.039573
4.896522
4.897714
4.993677
##ZVALUE=310
1.078844
0.896454
0.948906
0.948906
1.014471
0.800490
0.955462
0.916719
0.894666
1.075864
0.921488
1.072884
1.011491
0.924468
1.043677
0.985861
0.948906
0.869632
0.884533
0.908971
1.019835
0.942945
1.112819
0.921488
1.103878
1.082420
1.107454
0.930429
0.986457
1.232624
1.097918
1.105666
1.148582
1.227856
1.285672
1.344681
1.331568
2.511740
5.397797
16.161799
34.844875
83.633661
143.691897
250.652432
352.450609
468.114018
507.278442
489.464998
436.999798
313.963890
216.949582
114.079714
62.397718
21.175742
7.755756
3.884435
3.850460
5.033612
5.950928
8.877516
12.016892
17.713904
22.081733
26.755929
28.599501
29.024482
27.619600
23.084879
18.293858
14.002919
10.496974
7.251501
6.109476
4.697442
4.481673
4.419684
4.301667
4.395843
4.345775
4.298687
4.525781
4.528761
4.510880
4.253983
4.484653
4.740953
4.889965
4.658699
4.929900
4.943609
4.906654
4.950762
5.023479
5.000830
5.009770
4.865527
##ZVALUE=315
0.939965
0.956655
1.083612
0.817776
0.852942
0.978708
0.831485
0.939965
1.041889
1.055598
0.987649
0.996590
0.782609
1.011491
0.854731
0.853539
0.967979
1.103878
0.881553
0.884533
1.096725
0.959635
0.820756
1.068711
1.055598
0.910759
1.112819
0.910759
1.006722
0.926852
0.950694
1.026988
1.084805
1.031756
1.124740
1.147985
1.262426
1.165867
1.358986
1.603961
3.343821
10.685921
24.594665
63.293576
116.411448
223.570466
305.233598
417.312980
479.558706
502.088666
468.069911
365.325809
266.331434
146.299601
80.999732
30.815601
12.087822
4.311800
3.759861
3.831983
4.462600
6.126761
8.151531
12.261868
16.062856
20.768642
25.149584
27.974844
28.489828
25.572777
21.924973
17.025471
13.450980
9.456873
7.270575
5.353689
4.668832
4.302859
4.507899
4.220605
4.171729
4.493594
4.354715
4.279613
4.454851
4.569888
4.571676
4.519820
4.733801
4.954934
4.769564
4.752874
4.879832
4.970431
4.978776
4.800558
##ZVALUE=320
0.799894
0.821948
0.833869
0.739694
0.686646
0.892878
0.867844
0.888705
0.954866
0.852942
0.875592
0.839829
0.765920
0.827909
0.794530
0.792742
0.847578
0.897646
0.954866
0.866652
0.887513
1.009703
0.981688
0.940561
0.958443
0.936985
0.949502
0.928640
0.945926
1.034737
1.073480
1.024604
0.867844
0.893474
1.040697
0.968575
0.942945
1.027584
1.076460
1.176596
1.205802
1.352429
2.084970
6.389618
15.833974
46.250820
86.861849
174.669623
257.870555
387.844443
464.667678
517.821908
504.458547
417.451859
321.041942
184.521675
103.433728
41.807890
18.389821
5.463958
3.675818
3.585815
3.380775
4.316568
5.141497
8.088946
10.586977
15.297532
19.413829
23.555756
25.978684
26.501417
24.882555
21.050572
17.646551
12.535453
9.540915
7.234812
5.686879
4.695654
4.587770
4.327893
4.247427
4.326701
4.076958
4.369617
4.398823
4.652739
4.541874
4.624724
4.573464
4.535913
4.659891
4.719496
4.773736
4.682541
##ZVALUE=325
1.019835
0.899434
1.050830
0.893474
0.979900
0.981688
0.962615
0.992417
0.992417
1.032948
1.111627
1.004934
0.899434
0.987649
0.925660
0.921488
1.008511
0.898838
0.988841
0.834465
1.116991
1.176000
0.911951
1.097918
0.971556
0.935793
1.118779
1.039505
1.143813
0.927448
0.984669
1.204610
0.997782
1.160502
1.113415
1.126528
1.165867
0.878572
1.262426
1.252890
1.356602
1.262426
1.342893
1.391768
1.581907
4.435778
11.039972
31.705499
64.291954
140.618682
220.883489
347.184539
436.434746
518.719554
519.180894
450.482965
356.504917
223.893523
137.122869
59.521794
26.884675
7.787943
4.106760
3.403425
3.215671
3.415942
3.807545
5.383492
7.589459
10.706782
14.454722
19.371510
22.363663
24.559498
25.208592
22.514462
19.643903
15.242696
12.135506
8.764863
6.697774
5.350709
4.771948
4.374981
4.419684
4.486442
4.482865
4.288554
4.632473
4.716516
4.605651
4.858971
4.462600
4.654527
4.758835
4.861951
##ZVALUE=330
0.755787
0.789762
0.639558
0.751615
0.835657
0.704527
0.750422
0.810623
0.782609
0.754595
0.699759
0.861883
0.955462
0.804663
0.765920
0.845790
0.902414
0.839829
0.777841
0.923872
0.839829
0.750422
0.917912
0.897646
0.742674
0.752807
0.763535
0.915527
0.729561
0.886917
0.967979
1.000762
0.808835
0.727773
0.827909
0.933409
0.977516
0.949502
0.849962
0.957847
1.028776
1.072884
1.062751
1.101494
1.106858
1.077652
1.233816
2.458692
5.816817
19.094944
41.909814
102.749467
171.944499
298.622847
400.940776
507.736802
537.067652
493.465662
418.210626
282.858610
181.552768
86.171627
42.427778
13.112426
4.759431
3.054738
3.153682
3.095865
3.155470
3.856421
5.105734
7.552505
10.090470
14.855862
18.200874
21.222830
22.733808
22.962689
20.836592
17.748475
14.637709
10.802746
8.477569
6.387830
5.405545
4.505515
4.542470
4.338622
4.193783
4.067421
4.285574
4.362464
4.089475
4.278421
4.222989
4.410744
##ZVALUE=335
0.738502
0.755787
0.789762
0.686646
0.807643
0.789762
0.729561
0.659823
0.691414
0.697970
0.731945
0.750422
0.611544
0.774860
0.688434
0.906587
0.746846
0.659823
0.880957
0.786781
0.774860
0.765920
0.730753
0.714660
0.618696
0.761747
0.863671
0.825524
0.747442
0.829697
0.824928
0.789762
0.827909
0.871420
0.789762
0.941753
0.787973
0.885725
0.806451
0.837445
0.873804
0.848770
0.850558
0.941753
0.934601
1.092553
1.115799
1.156926
1.385808
1.592636
3.225803
11.268854
25.202632
69.339871
130.762458
248.607993
351.115465
475.787520
533.150434
525.718927
463.780761
333.980918
232.367516
121.620893
63.043833
20.851493
7.335544
3.391504
3.264546
2.779961
3.046989
3.211498
3.853440
5.263686
6.800890
10.096431
13.292432
16.960502
19.472837
21.657944
21.533966
19.149780
16.988516
13.564825
11.509657
8.489490
6.789565
5.250573
4.854798
4.159808
4.064441
4.044771
4.167557
4.049540
3.969669
4.089475
##ZVALUE=340
0.765920
0.653863
0.685453
0.731945
0.603795
0.703931
0.607967
0.600815
0.634789
0.675917
0.757575
0.707507
0.681877
0.671744
0.619888
0.630617
0.795722
0.913739
0.756979
0.659823
0.946522
0.884533
0.739694
0.762939
0.698566
0.655651
0.702739
0.754595
0.790954
0.721812
0.689626
0.878572
0.763535
0.766516
0.742674
0.884533
0.789762
0.813603
0.747442
0.808835
0.789762
0.757575
0.613928
0.866652
0.764728
0.865459
0.955462
0.841618
1.090765
1.055598
1.080632
1.210570
2.279878
7.112622
17.275810
50.254464
98.184943
193.454623
285.191536
410.491824
487.358570
522.784591
485.368967
380.585790
276.593566
150.187612
82.217455
30.163527
11.752844
3.933907
3.185868
2.889633
3.114939
3.160834
3.454685
3.947616
4.666448
6.892681
9.225607
12.817979
16.239882
19.040704
20.000935
20.120740
18.935800
16.055703
14.394522
10.593534
8.619428
6.505847
5.143881
4.409552
4.003644
3.864765
4.116893
4.066825
##ZVALUE=345
0.715852
0.562668
0.769496
0.799894
0.635982
0.800490
0.754595
0.552535
0.775456
0.705719
0.577569
0.573993
0.652671
0.743866
0.696778
0.738502
0.779629
0.671744
0.660419
0.719428
0.767708
0.618696
0.857711
0.554919
0.746846
0.672936
0.686646
0.643730
0.805855
0.625849
0.730753
0.835657
0.691414
0.632405
0.657439
0.641942
0.663996
0.744462
0.768900
0.836849
0.765920
0.817776
0.793934
0.909567
0.925660
0.692606
0.989437
0.850558
0.859499
0.968575
0.928640
1.003742
0.954866
1.119971
1.271963
4.080534
10.786653
32.992959
65.072775
141.130686
223.187804
356.725454
441.788435
509.038568
503.171682
415.475965
324.482918
199.849606
113.713741
45.516491
19.764900
5.398989
3.197789
3.051758
3.057718
3.089905
2.996922
3.289580
3.729463
4.615784
6.300807
9.041429
11.797547
14.970899
16.854405
18.753409
18.714666
17.550588
15.965700
13.351440
11.118650
7.977486
6.521940
5.105734
4.515648
4.047751
##ZVALUE=350
0.648499
0.653863
0.615716
0.799894
0.706911
0.626445
0.687838
0.682473
0.762939
0.665784
0.550747
0.645518
0.609756
0.657439
0.628829
0.680685
0.525713
0.737906
0.773668
0.663996
0.619888
0.668764
0.809431
0.761747
0.622869
0.533462
0.568628
0.600815
0.652671
0.746846
0.748634
0.713468
0.653863
0.719428
0.653863
0.584722
0.768900
0.862479
0.784993
0.866652
0.741482
0.732541
0.777841
0.822544
0.689626
0.688434
0.825524
0.774860
0.878572
0.773668
0.956655
0.924468
0.999570
0.949502
1.030564
0.844598
1.245737
2.495646
6.222725
20.928979
44.772625
108.842850
177.818537
294.135809
390.651822
479.263663
496.104956
444.583893
361.652970
230.611563
141.213536
62.531829
27.544498
7.061958
3.439784
2.738833
2.838969
2.591610
2.773404
2.731681
2.962947
3.451705
4.209876
6.054640
8.117557
11.013746
13.077855
16.103983
17.391443
17.433763
17.089844
15.116930
13.034940
10.212660
8.476973
6.355643
##ZVALUE=355
0.597835
0.543594
0.689626
0.548959
0.729561
0.637770
0.578761
0.699759
0.695586
0.552535
0.597835
0.484586
0.710487
0.605583
0.621676
0.670552
0.593662
0.659823
0.663996
0.782609
0.714660
0.582933
0.636578
0.722408
0.736713
0.670552
0.674725
0.623465
0.793934
0.689626
0.787973
0.653863
0.737906
0.620484
0.694990
0.617504
0.737906
0.748634
0.603795
0.673532
0.677705
0.757575
0.792742
0.707507
0.888705
0.667572
0.764728
0.842810
0.807643
0.835657
0.905991
0.684857
0.705719
0.800490
0.997782
0.836849
0.972748
0.950694
0.916719
1.584888
3.725886
13.053417
30.493736
75.188875
133.090615
242.827535
341.203809
446.637869
487.715602
460.698605
390.563011
266.050696
170.208812
73.458552
34.342408
9.828806
3.693700
2.714992
2.569556
2.325773
2.646446
2.600551
2.638698
2.670884
3.359914
4.135966
4.847646
7.028580
9.123683
11.967421
14.275908
16.245842
16.192794
16.085505
14.336705
12.213588
##ZVALUE=360
0.487566
0.490546
0.451803
0.410676
0.472665
0.510812
0.431538
0.370741
0.482798
0.463724
0.415444
0.408888
0.351667
0.453591
0.615716
0.443459
0.419617
0.604987
0.627637
0.575781
0.699759
0.517964
0.589490
0.565648
0.511408
0.584722
0.598431
0.589490
0.647902
0.522733
0.508428
0.489950
0.643730
0.466704
0.551939
0.462532
0.630617
0.533462
0.644922
0.595450
0.582933
0.698566
0.586510
0.430942
0.557899
0.659823
0.581741
0.545979
0.682473
0.722408
0.557899
0.556707
0.602603
0.629425
0.708699
0.675917
0.841618
0.869632
0.870824
0.876784
0.992417
1.059771
1.932979
6.871819
17.761588
51.196814
96.961856
188.153982
279.348493
401.291847
459.157825
470.737815
426.089764
314.341784
217.640996
109.246969
56.925416
19.331574
6.773472
2.631545
2.427697
2.408624
2.412796
2.280474
2.373457
2.367496
2.353787
2.753735
3.342628
4.534721
5.697608
8.209944
10.167956
12.790561
13.976693
15.132427
##ZVALUE=365
0.578761
0.596642
0.632405
0.676513
0.669956
0.682473
0.740886
0.600815
0.666976
0.518560
0.587702
0.644922
0.566840
0.621676
0.561476
0.544786
0.518560
0.414848
0.707507
0.524521
0.631809
0.639558
0.547767
0.540614
0.598431
0.740886
0.469685
0.622869
0.640750
0.649691
0.685453
0.692606
0.641942
0.713468
0.794530
0.563860
0.726581
0.679493
0.568628
0.632405
0.778437
0.882745
0.734925
0.725985
0.597835
0.757575
0.649691
0.616908
0.800490
0.662804
0.708699
0.698566
0.791550
0.775456
0.725985
0.884533
1.054406
0.946522
0.770688
0.839829
1.005530
0.955462
0.994802
1.275539
1.375675
4.114509
10.469556
30.886531
66.713691
149.395466
228.191614
340.837836
418.351889
469.548702
444.878936
351.189971
258.103609
145.154595
81.189871
28.577447
9.584427
2.774596
2.481937
2.378821
2.265573
2.157688
2.419949
2.223849
2.276897
2.172589
2.661943
3.057718
3.807545
5.178452
6.787777
9.267926
##ZVALUE=370
0.578761
0.508428
0.562668
0.641942
0.613928
0.559688
0.636578
0.591874
0.462532
0.612736
0.604987
0.463724
0.578761
0.595450
0.543594
0.635982
0.666976
0.677705
0.570416
0.454783
0.493526
0.465512
0.555515
0.624657
0.525713
0.635982
0.507832
0.669956
0.619888
0.717640
0.642538
0.652671
0.557899
0.676513
0.677705
0.613928
0.714660
0.710487
0.659823
0.656843
0.639558
0.653863
0.621676
0.671744
0.687838
0.661612
0.724792
0.690818
0.680685
0.740886
0.697970
0.702739
0.546575
0.782609
0.724792
0.552535
0.784993
0.712872
0.940561
0.907779
0.798702
0.903606
0.930429
0.899434
0.909567
0.957847
0.963807
2.234578
7.896423
20.429492
56.849718
103.556514
197.626948
289.001465
408.177972
464.186668
458.908677
397.571921
278.539658
183.883905
83.778501
42.024851
14.250875
5.383492
2.436638
2.329946
2.169609
2.248883
2.188683
2.122521
2.200603
2.179742
2.148747
2.481937
3.019571
3.438592
##ZVALUE=375
0.550747
0.547767
0.496507
0.531673
0.609756
0.550747
0.521541
0.520945
0.553727
0.674725
0.701547
0.549555
0.530481
0.634789
0.537634
0.711679
0.484586
0.526905
0.518560
0.527501
0.618696
0.544786
0.650883
0.666976
0.542998
0.573993
0.615716
0.613928
0.624657
0.594854
0.522733
0.589490
0.488758
0.516772
0.579953
0.690818
0.688434
0.678897
0.652671
0.674725
0.599623
0.709891
0.563860
0.590682
0.380874
0.635982
0.535846
0.576973
0.608563
0.603795
0.690818
0.613928
0.539422
0.605583
0.691414
0.627637
0.735521
0.642538
0.665784
0.708699
0.641942
0.827909
0.751615
0.792742
0.717640
0.863671
0.937581
0.962615
0.952482
1.751781
3.815889
13.058782
31.701922
83.520412
146.839619
260.964632
349.052548
436.559916
461.598635
415.110588
335.723758
207.971931
128.823519
61.108470
28.884411
8.418560
3.135800
2.173781
2.151728
2.106428
2.055764
2.001524
2.029538
2.076626
2.055764
2.154708
##ZVALUE=380
0.630617
0.617504
0.570416
0.512600
0.489950
0.642538
0.534654
0.571609
0.513792
0.495911
0.620484
0.516772
0.542998
0.606775
0.645518
0.504851
0.563860
0.676513
0.471473
0.541806
0.566840
0.611544
0.506639
0.614524
0.615716
0.615716
0.615716
0.600815
0.472665
0.460744
0.464916
0.466704
0.618696
0.565648
0.565648
0.567436
0.559688
0.605583
0.464916
0.628829
0.676513
0.760555
0.575781
0.584722
0.553727
0.684857
0.627637
0.764728
0.779629
0.636578
0.586510
0.551939
0.654459
0.603795
0.658631
0.636578
0.697970
0.588894
0.758767
0.696778
0.714660
0.735521
0.672936
0.643730
0.831485
0.771880
0.721812
0.998974
0.909567
0.880957
1.057982
1.259446
2.616644
7.373691
26.283860
54.493546
123.566985
207.190514
333.455801
413.556695
470.632911
455.860496
378.375649
291.522741
169.217587
97.093582
38.483739
16.494989
4.126430
2.186894
2.034903
1.983643
1.747608
1.940727
1.793504
1.904964
##ZVALUE=385
0.575781
0.531673
0.544786
0.431538
0.340939
0.530481
0.498891
0.559688
0.582933
0.625849
0.619888
0.532866
0.556707
0.575781
0.577569
0.458956
0.486970
0.690818
0.533462
0.694990
0.502467
0.549555
0.561476
0.548959
0.564456
0.534654
0.417829
0.497699
0.578761
0.493526
0.588894
0.466704
0.561476
0.615716
0.536442
0.588894
0.555515
0.545979
0.709891
0.486970
0.585914
0.553727
0.504851
0.550747
0.569820
0.625849
0.601411
0.649691
0.602603
0.682473
0.665784
0.712872
0.787973
0.499487
0.640750
0.727773
0.640750
0.706911
0.806451
0.600815
0.759959
0.599623
0.597835
0.739694
0.639558
0.712872
0.637770
0.790954
0.863671
0.780821
0.951886
1.007915
0.996590
1.228452
1.489520
5.118847
13.554692
42.953491
85.437894
177.082419
265.957713
378.293991
433.108807
452.836752
422.173738
328.374505
238.096714
130.277872
71.977973
27.947426
10.541677
2.690554
2.020597
1.817942
1.656413
1.688600
##ZVALUE=390
0.586510
0.451803
0.424981
0.571609
0.523925
0.645518
0.456572
0.574589
0.468493
0.477433
0.571609
0.506639
0.468493
0.557899
0.481606
0.563860
0.636578
0.612736
0.627637
0.510812
0.531673
0.557899
0.504851
0.388622
0.470877
0.581741
0.582933
0.465512
0.587702
0.540614
0.523925
0.568628
0.477433
0.553727
0.553727
0.640750
0.508428
0.455976
0.564456
0.508428
0.501871
0.622869
0.509620
0.525713
0.584722
0.541806
0.612736
0.657439
0.593662
0.634789
0.559688
0.493526
0.648499
0.563860
0.510812
0.731945
0.676513
0.561476
0.671744
0.587702
0.664592
0.653863
0.704527
0.809431
0.823736
0.729561
0.696778
0.671744
0.724792
0.805855
0.819564
0.984669
0.952482
0.988841
0.928640
1.042485
1.222491
3.123879
8.762479
30.965805
66.221952
145.257711
220.796466
323.779583
395.072699
455.987453
447.405577
378.453732
300.113559
184.092522
106.987953
42.522550
18.251538
4.487634
2.022982
1.864433
##ZVALUE=395
0.564456
0.509620
0.452995
0.645518
0.585914
0.582933
0.527501
0.510812
0.498891
0.423789
0.553727
0.427961
0.637770
0.428557
0.490546
0.650883
0.568628
0.479817
0.454783
0.480413
0.497699
0.531673
0.523925
0.645518
0.590682
0.537634
0.655651
0.585914
0.582933
0.581741
0.747442
0.616908
0.624657
0.482798
0.538826
0.657439
0.615716
0.536442
0.386834
0.461936
0.778437
0.545979
0.567436
0.465512
0.686646
0.504851
0.570416
0.561476
0.576973
0.721812
0.564456
0.736713
0.584722
0.659823
0.624657
0.704527
0.719428
0.542998
0.621676
0.662804
0.706911
0.630617
0.636578
0.641942
0.726581
0.604987
0.747442
0.775456
0.673532
0.723600
0.725985
0.744462
0.847578
0.778437
0.841618
0.983477
0.843406
0.817776
1.050830
2.022982
5.878806
22.577643
47.903657
105.899572
175.188780
291.764736
381.309986
461.981893
481.699705
437.098742
355.239511
233.971477
149.862766
65.786839
31.255484
9.242892
##ZVALUE=400
0.522733
0.503659
0.517964
0.503659
0.640750
0.587702
0.570416
0.553727
0.494719
0.491738
0.586510
0.592470
0.566840
0.649691
0.616908
0.459552
0.584722
0.728965
0.509620
0.603795
0.636578
0.376701
0.442863
0.542998
0.422597
0.522733
0.642538
0.664592
0.632405
0.617504
0.752807
0.593662
0.498891
0.496507
0.570416
0.663996
0.593662
0.556707
0.594854
0.627637
0.589490
0.690818
0.581741
0.601411
0.533462
0.446439
0.694990
0.700951
0.696778
0.669956
0.630617
0.749826
0.559688
0.579953
0.691414
0.645518
0.600815
0.667572
0.737906
0.701547
0.613928
0.633597
0.652671
0.643730
0.660419
0.597835
0.809431
0.713468
0.672936
0.789762
0.769496
0.909567
0.803471
0.799894
0.763535
0.868440
0.889897
0.780821
0.993609
1.048446
1.109838
1.541972
3.155470
11.714697
28.648973
76.895952
137.582421
247.249007
336.797833
433.092713
475.325584
454.538465
384.062529
261.095762
172.236562
84.693432
##END
