##TITLE=
##FORMAT=SPECTACLE-ASCII V-1.2
##DATA TYPE=ULTRAVIOLET SPECTRUM
##SECOND TYPE=ULTRAVIOLET SPECTRUM
##DATE=09/25/17
##TIME=14:46:29
##SPECTROMETER/DATA SYSTEM=SPECTACLE
##XUNITS=NM EM
##YUNITS=ENERGY
##YFACTOR=1
##FIRSTX=220
##LASTX=410
##NPOINTS=96
##3DDATA=Equidistant
##ZUNITS=NM EX
##FIRSTZ=210
##LASTZ=400
##ZPOINTS=39
##XYDATA=(Y..Y)
##ZVALUE=210
3.748536
3.710985
3.835559
4.416704
3.693700
3.867745
3.714561
4.164577
3.801584
3.792644
3.945827
3.740788
3.819466
3.625751
3.655553
4.003644
3.611445
4.131794
3.666878
3.970861
3.600717
3.874898
3.908873
4.153848
4.085898
3.988743
3.991723
4.005432
4.204512
4.425645
4.569888
4.658699
4.198551
4.661679
4.226565
4.155636
4.508495
4.572868
4.830956
4.622936
4.602671
4.564524
4.596710
5.250573
4.470944
4.933476
4.821420
5.313754
5.096793
4.300475
4.774928
5.020499
4.893541
4.850626
4.819632
5.367994
5.183816
4.830956
4.966855
4.663467
5.013943
5.070567
4.783869
5.594492
4.708767
5.588531
5.028844
5.504489
5.829930
5.478859
6.134510
7.313490
6.986856
7.206798
8.756518
8.474588
8.157492
9.270906
8.879900
8.825660
8.938909
8.312464
7.992983
7.667542
6.721616
6.113648
5.688667
5.758405
5.593896
4.746914
4.911423
5.308986
5.422831
5.110502
5.160570
5.514622
##ZVALUE=215
5.006790
5.486608
4.946589
4.743934
4.846454
4.168749
4.409552
4.206896
4.475713
4.910827
4.310608
4.703999
4.331470
4.444718
4.538894
3.825426
3.883839
4.289746
3.785491
3.987551
4.135966
4.223585
4.103780
4.460812
3.930926
4.134774
4.365444
4.201531
4.049540
4.763603
3.838539
4.219413
4.683733
4.280806
5.269647
4.662871
4.747510
4.344583
4.737973
4.917979
4.974604
4.489422
4.754663
4.803538
4.552603
5.135536
4.852414
4.362464
4.635453
4.790425
4.687905
5.052686
4.806519
4.609823
4.709959
5.224943
4.969835
6.043911
5.239844
4.953742
5.254745
5.196929
4.940629
5.615950
4.924536
5.071759
5.294681
5.231500
4.862547
5.999804
6.432533
6.279945
6.948709
7.220507
7.892847
8.342862
8.763671
9.057522
9.163618
7.913709
7.962584
8.099675
8.390546
7.900596
6.020665
6.551743
6.245971
5.826950
5.025864
5.110502
5.624890
4.987717
5.332828
4.929900
5.435944
5.098581
##ZVALUE=220
7.935762
7.553697
8.348823
8.913875
8.690953
8.150935
6.140471
5.477667
5.386472
5.573630
5.248785
5.321503
5.643964
5.402565
5.544424
4.430413
4.703999
4.450679
4.385710
4.222989
3.612638
3.690720
3.798604
4.373789
4.304647
3.710985
3.923774
4.691482
4.053712
4.564524
4.186630
5.143881
4.920959
4.238486
4.409552
4.170537
4.878640
4.736781
4.797578
5.409718
4.898906
4.866719
4.772544
5.337596
5.228519
4.702806
4.914999
4.976988
4.949570
4.735589
4.962683
4.870892
5.028844
4.865527
4.756451
5.175471
5.182624
5.363822
5.917549
5.405545
5.416870
5.414486
5.156994
5.039573
5.907416
5.574822
5.345941
5.187988
6.300807
5.863905
6.059408
7.096529
6.908774
7.800460
8.389950
9.481907
8.224845
8.523464
8.690953
8.169413
6.956458
8.194447
7.856488
7.351637
7.139444
6.525517
5.442500
5.870461
5.134940
5.517602
5.684495
5.191565
5.127788
4.731417
4.757643
5.586743
##ZVALUE=225
10.294914
9.386539
10.998845
14.129877
15.098453
15.595555
16.452670
14.578700
12.644529
9.253621
7.545948
6.673932
5.614758
6.472468
7.605553
6.625652
7.226467
6.657839
5.480647
4.829764
6.010532
4.455447
4.500747
4.353523
4.643798
4.193783
4.065633
3.694892
4.208684
4.806519
4.246831
4.395843
4.332662
4.875660
4.572868
4.438758
4.717708
4.514456
4.614592
5.124807
4.780889
4.126430
5.060434
4.671812
5.362630
5.318522
4.891753
4.930496
5.079508
5.002618
4.548430
5.325675
5.828738
5.663633
5.366802
5.317926
5.214810
5.315542
5.887747
5.534887
5.251765
5.367994
5.868673
5.621910
6.072521
5.733967
6.396770
5.798936
5.956888
6.366968
6.875992
6.337762
6.877780
7.123947
8.824468
8.692741
8.743405
8.401871
8.324981
8.246899
7.679462
7.212758
7.489920
6.745458
6.942749
6.603599
6.225705
6.566644
5.977750
5.135536
5.223751
5.749464
5.412698
4.822612
5.178452
4.471540
##ZVALUE=230
8.652806
9.171963
12.386441
17.453432
22.680759
27.064681
31.502843
36.559701
34.389496
34.004450
26.589632
20.099878
11.839867
10.273457
8.427501
8.641481
10.599494
10.415912
10.133982
10.271668
9.808540
7.722974
5.934834
5.462766
4.726648
4.400611
4.596710
4.554987
4.473925
4.451871
4.045963
5.132556
5.021691
4.694462
4.533529
4.748702
4.829764
5.003810
5.335808
5.126595
4.367828
4.827976
5.313754
4.464984
5.495548
6.207824
5.332828
5.211830
5.337596
6.037951
5.731583
5.339980
5.616546
6.014705
5.581975
5.935431
5.690455
5.406737
6.157756
5.730987
5.576611
6.591678
6.024837
5.993843
6.946921
6.743670
6.807446
6.149411
7.334948
6.832480
7.325411
7.720590
8.418560
9.059906
9.131432
9.093881
9.106994
9.436607
9.856820
8.354783
8.692741
8.786917
7.652640
7.711649
7.370710
6.679893
7.628798
6.050467
5.842447
6.345510
5.918741
6.539822
6.280541
6.839633
6.866455
5.807877
##ZVALUE=235
4.801750
4.502535
7.047653
10.425448
16.898513
28.247833
41.043758
55.727959
64.217448
68.221688
71.581602
62.882900
49.157739
33.791661
23.684502
15.090704
10.723472
10.825992
11.822581
13.275743
13.369918
13.565421
11.717677
10.596514
8.566976
7.914901
5.745888
4.704595
4.179478
4.161596
4.396439
4.593730
3.807545
4.970431
4.773736
3.972650
4.585981
4.448891
4.636645
4.524589
4.355907
4.333854
4.861951
5.386472
4.789829
5.195737
5.252957
5.048513
5.487800
5.122423
5.604625
5.536675
5.106926
5.478859
5.923510
5.994439
5.533695
5.658865
6.472468
5.864501
6.333590
5.898476
6.103516
6.422997
5.896688
5.826950
6.978512
6.339550
7.358789
7.841587
7.060766
8.659959
8.265972
8.747578
10.080934
9.843707
9.806752
9.559989
9.124875
10.645986
9.589791
8.823872
8.496642
7.904768
7.608533
7.420778
8.185506
7.148981
6.630421
6.694794
7.153749
7.439852
6.892681
6.793737
6.661415
6.257892
##ZVALUE=240
3.357530
3.660917
4.150867
4.990697
8.534789
13.231635
21.665692
38.755536
57.956576
72.327852
99.999905
110.311508
111.697912
103.625655
79.630613
60.226917
35.598874
25.299788
14.756918
11.728406
12.587905
15.094876
17.730594
17.367601
17.429590
14.892817
12.972951
10.755658
8.770823
7.615685
6.724000
5.175471
5.248785
5.149841
5.261898
5.792975
5.244613
5.420446
5.251765
4.980564
4.655719
4.797578
5.564690
4.946589
5.342960
5.337000
4.723668
5.421638
5.475879
5.201697
6.156564
5.395412
5.720854
6.007552
5.629659
5.840659
6.468892
6.064773
6.250739
6.465912
6.518960
6.672740
7.460713
6.646514
6.526709
7.148981
7.273555
8.065701
7.806420
7.862449
8.406639
9.241700
9.174943
9.347796
8.892417
10.477901
9.661913
10.190606
9.275675
9.388924
9.742975
9.016991
8.687973
8.423924
8.441806
8.562803
8.115768
7.531643
7.330775
7.991791
7.815957
7.112622
7.029772
6.589890
7.349849
7.686615
##ZVALUE=245
3.051758
3.385544
3.340840
3.195405
3.202558
4.378557
6.205440
12.308955
21.001697
40.578842
61.952472
87.286830
120.607615
135.293603
144.797564
135.661960
113.713741
90.760589
57.123899
37.373900
20.893812
13.311505
13.176799
16.556978
19.261837
19.950867
20.908713
19.252896
18.654466
15.551448
11.976957
9.809732
7.845759
5.801916
4.780889
5.290508
5.287528
4.861951
5.342960
4.646778
4.784465
4.871488
4.578829
4.871488
5.003810
4.974604
4.467964
4.679561
5.168915
4.784465
5.052686
5.127788
5.086660
5.435944
4.998446
5.556941
5.994439
5.459785
5.235672
5.614758
5.512834
6.137490
6.517768
6.634593
6.716847
6.279945
6.313920
6.544590
7.006526
6.692410
6.570816
7.730722
7.913709
8.270741
8.593798
7.961988
8.898973
8.499622
8.208752
8.942485
8.562803
7.845759
7.828474
7.557869
7.202625
7.347465
6.852746
7.294416
6.434917
6.251931
6.103516
7.000566
6.335974
6.480813
6.587505
5.406737
##ZVALUE=250
2.698898
2.953410
2.722740
2.870560
2.729893
2.794862
2.772808
3.479719
5.104542
9.667873
19.005537
35.137534
63.494444
88.274479
129.167438
154.017806
170.615911
171.565413
147.359967
122.349858
80.347657
57.064891
28.351545
15.527606
12.322664
13.866425
16.236901
19.975901
21.708608
23.089647
21.919608
19.339919
16.107559
11.778474
9.310842
7.009506
5.542636
4.969835
4.554987
4.353523
4.275441
4.149675
4.360676
3.994703
4.275441
3.875494
4.096627
4.322529
3.759861
4.066825
4.337430
4.656911
4.592538
4.732609
4.750490
4.673600
5.106926
4.989505
4.581809
4.946589
5.121827
5.645752
5.235672
4.932880
5.543828
5.321503
4.914999
5.310774
5.541444
5.674958
6.204844
6.235838
6.221533
6.688833
6.630421
6.980896
6.942749
6.946921
7.371902
6.784797
7.137656
6.370544
5.828738
6.084442
6.113648
6.017685
6.243587
5.832911
5.868673
5.866885
5.233884
5.662441
5.701780
6.089807
5.565882
5.768538
##ZVALUE=255
2.438426
2.182722
2.323985
2.401471
2.734661
2.728701
2.185702
2.507567
2.442598
2.395511
4.603863
7.957816
14.246702
31.398535
50.188899
87.201595
121.011734
165.537000
191.525817
204.168558
193.712711
168.312788
118.106604
80.114603
39.519668
23.181438
12.747645
11.090636
14.450550
17.135739
20.965934
22.860765
23.640990
22.233725
19.937754
15.454888
11.756420
8.968711
6.051660
4.549623
4.456639
3.756881
3.813505
3.551841
3.858805
3.629923
3.807545
3.924966
4.108548
3.433824
4.087687
4.186630
3.656745
3.553629
4.240870
3.888607
4.324913
3.814697
4.034638
4.484653
4.235506
4.714727
4.439950
5.035996
4.300475
4.454851
4.530549
4.358888
4.883409
4.638433
5.202889
5.756617
5.897880
5.999804
5.855560
5.593896
5.875826
6.141663
5.975962
5.817413
5.868673
5.276799
5.566478
4.936457
4.648566
4.832745
4.961491
5.088449
4.361868
4.471540
4.523993
4.785657
4.466772
4.832745
4.771948
4.826784
##ZVALUE=260
2.282858
2.102852
2.314448
2.182722
2.012849
2.188683
1.908541
2.059937
2.324581
2.593994
2.445579
2.249479
3.037453
5.499721
9.972453
24.937987
41.872859
77.181458
114.193559
171.817541
213.478804
241.934657
242.469907
217.125416
158.863664
115.676522
64.998865
38.060546
16.599894
10.660887
10.291934
14.988780
18.676519
21.408796
23.709536
23.685694
21.783710
18.774867
16.246438
10.923743
8.642673
5.362630
4.462600
3.433824
3.416538
3.087521
3.514886
3.360510
3.196597
3.590584
3.400445
3.666878
3.874898
3.674626
3.553629
3.918409
3.749728
3.546476
4.135966
3.454685
4.140735
3.903508
4.431605
4.268885
4.048944
4.360676
3.964901
4.584789
4.628897
4.463792
4.414916
4.849434
4.752874
4.909635
4.867911
4.866719
5.024672
4.774928
4.952550
4.346967
4.699826
4.322529
4.421473
4.033446
3.837943
4.222989
4.448891
4.093647
3.887415
4.323721
4.058480
3.912449
3.893971
3.955960
4.357696
3.671646
##ZVALUE=265
1.963973
1.955628
1.871586
2.066493
2.054572
1.875758
1.931787
2.005696
1.824498
2.015829
1.872778
1.978874
1.947880
2.060533
2.313852
4.161596
8.132458
18.961430
33.413768
69.543719
110.725760
158.087611
219.330788
259.553790
268.387794
254.146457
201.982856
156.052709
95.568895
57.241917
29.930472
12.783408
8.894801
10.695457
14.026761
19.292831
22.281408
23.793578
24.139881
21.722913
19.280910
14.828444
11.374950
7.841587
5.612969
3.930926
3.422499
3.211498
3.192425
3.464818
2.929568
3.127456
3.258586
3.329515
3.588796
3.541708
3.331900
3.709793
3.390908
3.978610
3.837943
3.911853
3.867745
3.700852
4.217625
3.715754
3.887415
3.717542
3.754497
4.479885
3.984571
4.122853
4.216433
4.792809
4.375577
4.528761
4.346967
4.500747
4.323721
4.296899
4.198551
3.758669
3.984571
3.807545
4.019737
3.711581
3.825426
3.856421
3.633499
3.679991
3.775954
3.401637
3.610849
3.545880
3.595948
3.793836
##ZVALUE=270
1.780987
1.890659
1.882911
1.878738
1.914501
1.891851
1.778603
1.758933
1.822710
1.698732
1.904964
1.689792
1.732707
1.976490
1.879930
1.874566
1.918674
2.564788
5.640984
11.486411
30.498505
53.861737
106.682777
156.481862
225.960612
272.440910
299.298763
296.924710
268.950462
206.072927
144.474506
78.533888
43.427944
16.977787
8.967519
8.338690
10.840893
14.509559
18.803477
23.264885
23.920536
24.066567
22.091866
17.777681
15.400648
10.294914
7.659793
5.221963
3.867745
3.288984
3.039837
3.161430
3.117919
3.361702
3.598928
3.558993
3.141761
3.392696
3.272891
3.499985
3.511906
3.763437
3.905892
3.833771
3.654957
3.795624
3.891587
3.903508
3.824830
3.676414
3.591776
3.838539
4.256964
4.486442
4.398823
4.153848
4.278421
4.019737
4.292727
3.638864
3.889799
3.744960
3.551841
3.470778
3.687739
3.470778
3.329515
2.940893
3.099442
3.143549
2.810955
3.266931
3.096461
3.335476
3.146529
3.104806
##ZVALUE=275
1.534820
1.527667
1.585484
1.486540
1.599789
1.525879
1.553893
1.768470
1.799464
1.685619
1.789927
1.778603
1.761913
1.789927
1.910925
1.790524
1.829863
1.745820
2.012849
2.190471
3.654957
7.801652
22.380948
43.320656
88.593960
134.534836
201.615691
257.464647
312.776566
327.863693
313.094854
259.945989
197.190642
110.862851
64.978600
25.641918
11.505485
6.312728
7.698536
11.325479
13.866425
19.368529
22.324920
25.075674
24.381876
22.648573
19.150972
14.528632
11.258721
7.921457
5.817413
4.029870
3.308654
3.555417
3.254414
3.403425
3.493428
3.455877
3.651977
3.684759
3.922582
4.143715
3.849864
3.555417
3.501773
3.691912
3.660917
3.705621
3.785491
3.806949
3.776550
4.068613
4.265904
3.886819
4.042983
4.027486
3.994703
4.136562
3.848672
3.603697
3.766418
3.224611
3.482699
3.405809
3.180504
2.974868
3.034472
3.117919
3.015995
3.168583
2.787709
2.936721
2.809763
2.986789
2.996922
2.945662
##ZVALUE=280
1.557469
1.502633
1.512766
1.478791
1.399517
1.650453
1.550913
1.421571
1.381636
1.552701
1.548529
1.430511
1.532435
1.591444
1.551509
1.762509
1.754761
1.507998
1.697540
1.602769
1.643896
1.712441
2.656579
5.793571
18.191934
34.501553
70.155859
112.605691
181.317925
243.371725
300.842524
346.720815
346.536636
297.331810
235.928893
143.136978
87.263584
37.531853
17.236471
6.580949
5.445480
8.376837
10.818839
15.127659
19.221902
22.780895
24.559498
23.926497
22.545457
18.144846
15.230775
10.774732
8.273721
5.354881
4.492998
3.804564
3.354549
3.541708
3.472567
3.757477
3.817677
3.657937
3.557801
3.572702
3.894567
3.666878
3.685951
3.625751
3.725886
3.717542
3.909469
3.490448
3.977418
3.979802
4.131794
4.027486
3.711581
3.662705
3.853440
3.424883
3.609657
3.352761
3.464818
3.119707
3.272891
2.894998
2.903938
2.716780
2.656579
2.788901
3.023744
2.751946
2.961755
2.952814
3.005862
2.495646
##ZVALUE=285
1.280904
1.447797
1.399517
1.377463
1.421571
1.419783
1.379848
1.270771
1.496673
1.581907
1.523495
1.361966
1.542568
1.444817
1.506805
1.456738
1.432896
1.452565
1.466870
1.544952
1.567602
1.387596
1.827478
1.682639
2.389550
3.933907
10.977983
22.294521
52.421689
87.507963
154.425502
216.612816
283.844471
353.413820
371.373892
343.180895
289.476514
194.042921
125.227571
60.298443
29.194951
9.672642
4.976988
5.432963
7.559657
10.718703
13.840795
18.815994
21.322966
24.043918
23.630857
22.462606
19.797683
15.387535
11.650920
8.658767
6.342530
4.745722
3.966689
3.891587
3.988743
4.127622
4.076958
3.918409
3.957748
3.912449
3.790855
3.972650
3.712773
4.141927
3.975630
4.084706
3.879666
4.025698
3.970861
4.050732
3.857613
3.588796
3.606677
3.488660
3.490448
3.472567
3.343821
2.975464
2.998710
3.037453
2.685785
2.736449
2.691746
2.650619
2.728701
2.721548
2.509952
2.614856
2.414584
3.006458
##ZVALUE=290
1.406670
1.435876
1.338720
1.321435
1.230836
1.305938
1.688600
1.213551
1.281500
1.277924
1.415610
1.355410
1.241565
1.355410
1.377463
1.408458
1.383424
1.326799
1.544952
1.401901
1.498461
1.350641
1.540780
1.484752
1.520514
1.670718
1.632571
2.444983
6.095767
14.389753
36.263466
67.383647
112.306476
196.711421
265.545845
349.079967
384.321809
379.676819
335.139632
243.956447
168.782473
85.934997
44.451952
14.583468
6.138682
4.426837
5.100965
7.395744
10.012984
13.989806
17.548800
21.810532
24.067760
24.027824
22.595525
19.586682
15.856624
11.481643
8.971691
6.490946
5.164742
4.735589
4.318953
3.953576
3.992915
3.864765
3.999472
3.924966
4.161596
4.061460
3.826618
4.316568
4.160404
3.831983
3.995895
3.969669
3.809929
3.503561
3.360510
3.221631
3.282428
3.155470
2.940893
2.812743
2.919436
2.859831
2.797842
2.717972
2.758503
2.799630
2.743602
2.616644
2.437830
2.681613
2.502799
2.415776
##ZVALUE=295
1.347661
1.381636
1.290441
1.048446
1.213551
1.176596
1.088977
1.323819
1.283884
1.196861
1.351833
1.374483
1.340508
1.277924
1.211762
1.224875
1.257658
1.238585
1.411438
1.322627
1.259446
1.367927
1.233816
1.433492
1.215935
1.462698
1.469851
1.488924
1.550913
1.873970
3.262758
11.139512
23.948550
56.698918
98.278522
173.498988
242.106915
337.642431
386.136770
402.230620
375.295877
293.442011
211.899877
116.286874
64.455867
23.019910
9.837747
4.208684
4.017949
5.246997
7.017851
9.800792
13.881922
18.445849
21.444559
23.858547
23.952723
21.553636
19.903779
15.272498
12.097955
8.505583
7.149577
5.533695
4.665852
4.410744
4.284978
3.951788
4.035830
4.405975
4.430413
4.134774
3.976822
4.024506
3.862977
3.858805
3.726482
3.624558
3.302693
3.458858
3.288984
3.240705
2.938509
2.849698
3.076792
2.835989
2.811551
2.523661
2.856851
2.601743
2.333522
2.495646
2.360940
2.289414
2.322793
2.326965
##ZVALUE=300
1.245737
1.160502
1.107454
1.231432
1.187921
1.365542
1.395941
1.298785
1.206994
1.253486
1.223683
1.114607
1.245737
1.225471
1.195669
1.331568
1.363754
1.276731
1.309514
1.236796
1.250505
1.351833
1.409650
1.258850
1.289845
1.313686
1.210570
1.283884
1.378655
1.422763
1.489520
1.466870
2.211928
5.402565
18.189549
37.341714
83.958507
137.578845
228.385925
298.618674
391.025543
426.245928
415.797830
364.386439
258.930922
173.550844
87.539554
47.456622
16.310811
6.261468
3.766418
4.365444
5.281568
7.263422
10.306835
13.352633
17.894506
20.330548
22.683740
23.229718
21.556616
20.067692
14.980435
12.395978
8.864999
7.090569
5.273819
4.523993
4.136562
3.892779
4.021525
4.148483
4.115701
3.940463
3.971457
3.744960
3.513694
3.462434
3.210902
3.327727
3.248453
3.015995
2.807975
2.882481
2.700686
2.867579
2.552867
2.642870
2.586842
2.400875
2.567768
2.462864
2.325773
2.473593
2.506971
2.333522
##ZVALUE=305
1.091957
1.315475
1.107454
1.282692
1.185536
1.153946
1.093745
1.274943
1.183748
0.927448
1.270771
1.114607
1.084805
1.108646
1.219511
1.244545
1.183748
1.097918
1.171827
1.264811
1.128912
1.352429
1.118779
1.187921
1.244545
1.331568
1.149774
1.193881
1.455545
1.321435
1.375675
1.317859
1.435876
1.467466
1.627803
4.435778
11.210442
31.486750
59.624910
120.872855
185.974836
288.811922
366.958976
438.596010
449.080467
399.601460
328.334570
215.794444
136.924982
60.909986
28.909445
9.247661
4.532933
4.203916
4.424453
5.767941
7.102489
9.920597
13.350844
17.236471
19.927621
22.565722
22.239685
20.381808
18.188953
14.242530
11.376739
8.062720
6.707907
5.038977
4.353523
3.974438
3.757477
3.644824
3.759861
3.412962
3.390908
3.280640
3.361702
3.044605
2.942681
3.005862
2.878904
2.922416
2.604723
2.672672
2.578497
2.360940
2.510548
2.487898
2.351999
2.435446
2.286434
2.347827
2.153516
2.129674
##ZVALUE=310
1.174808
1.131892
1.176596
1.044869
1.100898
1.012683
0.974536
1.081824
1.238585
1.227856
1.297593
1.004934
1.002550
1.126528
1.220703
1.173615
1.059771
1.029968
1.056790
1.241565
1.078844
1.074672
1.226664
1.178980
1.062751
1.093745
1.195669
1.150966
1.264811
1.237988
1.203418
1.195669
1.199841
1.360774
1.227856
1.430511
1.441836
2.587438
6.353855
19.774437
40.411949
88.726878
150.030851
248.080492
331.919789
425.319672
455.857515
440.328717
385.082960
276.202559
187.967420
93.794465
49.438477
17.282963
7.131696
4.078746
3.704429
4.347563
5.362630
6.921887
9.028912
12.683868
15.108585
18.951893
19.844770
20.805597
19.395947
16.641617
13.967752
10.400414
8.162856
5.773902
4.697442
3.902912
3.416538
3.417730
3.298521
2.867579
3.070831
2.996922
2.636909
2.631545
2.793670
2.607703
2.581477
2.400875
2.364516
2.268553
2.509952
2.330542
2.197623
2.052784
2.213717
2.192855
2.045631
2.199411
##ZVALUE=315
1.155734
1.048446
1.113415
1.260638
1.232624
1.107454
1.130700
1.178980
1.279712
1.138449
1.047850
1.100898
1.196861
1.076460
1.076460
1.180768
1.147985
1.055598
1.121759
1.148582
1.146793
1.071692
1.245737
1.299977
1.141429
1.234412
1.235604
1.490712
1.154542
1.265407
1.073480
1.357794
1.387596
1.359582
1.311898
1.302958
1.330972
1.537800
1.525879
1.778603
3.980994
13.240576
29.787421
68.971515
119.947791
215.311646
291.499496
389.367938
444.677472
456.952453
422.379971
322.468877
234.194994
126.661658
68.566799
25.233626
9.902716
4.204512
3.937483
3.797412
4.026890
5.081892
6.360412
8.512735
11.251569
14.705658
17.054677
19.268990
19.383430
18.338561
16.070604
12.626648
10.491610
7.031560
5.552769
3.897548
3.514886
3.147721
2.996922
2.845526
2.679825
2.449751
2.463460
2.469420
2.532601
2.298951
2.477765
2.273917
1.966953
2.191663
2.418756
2.043843
2.156496
1.898408
2.275705
2.052784
##ZVALUE=320
1.031756
1.007915
0.981688
0.845790
0.898838
0.906587
1.032948
1.160502
1.031756
0.935793
1.102686
1.056790
0.956655
1.024604
0.892878
0.948906
1.008511
0.956655
1.273751
1.005530
0.880957
0.849962
1.075864
1.002550
0.848770
1.195669
1.100898
1.097918
1.012683
1.048446
0.967979
1.156926
1.022816
1.138449
1.221895
1.082420
1.241565
1.137853
1.395941
1.294613
1.422763
1.589656
2.197623
8.294582
19.577742
51.103830
91.754794
171.781778
244.605541
352.563858
423.220992
468.826890
455.977917
375.813842
285.855532
162.297487
92.616677
37.328601
16.336441
5.202889
3.341436
3.330708
3.199577
3.482699
4.013777
5.470514
7.486939
10.065436
12.709498
15.767813
17.629862
17.863512
17.108917
14.697909
12.140870
8.445978
6.405711
4.402995
3.381968
2.555847
2.543926
2.121925
2.266765
2.100468
2.230406
2.064705
1.956820
2.070665
2.018809
1.881719
1.841784
2.030730
2.123713
2.120733
1.907945
1.861453
##ZVALUE=325
0.950694
0.984669
1.097918
1.061559
0.887513
0.966787
1.081824
0.857711
0.971556
1.010895
0.872612
0.965595
1.042485
0.980496
1.091957
1.084805
1.049638
1.040697
1.092553
1.011491
0.887513
0.947714
1.189709
1.174808
1.119971
0.994802
1.210570
1.093745
0.990629
1.245737
1.265407
0.960827
1.164675
1.004934
1.005530
1.178980
1.150966
1.137853
1.221895
1.338720
1.257658
1.270771
1.445413
1.420975
1.614690
6.030798
14.051795
36.290884
67.361593
139.772892
212.208629
325.976610
408.271551
477.055907
478.139520
410.270691
324.241519
200.872421
120.749474
52.456856
23.978949
7.008910
3.555417
2.729893
2.667904
2.714992
2.837777
3.638864
4.552603
6.827712
9.177923
11.871457
14.695525
16.356707
16.605854
15.171766
13.194680
10.379553
7.845759
5.415678
3.742576
2.775788
2.400875
2.142787
2.178550
2.054572
2.037883
1.928806
1.944900
1.889467
1.837611
1.934767
1.924634
1.914501
1.809597
1.991987
##ZVALUE=330
0.978708
0.909567
0.964999
0.862479
0.987649
0.964999
0.976920
1.024604
0.939965
0.738502
0.879765
0.925660
0.931621
0.987649
0.881553
0.951886
1.067519
1.038909
0.993609
0.990629
0.987649
0.833869
0.887513
1.008511
0.976920
0.890493
1.007915
0.977516
0.868440
1.016855
0.843406
0.883937
0.996590
0.983477
1.157522
1.039505
1.039505
1.163483
1.109838
1.107454
1.159906
1.089573
1.056790
1.147985
1.310706
1.260638
1.388788
3.191829
8.370876
25.672913
49.767494
109.307766
181.245804
299.463868
396.899581
496.549606
514.243841
460.418463
381.560922
253.371000
159.067512
72.491765
35.461783
11.476874
4.489422
2.578497
2.433658
2.243519
2.329946
2.869964
3.188848
4.335642
6.375909
9.113550
11.324883
13.922453
14.829636
15.078783
13.974905
11.955500
9.616613
6.859899
5.322695
3.402829
2.870560
2.166629
2.111793
1.685619
1.936555
1.698732
1.862645
1.761913
1.719594
1.780987
1.827478
1.654625
##ZVALUE=335
0.860691
0.784993
0.958443
1.052618
0.963807
0.897646
0.931621
0.775456
0.849962
0.842810
0.873804
0.976920
0.788569
0.884533
0.842810
0.976920
0.936985
0.960827
1.011491
0.999570
1.007915
1.007915
1.006722
0.926852
0.966787
0.838637
0.947714
1.016855
1.162887
0.993609
1.161695
0.995994
1.081824
1.079440
0.986457
1.076460
1.054406
0.968575
1.023412
1.116991
0.987649
1.123548
1.162887
1.133680
1.237988
1.200438
1.116991
1.204610
1.318455
2.124906
4.781485
16.621947
34.197569
80.511570
145.998001
269.431472
375.912786
487.504601
536.442995
507.883430
436.469913
301.800966
204.590559
106.021762
54.212809
17.478466
6.313920
2.706647
2.391934
2.257824
2.141595
2.447963
2.598763
3.339648
4.338622
6.362796
8.115768
10.945797
12.687445
14.186502
14.333725
12.847781
11.406541
9.432435
7.364750
5.098581
3.802776
2.843738
2.360940
1.812577
1.934767
1.769662
1.739860
1.738667
1.642704
1.763701
##ZVALUE=340
0.805855
0.952482
0.647902
0.917912
0.755787
0.766516
0.970960
0.903606
0.834465
0.893474
0.930429
1.095533
0.892878
0.945926
1.004934
0.873804
0.751615
0.818968
0.870824
0.785589
0.830889
0.571609
0.900626
0.880957
0.881553
0.783801
0.879765
0.888705
0.959635
0.859499
0.921488
0.927448
0.868440
0.957847
0.855923
0.903606
0.979900
0.988841
0.872612
0.889897
0.866652
1.032948
0.991821
0.984669
1.046658
1.125932
1.014471
1.184940
1.184940
1.250505
1.320839
1.413822
2.645850
10.563731
24.701953
62.247515
117.041469
226.596594
327.792764
459.826589
530.351996
541.306734
483.240485
362.887979
252.826810
128.066540
69.682002
28.025508
10.152459
3.077984
2.552867
2.387762
2.406836
2.229810
2.417564
2.518892
3.245473
4.259944
5.679727
7.916689
9.961724
12.055635
13.090968
12.810826
12.451410
10.913610
8.815527
6.922483
5.391836
3.902912
2.892613
2.267957
1.791716
1.640916
1.563430
1.575947
##ZVALUE=345
0.804663
0.861883
0.939965
0.893474
0.891685
0.860691
0.919700
0.784993
0.963807
1.052618
0.797510
0.828505
0.739694
0.711679
0.795722
0.855923
0.844598
0.932813
0.767708
0.958443
0.907779
0.949502
0.966787
0.856519
0.908971
0.862479
0.900626
0.693798
0.925660
0.887513
0.916719
0.757575
0.843406
0.961423
0.924468
0.937581
0.873804
1.022816
0.865459
0.852942
0.876784
0.943542
0.928640
0.981688
1.040697
1.108646
0.974536
1.085997
0.984669
1.130700
1.279712
1.239777
1.172423
1.332760
1.740456
6.488562
16.513467
42.358637
80.875754
170.585513
264.331698
402.395725
494.569540
547.220707
526.554585
420.297980
312.948823
171.371698
96.636415
40.183663
16.371608
4.452467
2.609491
2.356768
2.274513
2.198815
2.099872
2.005696
2.306700
2.734661
3.658533
5.438924
7.211566
9.473562
10.722876
12.021661
12.311935
11.788607
10.473728
8.882880
6.924868
4.871488
3.857613
2.861619
2.265573
1.983643
##ZVALUE=350
0.787973
0.896454
0.833869
0.620484
0.878572
0.876784
0.842810
0.972748
0.727773
0.875592
0.713468
0.655651
0.589490
0.812411
0.781417
0.886917
0.788569
0.631809
0.932813
0.847578
0.826716
0.866652
0.763535
0.848770
0.789762
0.770688
0.883937
0.942945
0.917912
0.784993
0.903606
0.962615
0.766516
0.856519
0.872612
0.895858
0.779629
0.851750
0.863671
0.859499
1.012683
0.970960
0.864863
0.842810
0.899434
0.983477
0.945926
1.014471
0.938773
0.981688
0.966787
1.103878
1.128912
1.123548
1.131892
1.439452
1.383424
3.546476
10.187626
29.673576
57.314634
132.514834
218.570828
357.666016
472.126603
577.196479
578.918457
496.071577
382.382870
220.808983
131.440759
57.630539
24.994612
6.284714
2.994537
2.331734
2.370477
2.057552
1.934767
1.770854
1.967549
2.087951
2.581477
3.464818
4.490614
6.645918
7.880926
10.047555
10.870695
11.450648
11.187792
9.866953
8.479953
6.409883
5.272627
3.771782
##ZVALUE=355
0.688434
0.796914
0.856519
0.827909
0.720620
0.897646
0.789762
0.921488
0.695586
0.912547
0.821948
0.906587
0.846982
0.858903
0.845790
0.871420
0.869632
0.899434
0.951886
0.776649
0.906587
0.853539
0.892878
0.752807
0.989437
0.996590
0.764728
0.802875
0.838637
0.729561
0.874996
0.783801
0.898838
0.902414
0.864863
0.717640
0.881553
0.973940
0.849962
1.004934
0.857711
0.797510
0.927448
0.838637
0.941753
0.879765
0.903606
0.962615
0.982881
0.989437
1.176596
0.956655
1.128912
1.048446
1.034737
0.997782
1.119971
1.283884
1.319647
1.813769
6.897449
16.635656
43.964982
84.677935
185.456872
289.368629
434.364676
532.341599
575.723648
523.113608
388.872623
279.452801
150.360465
80.333948
28.759837
11.514425
3.339648
2.411604
2.140999
2.096891
1.819730
1.825690
1.881719
1.838803
1.906753
2.414584
3.027916
4.102588
5.996823
7.192492
8.987784
10.077953
10.698438
10.444522
9.215474
7.996559
##ZVALUE=360
0.755787
0.826716
0.855923
0.732541
0.807643
0.832677
0.786781
0.818968
0.817776
0.732541
0.758767
0.764728
0.861883
0.822544
0.798702
0.779629
0.826716
0.814795
0.746846
0.683665
0.816584
0.719428
0.861883
0.931621
0.890493
0.854731
0.765920
0.826716
0.766516
0.884533
0.803471
0.824928
0.761747
0.783801
0.751615
0.720620
0.871420
0.866652
0.899434
0.849962
0.717640
0.892878
0.831485
0.814795
1.005530
0.986457
0.890493
0.941753
0.796914
1.010895
0.932813
0.922680
0.986457
1.087785
0.959635
0.985861
1.019835
1.148582
1.218915
1.321435
1.272559
1.598597
3.328919
10.746717
24.913549
65.786839
122.584701
238.932967
356.550813
505.371690
567.643642
557.871461
480.688810
325.817466
208.323002
96.482635
47.601461
15.862584
5.522966
2.347827
2.134442
1.890659
2.002716
1.776814
1.739860
1.691580
1.966953
1.879930
2.181530
2.700686
3.646612
4.895926
6.654859
7.894635
8.917451
9.748936
##ZVALUE=365
0.685453
0.751615
0.735521
0.664592
0.712872
0.867844
0.804663
0.858903
0.897646
0.921488
0.771880
0.911951
0.943542
0.745654
0.714660
0.844598
0.667572
0.609756
0.678897
0.712872
0.739694
0.726581
0.764728
0.695586
0.888705
0.734925
0.696778
0.774860
0.814795
0.696778
0.821948
0.783801
0.756979
0.871420
0.935793
0.715852
1.028776
0.718832
0.735521
0.784993
0.891685
0.844598
0.816584
0.914931
0.967979
0.956655
0.870824
0.828505
0.893474
0.803471
0.978708
0.890493
0.797510
0.939965
0.863671
1.132488
0.988841
0.988841
0.886917
1.152754
1.150966
1.185536
1.286864
1.439452
1.929998
6.345510
16.060472
43.845773
87.722540
191.283822
300.233960
451.786518
542.957783
576.186776
517.915487
372.684598
256.316662
131.164789
68.597794
23.734570
8.403659
2.559423
2.139807
1.780987
1.792908
1.838803
1.732707
1.761913
1.586676
1.480579
1.633763
1.755953
2.382994
3.123879
4.070997
5.596876
##ZVALUE=370
0.747442
0.688434
0.673532
0.720620
0.745654
0.736713
0.780821
0.655651
0.746846
0.591874
0.806451
0.771880
0.805855
0.813603
0.654459
0.670552
0.710487
0.630617
0.708699
0.615716
0.753999
0.869632
0.667572
0.844598
0.800490
0.766516
0.875592
0.774860
0.735521
0.837445
0.821948
0.663996
0.810623
0.766516
0.688434
0.659823
0.763535
0.856519
0.806451
0.750422
0.833869
0.726581
0.759959
0.844598
0.771880
0.810623
0.818968
0.904799
0.878572
0.713468
0.642538
0.740886
0.829697
0.873804
0.985861
0.909567
0.923872
1.046658
0.984669
1.007915
1.042485
1.044869
1.025796
1.252890
1.133680
1.166463
1.342893
3.796816
10.586977
30.563474
61.487556
141.556859
239.199996
397.301912
504.828691
575.217009
543.355942
429.010987
313.470960
166.276693
89.756846
32.733679
13.569593
3.497601
2.130866
1.815557
1.760721
1.737475
1.588464
1.648664
1.548529
1.515746
1.504421
1.434684
1.498461
2.063513
##ZVALUE=375
0.664592
0.755787
0.680685
0.697970
0.747442
0.728965
0.674725
0.886917
0.666976
0.730753
0.747442
0.677705
0.719428
0.786781
0.624657
0.680685
0.874996
0.768900
0.760555
0.702739
0.656843
0.687838
0.578761
0.715852
0.591874
0.714660
0.739694
0.650883
0.848770
0.767708
0.708699
0.767708
0.792742
0.841618
0.769496
0.706911
0.755787
0.771880
0.856519
0.635982
0.727773
0.828505
0.679493
0.717640
0.847578
0.732541
0.775456
0.718832
0.978708
0.744462
0.924468
0.841618
0.912547
0.869632
0.924468
0.777841
0.648499
0.792742
0.855923
0.920892
0.857711
0.933409
0.949502
0.937581
0.961423
0.960827
1.122952
1.168847
1.238585
2.296567
5.884767
19.409657
41.601658
107.062459
193.939805
348.542929
464.316010
573.737621
586.250424
490.161777
372.131467
214.856863
127.456784
58.841705
27.523637
7.895827
2.819896
1.699924
1.661777
1.699924
1.527667
1.682639
1.467466
1.388788
1.356602
1.326799
##ZVALUE=380
0.626445
0.649691
0.700951
0.835657
0.756979
0.786781
0.593662
0.802875
0.727773
0.707507
0.812411
0.666976
0.689626
0.669956
0.709891
0.815988
0.777841
0.742674
0.821948
0.722408
0.699759
0.749826
0.775456
0.550747
0.643730
0.658631
0.781417
0.838637
0.696778
0.591874
0.668764
0.669956
0.721812
0.626445
0.701547
0.794530
0.694990
0.886917
0.663996
0.756979
0.730753
0.684857
0.744462
0.873804
0.721812
0.750422
0.776649
0.637770
0.797510
0.911951
0.803471
0.694990
0.752807
0.763535
0.760555
0.747442
0.770688
0.868440
0.799894
0.741482
0.946522
0.800490
0.848770
0.855923
1.010895
0.935793
1.000762
1.096725
1.105666
1.187921
1.272559
1.511574
3.618598
13.834834
31.444430
81.192851
149.165988
279.293656
397.948027
530.556440
574.440956
524.186492
429.955721
280.223489
178.941488
81.903934
39.885640
12.660623
4.764795
1.740456
1.594424
1.610518
1.433492
1.462698
1.211762
1.410842
##ZVALUE=385
0.702739
0.722408
0.745654
0.689626
0.767708
0.634789
0.649691
0.643730
0.676513
0.654459
0.650883
0.890493
0.665784
0.671744
0.745654
0.645518
0.620484
0.731945
0.643730
0.692606
0.829697
0.774860
0.787973
0.663996
0.674725
0.649691
0.586510
0.666976
0.678897
0.578761
0.537634
0.751615
0.674725
0.744462
0.754595
0.683665
0.876784
0.780821
0.780821
0.769496
0.850558
0.624657
0.882745
0.640750
0.731945
0.673532
0.680685
0.788569
0.808835
0.839829
0.812411
0.732541
0.669956
0.743866
0.757575
0.823736
0.778437
0.831485
0.957847
0.748634
0.788569
0.941753
0.739694
0.794530
0.800490
0.902414
0.960827
0.944734
0.917912
1.156926
1.084805
1.251698
1.491904
1.280904
2.249479
8.447766
20.140409
53.513646
104.429722
220.293999
335.032940
487.343669
559.082627
572.012663
511.856675
375.185013
260.243416
131.826997
70.491433
26.065707
9.554625
2.444983
1.757741
1.676679
1.573563
1.437664
##ZVALUE=390
0.734925
0.714660
0.604987
0.650883
0.694990
0.761747
0.666976
0.635982
0.795722
0.699759
0.589490
0.725985
0.775456
0.688434
0.639558
0.670552
0.732541
0.721812
0.707507
0.732541
0.622869
0.693798
0.600815
0.686646
0.746846
0.633597
0.745654
0.680685
0.747442
0.597835
0.576973
0.674725
0.789762
0.767708
0.715852
0.874996
0.776649
0.699759
0.777841
0.856519
0.767708
0.658631
0.718832
0.756979
0.615716
0.748634
0.820756
0.759959
0.735521
0.720620
0.675917
0.662804
0.713468
0.808835
0.735521
0.790954
0.761747
0.757575
0.826716
0.756979
0.775456
0.756979
0.830889
0.832677
0.561476
0.833869
1.012683
1.036525
1.003742
0.961423
0.981688
1.267791
1.207590
1.071692
1.154542
1.187921
1.459718
4.785657
13.319850
40.650964
81.806779
179.992914
279.265642
425.098538
525.942445
598.998666
578.833818
463.964939
344.319940
195.084810
105.858445
40.326715
16.559958
3.768802
1.790524
1.591444
##ZVALUE=395
0.621676
0.665784
0.645518
0.769496
0.667572
0.666976
0.747442
0.931621
0.602603
0.648499
0.670552
0.672936
0.596642
0.619888
0.579953
0.511408
0.693798
0.679493
0.735521
0.689626
0.887513
0.701547
0.736713
0.650883
0.601411
0.658631
0.677705
0.607967
0.636578
0.634789
0.844598
0.721812
0.671744
0.667572
0.620484
0.780821
0.798702
0.855923
0.669956
0.624657
0.709891
0.708699
0.721812
0.702739
0.632405
0.701547
0.849962
0.803471
0.804663
0.808835
0.785589
0.682473
0.746846
0.778437
0.597835
0.720620
0.778437
0.729561
0.865459
0.775456
0.679493
0.685453
0.734925
0.722408
0.936985
0.758767
0.838637
0.972748
0.733733
1.067519
1.050830
1.107454
1.159906
1.006722
1.058578
1.145601
1.312494
1.251698
1.317859
2.733469
10.511875
24.984479
61.891675
113.902688
227.997899
341.425538
499.678850
590.263009
620.158911
554.629564
402.939916
272.392631
132.873654
66.266656
22.622943
8.624792
##ZVALUE=400
0.567436
0.542998
0.722408
0.600815
0.593662
0.742674
0.678897
0.776649
0.559688
0.691414
0.678897
0.617504
0.668764
0.635982
0.711679
0.699759
0.866652
0.759959
0.599623
0.758767
0.684857
0.703931
0.623465
0.504851
0.627637
0.714660
0.686646
0.563860
0.632405
0.846982
0.751615
0.585914
0.718832
0.706911
0.691414
0.643730
0.808835
0.607967
0.761747
0.747442
0.698566
0.707507
0.716448
0.644922
0.727773
0.754595
0.831485
0.797510
0.919700
0.726581
0.688434
0.843406
0.793934
0.888705
0.681877
0.603795
0.807643
0.747442
0.760555
0.908971
0.837445
0.673532
0.951886
0.899434
0.731945
0.834465
0.937581
0.886917
0.907779
0.980496
0.968575
0.946522
0.955462
1.022816
1.141429
1.001954
0.950694
1.181960
1.078844
0.889897
1.246929
1.746416
5.944967
15.331507
42.180419
81.229806
171.214938
270.218849
426.166654
529.127717
599.316955
573.346615
451.083779
328.818560
177.931786
99.866986
##END
