##TITLE=
##FORMAT=SPECTACLE-ASCII V-1.2
##DATA TYPE=ULTRAVIOLET SPECTRUM
##SECOND TYPE=ULTRAVIOLET SPECTRUM
##DATE=09/25/17
##TIME=14:59:42
##SPECTROMETER/DATA SYSTEM=SPECTACLE
##XUNITS=NM EM
##YUNITS=ENERGY
##YFACTOR=1
##FIRSTX=220
##LASTX=410
##NPOINTS=96
##3DDATA=Equidistant
##ZUNITS=NM EX
##FIRSTZ=210
##LASTZ=400
##ZPOINTS=39
##XYDATA=(Y..Y)
##ZVALUE=210
3.839731
3.633499
3.453493
4.015565
3.514886
3.051758
3.615618
3.614426
3.432631
3.760457
3.857613
3.473759
3.700852
3.458858
3.414750
3.885627
3.493428
3.398657
3.652573
3.614426
3.984571
3.901720
3.487468
3.991723
3.436804
4.223585
4.158616
3.493428
3.879666
3.661513
4.071593
3.599524
3.950000
3.925562
4.072785
4.113913
4.283786
3.780723
4.125834
4.550815
4.466772
4.485846
4.022717
4.776716
4.107952
4.298687
4.237890
3.841519
4.349947
4.268885
4.378557
3.925562
4.216433
4.509687
3.904700
4.726648
4.582405
4.513860
4.184842
3.961921
4.065633
4.180670
4.759431
4.024506
4.014969
4.250407
4.822612
4.631877
3.976822
4.483461
5.037785
5.235672
5.067587
5.557537
6.085634
5.645752
6.565452
6.140471
6.890893
6.231666
6.648898
6.054640
6.184578
6.539822
5.929470
4.986525
5.576611
4.941821
4.675984
4.853606
4.679561
4.383922
4.736781
5.264878
5.633831
5.141497
##ZVALUE=215
4.423857
4.617572
4.823804
4.034638
4.471540
3.458858
4.162788
3.576875
4.141927
4.181862
3.817677
4.014969
3.817677
4.084706
3.911853
3.632903
4.018545
3.842711
3.528595
3.875494
3.538728
3.418922
3.990531
3.715754
4.047751
3.703833
3.899932
4.264712
3.626943
4.357696
4.340410
4.362464
4.081726
4.541874
3.941655
4.131794
4.256964
4.361868
4.224777
4.343987
4.281998
4.012585
3.917813
4.359484
4.471540
4.069805
4.404783
4.091859
3.779531
4.840493
3.817677
4.306436
3.833771
4.241467
4.469752
4.889965
3.879666
4.257560
4.178882
4.075766
4.338622
3.947616
5.192757
4.326701
5.021691
4.163980
3.896952
4.541874
4.606843
5.143881
5.013943
5.637407
5.547404
6.405711
6.425977
6.624460
5.266666
6.284714
7.733703
7.352829
6.104708
6.692410
6.343722
6.487966
5.963445
5.286932
5.069971
5.060434
4.376769
4.566908
4.394650
4.208684
4.438758
4.092455
5.193949
4.485846
##ZVALUE=220
7.198453
6.383657
7.138848
7.052422
6.716847
5.890727
6.254911
4.692674
4.931688
3.885627
4.220605
4.714727
4.862547
4.807711
4.721880
5.118847
4.336834
3.554821
4.050732
3.545880
3.787875
3.745556
4.134774
3.854632
4.201531
3.659725
3.738999
4.327893
3.871918
3.346801
4.000664
3.950000
3.883839
4.095435
4.244447
4.150867
4.437566
4.071593
4.484653
4.291534
3.913641
4.480481
3.684759
3.992915
4.492998
4.045963
4.441738
4.425645
4.573464
4.324913
4.319549
4.521608
4.290938
4.722476
4.007816
4.425645
4.577637
4.649758
4.312992
4.384518
4.755855
4.392862
4.648566
3.906488
4.889965
4.334450
4.364848
4.946589
4.712939
4.985929
5.600452
5.359650
5.922914
5.783439
6.034970
5.707741
6.185770
6.541610
6.636977
6.337762
6.907582
6.620884
6.619692
6.112456
6.262660
5.806684
4.635453
5.088449
4.812479
4.755855
5.150437
4.460812
4.631877
4.595518
4.387498
4.912615
##ZVALUE=225
8.084774
9.768605
11.091828
12.177825
12.287498
11.294484
12.225509
10.780692
9.929538
7.896423
6.380677
5.987883
5.432963
6.552935
6.087422
6.731749
5.828738
5.513430
5.871654
4.521608
4.214644
4.108548
3.891587
3.984571
3.622770
3.856421
3.816485
3.944635
3.946424
4.095435
4.083514
4.107952
4.071593
4.198551
3.996491
4.218817
3.569722
4.376769
4.671812
4.239678
4.031658
4.193783
4.012585
4.414916
4.395843
4.502535
4.397631
4.647970
4.092455
5.073547
4.274845
4.671812
4.306436
4.388690
4.706979
4.858971
4.561543
4.765987
4.768968
4.225969
4.034638
5.145669
4.400611
4.771948
5.111694
4.495978
5.270839
4.504919
5.344748
5.226731
5.322695
5.356669
5.401969
6.148815
5.694628
6.759763
7.026792
6.589890
7.319450
6.450415
6.582737
6.487966
6.281734
6.017685
5.755424
5.990863
5.069971
5.186796
5.392432
4.805923
5.496740
5.093813
4.800558
4.782677
5.413890
5.509853
##ZVALUE=230
7.997751
7.649660
10.930896
14.756918
19.350648
23.252964
25.396943
25.500655
27.109981
24.056435
17.872453
14.320612
9.561777
9.110570
7.928610
6.751418
8.488894
9.535551
7.990599
8.219481
7.987618
6.436706
6.220937
5.305409
4.765987
4.607439
4.675984
4.044771
3.901720
4.630685
3.712773
3.487468
4.181862
4.180670
4.314780
4.206896
3.863573
4.249811
4.216433
4.501939
4.248619
4.046559
4.356503
4.157424
4.372597
4.499555
5.216599
4.557967
5.086660
4.575849
4.266500
4.457831
4.458427
5.220771
4.359484
5.075932
4.863739
4.658699
4.937649
5.221963
4.982948
4.914999
5.171895
4.993677
5.174875
5.364418
5.330443
5.355477
6.285906
6.204844
6.362796
6.210804
6.683469
7.338524
7.153749
7.340908
7.286668
7.892847
7.858872
7.656813
8.190870
7.290840
6.288886
6.587505
6.730556
5.624890
5.790591
5.659461
5.608797
5.178452
5.398989
6.152987
5.829930
6.107688
5.568862
6.193519
##ZVALUE=235
4.435778
4.564524
6.256700
10.262728
15.074611
24.051666
31.365752
42.635798
48.834682
52.793622
52.638650
43.842793
36.542416
24.325848
18.355846
12.088418
9.962916
9.110570
10.241866
11.039972
11.867881
12.474656
11.743903
9.884834
8.146763
6.368756
5.687475
4.981756
4.648566
4.257560
4.168749
4.362464
4.248619
5.026460
5.064607
4.726648
4.648566
4.605651
4.659891
4.338622
3.905892
4.630685
4.669428
5.044937
5.087852
5.179644
5.203485
4.596710
5.067587
5.115867
4.816651
4.832745
4.912615
4.992485
5.550981
4.745722
4.841685
5.226731
5.393624
5.306602
5.110502
4.849434
5.506873
6.238818
5.881786
6.131530
5.894899
6.281734
6.345510
6.215572
6.347895
6.322861
7.604957
7.310510
7.243752
8.287430
8.501410
7.479787
7.532835
8.035898
7.886887
8.193851
8.633733
7.268786
7.168651
8.143783
6.616712
6.845593
6.950498
6.507635
7.021427
5.694628
6.170869
7.148981
6.675720
6.481409
##ZVALUE=240
3.330708
3.810525
3.415942
4.189610
7.377863
10.198951
19.427538
29.219985
47.792792
61.147809
74.061751
82.723498
83.757639
75.601935
63.165426
44.269562
33.070445
20.770431
13.714433
10.910630
11.982918
13.777614
14.208555
14.992952
15.157461
13.972521
11.147857
9.789467
8.010864
5.950928
5.539656
4.402995
5.399585
4.726648
4.533529
4.826784
4.410744
4.369617
4.938841
4.410744
4.388690
4.518628
4.590750
4.707575
4.765987
4.976988
4.630685
4.358888
4.496574
4.680753
4.625916
4.847646
5.264878
4.544854
4.789829
5.219579
4.968643
4.869699
5.248785
5.407929
4.978776
4.987717
5.863905
5.221963
5.207658
5.781651
5.638599
5.671978
5.537868
5.890727
6.320477
6.919503
6.768703
7.866621
7.720590
7.840991
7.514954
8.327961
8.306503
7.973909
9.081960
8.139610
7.668734
7.816553
7.628798
7.192492
7.712841
7.200837
7.033944
6.902814
7.164478
6.289482
6.640553
6.294847
6.219745
6.160736
##ZVALUE=245
2.929568
2.991557
2.845526
2.803802
3.207922
4.081726
5.990863
9.467602
19.660592
31.041503
48.612952
71.377754
87.664723
105.190873
108.378530
102.552772
90.394616
70.308447
49.746633
29.887557
18.123984
12.778640
11.864901
13.998747
15.667677
15.985966
17.435551
15.808940
15.270710
13.195872
10.631680
8.933544
7.106662
5.314946
5.244613
4.960895
4.799962
4.411936
4.421473
3.908873
4.037619
4.220605
4.268885
4.820824
3.724694
4.001856
4.257560
4.221797
4.103780
4.143715
4.064441
4.059672
3.915429
4.237890
4.146695
4.127622
4.217625
4.221797
4.777908
4.379749
4.730821
4.502535
4.564524
5.127788
5.030632
5.495548
4.718900
4.794598
5.731583
5.710721
5.486608
6.416440
6.606579
6.179810
6.972551
6.814599
7.630587
7.507801
7.208586
7.485747
6.700754
6.630421
7.041693
7.378459
6.612539
7.018447
6.390810
6.768703
6.466508
6.021857
5.729795
6.842613
5.865693
6.215572
6.118417
6.211996
##ZVALUE=250
3.087521
2.773404
2.583861
2.738833
3.241897
3.090501
2.772808
3.509521
4.910827
8.812547
15.452504
29.464960
44.582486
73.386431
93.687773
119.863749
127.944946
131.040812
121.244788
94.673634
75.244904
44.780970
26.545525
14.007688
11.036992
12.308955
14.468431
17.572641
18.973947
18.704534
20.100474
16.462803
13.298988
11.013746
8.764863
6.048679
5.469918
4.708767
4.598498
4.497766
4.312992
3.589988
4.205704
3.758669
4.381537
4.063845
3.962517
3.841519
3.961921
3.659725
3.945827
4.073977
3.687739
4.175901
3.959537
3.992915
4.260540
4.030466
4.116893
3.791451
3.987551
4.194975
4.165769
4.369617
3.841519
4.768968
4.443526
4.445910
4.374981
4.710555
5.006790
4.600883
5.350709
5.560517
6.106496
5.893707
6.457567
6.416440
6.396770
6.569624
6.474853
6.103516
6.466508
6.056428
5.788803
6.470680
6.169677
5.190969
5.564690
5.776882
5.582571
6.309748
5.465746
5.896688
5.654693
5.543828
##ZVALUE=255
2.188683
2.220869
2.214909
2.584457
2.195835
2.169609
2.303720
2.089739
2.307892
2.653599
3.570914
7.146597
11.784434
24.846792
38.399696
66.475868
90.359449
124.243498
143.972635
155.191422
150.068998
134.839416
97.400546
67.355633
35.010576
19.966960
10.746717
9.967685
12.302995
16.249418
18.426776
19.231439
19.659996
18.575788
16.866922
13.634562
10.297894
7.138848
5.370975
4.228950
3.450513
3.315806
3.512502
3.067851
3.326535
3.095865
3.138781
3.083944
3.242493
3.363490
2.910495
3.474951
3.738999
3.264546
3.638864
3.525615
3.204942
3.157854
3.192425
3.749728
3.174543
3.203750
3.502965
3.367662
3.473759
3.984571
3.894567
3.760457
3.891587
4.246831
3.816485
4.080534
4.698634
4.624724
4.880428
5.093813
5.089641
5.112886
5.289912
5.190969
4.923940
5.563498
4.913807
4.684925
4.905462
4.947782
4.944801
4.710555
4.703999
5.041957
5.136728
4.722476
5.072951
4.608631
4.521608
4.588962
##ZVALUE=260
2.142787
2.202988
2.275705
2.392530
2.156496
2.063513
2.037883
2.208948
2.250671
2.203584
2.058744
2.195835
2.584457
4.764795
8.936524
19.002557
30.837655
57.460666
82.159638
125.746727
159.228444
184.669495
188.262463
175.629854
135.196447
96.500516
58.170557
35.969615
15.328526
9.373426
9.173751
11.511445
17.840862
17.939806
18.988848
21.247864
18.763542
16.647577
13.207793
10.157824
6.757975
4.912615
3.833771
3.101826
2.912879
2.877712
3.152490
2.953410
2.999902
2.946854
2.885461
2.593994
2.663732
2.934933
3.427863
3.255606
2.997518
2.855659
3.241897
3.141761
3.074408
3.303885
3.388524
3.374815
3.292561
3.482699
3.123879
3.139973
3.141761
3.729463
3.656745
3.543496
3.706813
4.305840
3.766418
4.385710
4.109740
4.185438
4.455447
4.851818
4.367828
4.431605
4.395843
4.171729
4.346967
4.184842
4.385710
3.987551
4.425645
4.473925
4.588962
4.341602
4.110932
4.347563
4.133582
4.757643
##ZVALUE=265
1.909733
1.964569
1.887679
1.930594
1.754761
1.911521
1.914501
1.998544
1.881719
1.908541
1.851916
1.940727
2.026558
2.215505
2.218485
3.829598
6.648898
14.894605
26.148558
52.187443
80.356598
112.747550
162.372589
196.857452
209.482908
197.847486
170.393586
128.889680
80.523491
50.386786
23.717880
11.759996
7.569790
9.356737
13.016462
16.079545
19.224882
20.961761
21.035671
18.695593
15.899539
13.349652
9.303689
6.981492
4.441738
3.762841
2.608895
2.760887
2.724528
2.386570
2.966523
2.681613
2.879500
2.746582
2.747774
2.693534
2.582669
2.701879
2.887845
2.907515
2.751946
2.951622
2.767444
2.686977
2.869964
3.002882
2.959967
2.947450
3.370643
3.228784
3.563762
3.410578
3.621578
3.478527
3.638864
3.922582
3.730655
3.803968
4.027486
3.602505
3.717542
3.531575
3.773570
3.597736
3.777742
3.264546
3.543496
3.963709
3.779531
3.337860
3.785491
3.670454
4.013777
3.795624
4.047751
3.876686
##ZVALUE=270
1.649857
1.559854
1.757741
1.671910
1.716614
1.565814
1.870990
1.744628
1.788735
1.903772
1.814961
1.786947
1.696944
1.738667
1.749992
1.649857
1.691580
2.566576
4.435778
10.320544
19.301772
35.200715
70.451498
103.789568
151.263475
183.324814
208.814740
205.972791
180.579424
147.274733
96.895695
62.720776
34.601688
13.704896
7.402897
7.028580
9.263754
12.717843
15.707612
20.451546
21.011829
21.307468
20.209551
16.698837
13.240576
9.102821
6.903410
4.540682
3.334880
2.727509
2.487898
2.747774
2.671480
2.455711
2.497435
2.584457
2.550483
2.461672
2.775788
2.671480
2.446771
2.692938
2.727509
2.591610
2.810955
2.681613
2.567768
3.075600
2.808571
3.007650
2.828836
3.232956
3.617406
3.413558
3.414750
3.233552
3.479719
3.525615
3.891587
3.376603
3.531575
3.352761
3.480911
2.987981
3.277659
3.226995
3.219843
3.199577
3.584623
3.466606
3.551841
3.120899
3.429651
3.394485
3.372431
3.172755
##ZVALUE=275
1.449585
1.560450
1.307726
1.522899
1.485944
1.598597
1.528859
1.420975
1.691580
1.753569
1.609921
1.682639
1.724958
1.645684
1.560450
1.604557
1.671910
1.480579
1.641512
1.896620
2.791882
6.006956
16.020536
30.876994
61.678886
90.966821
137.060881
175.137520
215.239525
223.668814
217.903852
181.898475
140.487552
80.147982
48.034787
19.245744
9.179711
5.283952
6.716847
9.283423
12.151599
16.302466
19.774437
21.014810
21.593571
19.251704
16.478896
13.234615
9.925961
6.259680
4.651546
3.128648
2.840757
2.561808
2.564788
2.688766
2.250671
2.444983
2.534986
2.566576
2.608895
2.761483
2.459884
2.461672
2.695918
2.745986
2.614856
2.795458
2.775788
2.585649
2.992749
3.035665
3.071427
3.283620
3.034472
3.206730
3.523827
3.315806
3.246665
3.425479
3.278852
3.371835
3.118515
3.215671
2.979636
3.004670
3.271699
3.262758
3.294945
2.931952
3.137589
3.171563
3.053546
3.272891
2.859831
3.314614
##ZVALUE=280
1.340508
1.424551
1.486540
1.347661
1.415610
1.529455
1.352429
1.402497
1.370907
1.635551
1.443624
1.336932
1.496673
1.462698
1.408458
1.376867
1.506805
1.518726
1.501441
1.671910
1.627803
1.600981
2.189875
4.924536
13.265610
23.823977
47.591925
74.560642
119.719505
158.351660
199.038982
231.433511
234.877467
204.446912
163.647532
99.517703
62.584877
28.174520
13.329983
5.372763
4.600883
7.064939
9.022951
13.505816
15.910864
20.042658
21.117926
21.620989
19.434690
15.900731
13.235807
8.940697
6.927848
4.582405
3.636479
2.624989
2.401471
2.411604
2.481937
2.496839
2.574921
2.540946
2.566576
2.452731
2.520680
2.535582
2.396703
2.518892
2.832413
2.533793
2.847910
2.797842
2.624989
2.928972
3.096461
3.032684
3.050566
2.892613
3.320575
2.915859
3.131628
2.959967
2.799630
3.009439
3.059506
2.783537
2.966523
2.760887
2.846718
3.165603
2.987981
3.097653
2.945662
2.668500
2.812743
2.949834
##ZVALUE=285
1.377463
1.297593
1.206994
1.285672
1.367927
1.350641
1.350641
1.373887
1.406670
1.385808
1.466870
1.520514
1.437664
1.508594
1.480579
1.340508
1.398921
1.472831
1.295805
1.260638
1.245737
1.373887
1.250505
1.336932
1.767874
3.306866
7.032752
13.546944
31.442642
54.657459
95.772743
133.175850
189.000964
227.383971
244.440436
234.825611
193.062425
144.011974
82.392693
49.609542
19.881725
8.880496
4.436970
4.386902
6.357431
8.746982
12.402534
15.671849
19.642711
19.851923
20.335913
19.755960
16.396642
13.478994
9.871721
6.913543
4.616976
3.265738
2.691746
2.517700
2.482533
2.159476
2.516508
2.398491
2.314448
2.597570
2.637506
2.530813
2.722740
2.625585
2.754927
2.816916
2.625585
2.823472
2.868772
2.874732
2.901554
2.520680
2.966523
2.814531
2.764463
2.692938
2.933741
2.833605
2.877712
2.719760
2.836585
2.616644
2.761483
2.783537
2.893806
2.914667
2.772808
2.805591
2.760887
2.737641
##ZVALUE=290
1.351833
1.139641
1.266599
1.283884
1.132488
1.304746
1.269579
1.315475
1.239777
1.225471
1.196861
1.285672
1.412630
1.282692
1.462698
1.322627
1.232624
1.378655
1.155734
1.228452
1.333952
1.275539
1.418591
1.457930
1.405478
1.400709
1.533628
2.086759
4.186630
11.426806
20.465851
46.062469
75.600743
126.924515
168.628693
225.808620
252.129436
250.991583
227.219462
169.801712
118.123889
62.341690
32.718778
11.962652
5.121827
3.516674
4.506707
6.098747
8.672476
11.998415
14.817715
18.467903
20.089746
20.215511
19.576550
15.912652
12.757778
9.292960
6.506443
4.506707
3.260970
2.612472
2.510548
2.610683
2.302527
2.429485
2.556443
2.275705
2.431870
2.389550
2.457500
2.589822
2.708435
2.786517
2.722740
2.897978
2.920628
2.881885
2.868772
2.654791
2.902746
2.591610
2.709627
2.755523
2.610683
2.654791
2.625585
2.701879
2.768636
2.659559
2.619624
2.658963
2.691746
2.751946
2.683997
2.814531
##ZVALUE=295
1.255870
1.333952
1.291633
1.225471
1.304746
1.279712
1.238585
1.398921
1.181960
1.183748
1.262426
1.101494
1.268983
1.162887
1.349449
1.319647
1.232624
1.362562
1.295805
1.349449
1.067519
1.450777
1.395941
1.331568
1.505613
1.451969
1.526475
1.531839
1.481771
1.533628
3.008842
6.561875
13.894439
34.730434
61.157942
110.390782
153.282881
214.294791
248.130560
262.631774
251.722932
201.299787
149.543881
80.363750
46.185851
17.740726
7.528663
3.441572
3.344417
4.399419
5.698800
8.388758
11.064410
14.694929
17.604828
19.604564
19.753575
18.321872
15.769601
12.178421
9.434819
6.325841
5.002618
3.216863
2.802610
2.401471
2.470613
2.381802
2.335906
2.500415
2.541542
2.649426
2.824664
2.842546
2.772808
2.677441
2.835989
2.799630
2.674460
2.932549
2.633929
2.605915
2.563596
2.536774
2.738833
2.698898
2.613664
2.597570
2.740622
2.525449
2.792478
2.551675
2.513528
2.486706
2.654791
2.576709
##ZVALUE=300
1.266599
1.131892
1.278520
1.259446
1.086593
1.167655
1.251698
1.096725
1.062751
1.135468
1.111627
1.061559
0.975728
1.222491
1.152754
1.140833
1.225471
1.285672
1.212955
1.122952
1.352429
1.404881
1.294613
1.161695
1.260638
1.245737
1.267791
1.363754
1.210570
1.176596
1.364946
1.223683
1.879930
3.929734
11.586547
22.511482
50.183535
83.550811
138.484836
181.250572
239.846706
267.802477
264.548659
240.528584
173.831582
118.572712
62.613487
33.821464
12.285709
4.980564
2.910495
2.983809
3.983974
5.054474
7.883906
10.173917
14.456511
16.941428
18.563867
19.201636
17.775893
15.983582
12.290478
9.702444
6.262660
4.488826
3.268719
2.806783
2.487898
2.578497
2.448559
2.727509
2.658963
2.504587
2.394915
2.504587
2.570748
2.350807
2.545714
2.588630
2.507567
2.755523
2.454519
2.455711
2.436638
2.591610
2.688766
2.512932
2.618432
2.659559
2.761483
2.588630
2.523661
2.634525
2.485514
2.350807
##ZVALUE=305
1.102686
1.004934
1.097918
1.178980
1.359582
0.928640
1.073480
1.105666
1.107454
1.153946
1.071692
1.079440
1.082420
1.201630
1.018643
0.972748
1.204610
1.018643
1.042485
1.021624
0.977516
1.146793
1.288652
1.132488
1.275539
1.240969
1.478791
1.302958
1.364946
1.306534
1.255870
1.311898
1.156926
1.253486
1.476407
2.680421
7.945895
16.731620
39.564967
66.744685
116.597414
161.929727
227.733850
265.384912
276.176929
260.617733
203.152895
150.999427
82.645416
46.322942
18.469691
7.218719
2.904534
2.799630
2.985597
3.909469
5.606413
7.149577
10.888577
13.490915
16.636848
17.927885
18.215775
17.179847
14.078617
11.868477
8.827448
6.576777
4.255772
3.248453
2.502799
2.453923
2.568960
2.641678
2.668500
2.334714
2.578497
2.577901
2.626777
2.756715
2.627969
2.526641
2.440810
2.416968
2.559423
2.436638
2.577901
2.651811
2.603531
2.539754
2.595782
2.182722
2.405643
2.564788
2.537966
2.511740
##ZVALUE=310
1.136661
1.158714
0.948906
0.817776
0.988841
1.043677
1.054406
1.091957
1.102686
1.102686
1.152754
0.973940
1.094937
1.005530
1.181960
1.131892
1.098514
1.134872
1.124740
0.899434
1.054406
1.062751
1.137853
1.119971
1.098514
1.083612
1.105666
1.285672
0.969768
1.106858
1.126528
1.286864
1.288652
1.226664
1.287460
1.224875
1.232624
1.852512
4.179478
11.964440
23.032427
51.318407
85.369945
144.593716
195.610523
259.372592
282.907486
279.918909
251.269937
182.287693
126.638412
64.729452
34.874678
12.407899
4.654527
2.449751
2.424717
2.954602
3.725886
5.022883
6.414652
9.851456
12.010932
14.874935
17.020702
17.787814
16.765594
14.319420
11.585951
8.332729
6.488562
4.586577
3.390908
2.840757
2.371669
2.360940
2.317429
2.496839
2.586842
2.627969
2.554655
2.441406
2.416968
2.340674
2.313852
2.203584
2.701879
2.361536
2.372861
2.538562
2.532601
2.342463
2.457500
2.439618
2.248883
2.518892
##ZVALUE=315
0.992417
1.068711
0.930429
1.015663
1.051426
0.977516
1.203418
1.005530
1.123548
0.907779
0.892878
1.050830
1.131892
0.934601
1.030564
0.932813
0.783801
1.067519
1.064539
1.092553
1.068711
0.990629
1.011491
1.059771
1.100898
1.113415
1.051426
0.943542
1.023412
1.215935
0.911951
1.065731
1.111627
1.081824
0.965595
1.074672
1.253486
1.319647
1.319647
1.525879
2.478957
7.670522
16.692877
39.924979
69.921613
127.503872
174.553990
236.253738
275.583863
290.870667
273.759961
217.888951
159.600973
89.374781
48.872828
17.100573
6.917715
2.827644
2.390742
2.421737
2.841949
3.520846
4.508495
6.782413
9.150505
12.142658
14.264584
16.566515
16.528964
15.272498
13.498664
11.110902
8.886456
5.950928
4.640818
3.287792
2.701879
2.491474
2.421737
2.274513
2.482533
2.309680
2.200603
2.399683
2.309680
2.436638
2.549887
2.296567
2.324581
2.381802
2.331734
2.446771
2.382994
2.547503
2.516508
2.287626
##ZVALUE=320
0.863671
0.957847
0.961423
0.940561
0.846982
0.909567
0.876784
0.815988
1.066923
0.926852
0.991821
1.082420
0.968575
0.840425
1.049638
0.977516
0.975728
1.004934
1.053810
0.982881
0.996590
1.007915
1.095533
0.976920
0.963807
1.101494
0.964999
0.901818
0.977516
1.154542
1.011491
1.038909
0.979900
1.009703
0.917912
1.024604
1.027584
1.011491
1.130700
1.119971
1.140833
1.210570
1.710653
4.835725
11.590719
30.537844
54.020882
98.342896
142.671466
212.957859
261.612535
298.574567
296.798944
255.582929
199.512839
116.239786
66.105723
27.499795
11.972785
3.574491
2.494454
2.220869
2.329946
2.588630
2.976656
4.483461
5.920529
8.460879
10.717511
13.813972
15.056729
15.678406
15.027523
12.804866
11.018515
7.844567
5.949736
4.245639
3.334880
2.713799
2.340674
2.234578
2.236962
2.208948
2.200603
2.446771
2.393723
2.186894
2.252460
2.494454
2.379417
2.268553
2.492666
2.138615
2.197623
2.224445
##ZVALUE=325
0.984669
1.035929
0.913739
0.869632
0.869632
1.110435
0.802875
0.893474
0.961423
0.941753
1.000762
1.002550
0.915527
0.850558
0.782609
0.880957
0.950694
0.917912
0.952482
1.010895
1.003742
1.121759
0.913739
1.055598
1.064539
0.910759
0.968575
0.982881
0.833869
1.167655
0.983477
1.050830
0.917912
1.007915
0.873804
0.915527
0.953674
0.963807
1.070499
0.914931
0.971556
1.115799
1.174808
1.021624
1.298785
3.595948
8.044839
22.202730
40.246844
79.707503
123.206973
189.095736
242.455006
295.800567
307.001472
276.746750
224.424601
142.007470
86.947680
38.636923
17.296672
5.079508
2.642870
2.327561
2.136827
2.321601
2.410412
3.153682
4.193783
6.156564
7.948875
11.103749
12.746453
14.675856
14.725924
14.204979
12.609959
9.876490
7.433891
5.330443
4.064441
3.144741
2.473593
2.531409
2.388954
2.172589
2.106428
2.354980
2.164841
2.407432
2.156496
2.144575
2.342463
2.379417
2.379417
2.321601
##ZVALUE=330
0.847578
0.895858
1.003742
1.082420
0.933409
0.977516
0.965595
0.762939
0.838637
0.982881
0.933409
0.911951
1.044869
1.012683
0.980496
0.857711
1.053810
0.883937
0.985861
1.031756
0.919700
0.935793
0.936985
0.919700
1.045465
1.008511
0.943542
0.889897
1.052618
0.975728
0.862479
0.868440
0.922680
0.922680
0.942945
1.011491
0.963807
1.110435
1.073480
1.114607
1.005530
0.995994
1.038909
1.081824
1.103878
1.272559
1.330972
1.936555
5.051494
14.455914
27.737617
61.058998
98.342896
168.289542
225.797892
295.647979
318.730474
301.960707
258.237720
173.893571
113.076568
51.979423
25.320649
8.327961
3.293753
2.195835
2.110600
2.169609
2.313852
2.526641
3.057718
4.100800
5.719662
8.240938
10.346770
12.368560
13.712645
13.952851
13.060570
11.173487
9.329915
6.791949
5.047917
4.107952
2.986789
2.684593
2.517700
2.395511
2.415776
2.245903
2.400875
2.149940
2.454519
2.385974
2.412796
2.221465
##ZVALUE=335
0.799894
0.840425
0.883937
0.926852
0.913739
0.881553
0.907779
0.683665
0.801682
0.872612
0.763535
0.746846
0.670552
0.821948
0.904799
0.873804
0.738502
0.903606
0.960827
0.907779
0.840425
0.987649
0.790954
0.903606
0.932813
0.947714
0.818968
0.814795
0.895858
0.818968
0.984669
0.795722
0.878572
1.002550
0.880957
1.152754
1.002550
1.011491
1.054406
1.015663
1.020432
0.949502
0.985861
0.957847
0.997782
0.961423
1.030564
1.113415
1.097918
1.453757
3.000498
9.197593
19.029975
44.014454
77.319741
139.659643
195.361972
264.361501
303.790569
309.415460
279.271603
205.628872
142.054558
72.581768
37.591457
12.706518
4.835725
2.217889
2.208948
2.104640
2.076626
2.004504
2.414584
3.052950
3.939867
5.666614
7.586479
9.918809
11.573434
13.026595
13.203621
11.928678
10.442734
8.381605
7.069707
4.853606
4.071593
3.297925
2.834797
2.526641
2.431870
2.103448
2.313852
2.247691
2.278686
2.085567
##ZVALUE=340
0.836849
0.728965
0.752807
0.841618
0.936985
0.729561
0.981688
0.782609
0.782609
0.934601
0.770688
0.755787
0.711679
0.887513
0.668764
0.829697
0.799894
0.874996
0.799894
0.742674
0.728965
0.702739
0.895858
0.816584
0.759959
0.951886
0.931621
0.698566
0.828505
0.905991
0.891685
0.859499
0.986457
0.767708
0.922680
0.902414
0.781417
0.934601
0.856519
0.928640
0.807643
0.870824
0.948906
0.917912
0.762939
1.070499
0.907779
0.885725
0.932813
0.904799
1.068711
1.084805
1.780987
5.892515
13.187528
34.403801
60.393810
111.336708
160.588622
233.022571
278.281569
306.790471
291.131735
236.711502
173.617601
91.157556
49.204826
19.060969
7.170439
2.504587
2.076626
1.939535
2.029538
1.908541
2.160668
2.409816
2.762675
3.935695
5.396605
7.590652
9.278655
11.332631
12.192726
12.244582
11.802912
10.486841
8.677840
6.513000
5.127788
3.925562
3.198981
2.597570
2.287626
2.027750
2.056956
2.092719
##ZVALUE=345
0.798702
0.680685
0.678897
0.615716
0.652671
0.818968
0.815988
0.771880
0.801682
0.611544
0.670552
0.757575
0.916719
0.662804
0.713468
0.679493
0.748634
0.823736
0.678897
0.735521
0.700951
0.764728
0.756979
0.865459
0.779629
0.801682
0.614524
0.754595
0.560880
0.687838
0.764728
0.661612
0.805855
0.817776
0.840425
0.787973
0.770688
0.824928
0.900626
0.860691
0.686646
0.873804
0.879765
0.772476
0.763535
0.934601
0.897646
0.973940
0.917912
0.886917
0.912547
0.835657
0.851750
0.927448
1.280904
3.482699
8.704662
23.641586
43.963790
85.542798
127.592683
199.222565
250.593424
293.810964
296.874642
255.422592
202.065706
123.177767
69.192648
25.942922
11.167526
3.332496
2.201796
2.198815
1.881719
1.979470
1.835823
1.894832
2.214909
2.758503
3.620982
5.128980
6.591678
8.799434
9.978414
11.428595
11.419654
11.159778
10.172725
8.446574
6.960630
4.979968
3.972650
2.754927
2.476573
2.167821
##ZVALUE=350
0.692606
0.691414
0.844598
0.815988
0.778437
0.709891
0.778437
0.962615
0.822544
0.733733
0.826716
0.673532
0.705719
0.750422
0.821948
0.770688
0.703931
0.749826
0.694990
0.715852
0.698566
0.757575
0.895858
0.756979
0.785589
0.796914
0.654459
0.775456
0.922680
0.854731
0.740886
0.894666
0.835657
0.990629
0.804663
0.808835
0.867844
0.674725
0.717640
0.834465
0.775456
0.947714
0.839829
0.860691
0.862479
0.874996
0.976920
0.780821
0.769496
0.858903
0.913739
0.706911
0.878572
0.909567
0.910759
0.875592
1.023412
2.132654
5.553961
16.280413
31.519532
67.563653
104.821920
165.373683
219.473839
280.769467
300.910473
281.145573
235.180855
153.083801
92.302561
38.952827
16.818643
4.601479
2.308488
2.007484
2.090931
1.958609
1.939535
1.700521
1.846552
2.056956
2.447963
3.527999
4.374981
5.976558
7.429719
9.249449
10.228753
10.742545
10.560751
9.446740
8.271933
6.642938
5.148649
3.951788
##ZVALUE=355
0.525713
0.652671
0.612736
0.425577
0.591874
0.717640
0.580549
0.640750
0.606775
0.692606
0.559688
0.499487
0.521541
0.583529
0.580549
0.656843
0.620484
0.597835
0.691414
0.578761
0.575781
0.646710
0.528693
0.721812
0.548959
0.578761
0.508428
0.654459
0.701547
0.702739
0.667572
0.696778
0.626445
0.485778
0.596642
0.528693
0.572801
0.589490
0.660419
0.744462
0.681877
0.681877
0.591874
0.730753
0.620484
0.581741
0.561476
0.503659
0.775456
0.712872
0.687838
0.727773
0.814795
0.721812
0.779629
0.705719
0.815988
0.805855
0.925660
1.431704
3.199577
10.543466
21.784902
49.088001
81.810951
141.238570
189.726949
250.503421
284.030437
281.503797
249.988437
176.373720
114.420652
51.274896
23.034811
6.262660
2.482533
1.798868
1.594424
1.493692
1.563430
1.698732
1.546741
1.732707
1.991987
2.066493
2.713799
3.706813
4.944801
6.597638
7.589459
9.463429
9.726882
9.556413
8.978844
7.441640
##ZVALUE=360
0.641942
0.588894
0.580549
0.620484
0.519753
0.565648
0.561476
0.616908
0.645518
0.572801
0.612736
0.673532
0.517964
0.631809
0.747442
0.649691
0.668764
0.629425
0.676513
0.807643
0.459552
0.760555
0.648499
0.671744
0.527501
0.742674
0.689626
0.587702
0.631809
0.723600
0.738502
0.700951
0.552535
0.698566
0.656843
0.638962
0.740886
0.466704
0.621676
0.779629
0.613928
0.737906
0.789762
0.575781
0.547767
0.670552
0.663996
0.670552
0.735521
0.494719
0.551939
0.727773
0.635982
0.834465
0.768900
0.684857
0.824928
0.852942
0.788569
0.778437
1.021624
1.068711
1.991987
5.116463
15.442967
30.473471
63.888431
102.078915
167.003870
217.143893
268.338919
280.045867
254.732966
210.984945
131.714940
79.825521
32.165647
13.138652
3.339648
1.752973
1.661777
1.531839
1.648664
1.586676
1.575947
1.538992
1.485944
1.782775
1.912713
2.360940
3.343821
4.096627
5.932450
7.255673
8.579493
8.853674
##ZVALUE=365
0.679493
0.673532
0.775456
0.801682
0.721812
0.693798
0.671744
0.882745
0.704527
0.787973
0.716448
0.663996
0.765920
0.744462
0.727773
0.603795
0.791550
0.663996
0.758767
0.638962
0.649691
0.588894
0.570416
0.711679
0.969768
0.813603
0.687838
0.717640
0.587702
0.638962
0.659823
0.690818
0.619888
0.735521
0.558496
0.832677
0.855923
0.770688
0.726581
0.702739
0.655651
0.957847
0.729561
0.928640
0.659823
0.711679
0.704527
0.767708
0.737906
0.731945
0.741482
0.738502
0.855923
0.782609
0.698566
0.977516
0.808835
0.749826
0.868440
0.818968
0.864863
1.074672
1.071692
1.054406
1.419783
3.117919
9.287596
20.407438
49.039721
82.790852
140.143633
185.195804
242.011547
269.304514
265.748501
232.837796
159.533620
101.319551
43.942928
19.859672
4.944801
2.226830
1.802444
1.596808
1.659989
1.541972
1.725554
1.631975
1.608729
1.525879
1.775622
1.798868
2.424717
2.988577
4.188418
5.191565
##ZVALUE=370
0.713468
0.616908
0.736713
0.747442
0.705719
0.545979
0.645518
0.502467
0.601411
0.738502
0.853539
0.682473
0.614524
0.678897
0.742674
0.699759
0.841618
0.680685
0.633597
0.693798
0.641942
0.691414
0.640750
0.696778
0.804663
0.754595
0.756979
0.757575
0.664592
0.708699
0.698566
0.653863
0.647902
0.654459
0.749826
0.788569
0.713468
0.593662
0.716448
0.708699
0.655651
0.670552
0.829697
0.827909
0.872612
0.727773
0.822544
0.951886
0.736713
0.633597
0.751615
0.564456
0.684857
0.679493
0.899434
0.696778
0.850558
0.760555
0.954866
0.901818
0.943542
0.847578
0.835657
0.995994
1.047850
0.983477
1.091957
2.006888
5.491972
16.576648
33.044815
68.131685
106.843710
169.831514
218.692422
262.700915
265.935659
235.607624
186.148882
108.204484
60.662627
23.199916
9.912848
3.109574
1.898408
1.576543
1.492500
1.602769
1.444817
1.628995
1.693964
1.511574
1.560450
1.654625
1.772642
2.146959
##ZVALUE=375
0.700951
0.789762
0.756979
0.554919
0.776649
0.565648
0.590682
0.660419
0.720620
0.783801
0.624657
0.694990
0.790954
0.752807
0.648499
0.756979
0.632405
0.736713
0.775456
0.748634
0.779629
0.717640
0.558496
0.778437
0.674725
0.607967
0.643730
0.763535
0.664592
0.696778
0.719428
0.735521
0.656843
0.727773
0.573993
0.683665
0.653863
0.756979
0.628829
0.721812
0.567436
0.785589
0.820756
0.668764
0.749826
0.679493
0.821948
0.619888
0.843406
0.706911
0.710487
0.662804
0.820756
0.567436
0.645518
0.669956
0.697970
0.834465
0.703931
0.771880
0.848770
0.859499
0.746846
0.844598
0.867844
0.755787
0.831485
0.999570
0.902414
1.535416
3.068447
10.177493
22.071600
52.280426
87.037683
145.628452
193.480849
246.382952
264.150500
251.324773
211.431980
136.585832
87.713599
41.915774
20.639896
5.578995
2.203584
1.437664
1.558661
1.535416
1.343489
1.587868
1.414418
1.423955
1.396537
1.460910
##ZVALUE=380
0.590682
0.532866
0.571609
0.584722
0.722408
0.645518
0.786781
0.711679
0.622869
0.680685
0.690818
0.470877
0.805855
0.551939
0.693798
0.679493
0.562668
0.633597
0.655651
0.634789
0.686646
0.576973
0.653863
0.686646
0.561476
0.663996
0.670552
0.672936
0.663996
0.566840
0.501871
0.607967
0.715852
0.738502
0.656843
0.723600
0.695586
0.728965
0.656843
0.565648
0.572801
0.697970
0.710487
0.809431
0.659823
0.617504
0.611544
0.621676
0.613928
0.750422
0.655651
0.716448
0.715852
0.755787
0.751615
0.701547
0.852942
0.734925
0.703931
0.786781
0.711679
0.811815
0.751615
0.715852
0.722408
0.867844
0.868440
0.760555
0.873804
0.858903
0.924468
1.064539
2.140999
7.484555
16.951561
41.403770
72.407722
123.554468
172.317624
233.025551
261.534452
256.844759
226.550698
167.615414
114.723444
55.872798
28.523803
9.397864
3.777742
1.554489
1.375675
1.278520
1.373887
1.448989
1.533628
1.198649
##ZVALUE=385
0.398755
0.464916
0.422597
0.483990
0.354648
0.412464
0.526905
0.492930
0.479817
0.493526
0.407696
0.334978
0.431538
0.493526
0.419617
0.469685
0.573993
0.511408
0.389814
0.521541
0.608563
0.388622
0.495911
0.554919
0.473857
0.288486
0.588894
0.542998
0.471473
0.440478
0.461936
0.629425
0.368953
0.412464
0.515580
0.609756
0.396967
0.374913
0.511408
0.542998
0.386834
0.468493
0.373721
0.500679
0.404716
0.528693
0.459552
0.419617
0.428557
0.497699
0.578761
0.434518
0.618696
0.533462
0.468493
0.437498
0.594854
0.585914
0.458956
0.450611
0.555515
0.507832
0.528693
0.596642
0.515580
0.616908
0.546575
0.507832
0.453591
0.502467
0.684857
0.659823
0.636578
0.617504
1.334548
3.485680
11.516809
24.793744
58.042407
95.615983
158.284903
202.478766
244.623423
258.075595
238.946676
201.430917
135.109425
85.679889
38.590431
18.393993
5.455613
1.958609
1.210570
1.169443
0.957847
1.122952
##ZVALUE=390
0.697970
0.675917
0.648499
0.570416
0.602603
0.621676
0.588894
0.598431
0.633597
0.608563
0.534654
0.534654
0.676513
0.694990
0.597835
0.666976
0.607967
0.619888
0.618696
0.710487
0.686646
0.708699
0.760555
0.641942
0.739694
0.658631
0.585914
0.587702
0.566840
0.682473
0.598431
0.707507
0.681877
0.706911
0.667572
0.706911
0.729561
0.582933
0.696778
0.685453
0.578761
0.669956
0.617504
0.687838
0.705719
0.733733
0.794530
0.560880
0.716448
0.669956
0.688434
0.630617
0.692606
0.825524
0.605583
0.558496
0.555515
0.625849
0.521541
0.608563
0.654459
0.605583
0.815988
0.802875
0.620484
0.681877
0.614524
0.604987
0.799894
0.712872
0.885725
0.848770
0.943542
0.893474
1.014471
1.092553
1.053810
2.505779
8.038878
18.906593
46.677589
77.896714
128.691792
173.324943
230.642557
259.974599
257.988572
231.332779
167.890787
114.291906
58.649778
29.220581
9.509921
3.528595
1.605749
1.455545
##ZVALUE=395
0.656843
0.552535
0.655651
0.761747
0.748634
0.686646
0.802875
0.698566
0.704527
0.663996
0.717640
0.780821
0.670552
0.668764
0.704527
0.805855
0.717640
0.884533
0.728965
0.783801
0.585914
0.575781
0.588894
0.660419
0.715852
0.753999
0.814795
0.713468
0.641942
0.771880
0.598431
0.692606
0.658631
0.660419
0.611544
0.580549
0.700951
0.723600
0.815988
0.637770
0.883937
0.608563
0.762939
0.723600
0.663996
0.487566
0.648499
0.832677
0.625849
0.850558
0.754595
0.757575
0.788569
0.890493
0.703931
0.734925
0.733733
0.831485
0.708699
0.756979
0.709891
0.692606
0.832677
0.746846
0.709891
0.860691
0.802875
0.886917
0.928640
1.111627
0.919700
0.768900
0.866652
0.854731
0.906587
0.782609
0.962615
0.884533
0.985861
1.421571
5.699992
13.361573
32.157898
57.555437
105.708838
151.810646
214.143991
250.552893
269.247890
256.000757
202.135444
145.534873
76.630712
40.247440
14.259815
5.685687
##ZVALUE=400
0.725985
0.752807
0.703931
0.521541
0.506639
0.574589
0.483990
0.645518
0.654459
0.566840
0.685453
0.594854
0.803471
0.657439
0.593662
0.461936
0.688434
0.705719
0.655651
0.643730
0.654459
0.682473
0.729561
0.647902
0.673532
0.642538
0.667572
0.481606
0.741482
0.675917
0.736713
0.609756
0.770688
0.719428
0.577569
0.770688
0.751615
0.704527
0.661612
0.727773
0.627637
0.747442
0.583529
0.699759
0.652671
0.604987
0.505447
0.715852
0.716448
0.792742
0.794530
0.809431
0.693798
0.606775
0.778437
0.678897
0.673532
0.680685
0.702739
0.768900
0.708699
0.647902
0.621676
0.609756
0.640750
0.853539
0.681877
0.797510
0.838637
0.908971
0.897646
0.798702
0.825524
0.843406
0.757575
0.717640
0.929832
0.907779
0.845790
0.711679
0.844598
1.126528
2.890825
9.475946
20.383000
46.955943
78.912973
135.122538
182.501674
236.878991
265.659690
257.654786
227.125883
163.275003
109.153986
53.777695
##END
