##TITLE=QP00651
##FORMAT=SPECTACLE-ASCII V-1.2
##DATA TYPE=ULTRAVIOLET SPECTRUM
##SECOND TYPE=ULTRAVIOLET SPECTRUM
##DATE=03/05/18
##TIME=12:37:12
##SPECTROMETER/DATA SYSTEM=SPECTACLE
##XUNITS=NM EM
##YUNITS=ENERGY
##YFACTOR=1
##FIRSTX=220
##LASTX=410
##NPOINTS=96
##3DDATA=Equidistant
##ZUNITS=NM EX
##FIRSTZ=210
##LASTZ=400
##ZPOINTS=39
##XYDATA=(Y..Y)
##ZVALUE=210
2.370477
1.958609
2.460480
2.087951
2.487898
2.469420
2.165437
2.796650
2.858639
2.834797
2.302527
2.328753
3.119707
2.782941
2.633929
3.019571
2.989769
3.073812
3.656745
2.989769
3.595948
3.200769
4.022717
3.993511
4.104972
3.960729
4.258752
4.588962
4.601479
5.246997
4.667640
4.514456
5.521774
5.759597
5.067587
5.060434
5.598664
5.525947
6.156564
5.597472
5.174875
5.883574
5.890727
6.321669
6.160736
5.286932
7.256866
6.644726
6.274581
6.246567
6.697774
6.779432
7.425547
6.218553
6.999969
6.914735
6.801486
7.461905
7.248521
6.659627
7.557869
7.685423
5.882978
7.223487
8.030534
8.158684
8.809566
9.426475
11.248589
13.014674
14.751554
17.754436
17.999411
23.335814
23.805499
25.928617
24.614930
26.136637
24.242997
22.368431
21.170974
17.804503
16.151667
12.677908
11.358857
9.162426
8.789897
6.292462
6.320477
7.156730
6.411672
6.795526
6.610751
6.488562
6.932616
6.704926
##ZVALUE=215
11.782646
9.960532
7.168651
6.908774
6.007552
4.830956
4.934669
5.513430
5.477667
5.260706
5.280972
5.495548
4.750490
3.634691
2.961755
3.288984
2.811551
2.974868
3.227592
3.467798
3.416538
3.461838
4.036427
4.019737
3.838539
4.499555
4.551411
5.163550
4.743934
4.514456
5.470514
5.607605
5.908608
6.303787
5.545616
6.184578
5.927682
6.309748
5.821586
6.666780
6.439686
6.141663
6.088614
6.297827
6.346703
6.560683
6.327629
7.365942
6.433725
6.499887
6.120801
7.011890
6.738901
6.747842
6.814599
6.882548
7.687807
6.392598
7.383823
7.660985
6.503463
7.274747
7.865429
7.455945
7.074475
8.150935
8.220673
9.302497
9.987950
11.846423
14.163852
16.504526
16.384721
18.679500
19.085407
19.386411
20.278692
19.512773
20.215511
19.442439
16.070604
15.075803
13.463497
11.141896
11.360645
8.782744
7.822514
6.538630
6.261468
6.490946
6.732941
6.542802
6.788969
6.227493
6.038547
6.703734
##ZVALUE=220
45.376420
42.353868
44.690967
36.829710
31.435490
22.424459
16.676784
11.470914
11.504889
10.680556
10.639429
12.079477
12.207627
10.679960
10.051727
7.499456
5.917549
5.099773
3.486872
3.741980
3.511906
4.242659
3.558993
3.682971
3.907681
4.262924
4.120469
5.401969
5.277991
5.024672
5.220771
5.477667
6.008744
5.744696
6.206632
6.262660
6.083846
6.325841
5.756617
6.584525
6.765723
6.757975
6.422997
5.513430
6.320477
5.783439
6.261468
6.932616
7.036924
7.538795
7.520914
7.225871
7.008910
7.270575
7.033944
7.381439
7.748604
7.830858
7.616878
7.045865
7.850528
8.721948
8.265972
7.344484
8.174777
8.154511
9.216666
8.947849
11.208653
11.505485
12.811422
14.577508
16.709566
19.471645
20.655990
19.376874
20.885468
20.352602
20.000935
17.392635
16.202927
15.696883
14.578700
12.561679
10.724664
9.893775
8.569956
9.484887
8.577704
8.494854
7.505417
6.403923
7.087588
6.883740
7.252693
6.760955
##ZVALUE=225
77.995658
78.313947
101.800561
114.469528
115.188956
104.917884
88.635683
62.733889
47.667623
31.856894
27.349591
26.539564
24.196506
27.915835
26.272535
25.315881
20.959973
16.567707
13.028979
8.591413
7.618666
5.579591
4.256964
4.391670
5.220771
5.681515
5.452633
4.475713
5.910993
5.831718
5.617738
6.424785
5.974770
6.168485
6.847978
7.301569
7.341504
6.510615
6.805658
6.252527
6.697774
7.743835
7.633567
7.172823
6.920695
7.423759
7.036924
8.216500
7.076859
7.312894
7.008910
7.922649
8.410811
8.346438
8.191466
8.574724
8.956790
8.574724
8.619428
9.166598
8.872747
9.229779
8.969903
10.116696
10.154843
9.907484
10.904670
11.642575
10.669827
13.430715
15.160441
16.156435
19.623637
21.025538
22.748709
20.406842
21.109581
19.344687
18.322468
16.998649
15.523434
15.171766
14.497638
13.747811
12.036562
10.824800
10.320544
10.282993
9.854436
9.927750
8.876920
8.989573
8.742809
8.512735
9.566545
8.872747
##ZVALUE=230
73.739886
79.751611
119.700432
175.732970
213.623643
255.577564
255.716443
234.654546
206.854939
163.692832
105.193853
74.416995
57.238936
45.533776
46.918988
50.000548
53.720474
52.383542
47.134757
35.464764
30.865669
18.988848
13.022423
9.191632
7.253885
5.914569
5.476475
5.819798
5.963445
6.243587
6.980896
7.365942
7.317662
6.812811
6.217957
7.325411
7.580519
7.662773
6.724596
8.336902
8.581877
7.979870
7.687807
7.148981
6.855726
7.525682
7.617474
7.670522
8.298755
9.542704
9.559989
9.217858
9.452701
8.700490
9.162426
10.643601
9.813905
11.006594
9.634495
11.810660
11.330843
11.517406
10.337830
11.916757
12.018681
11.655688
12.094975
13.801455
15.152693
14.034510
17.158985
18.310547
21.122694
23.218989
23.838878
23.014545
24.569631
23.407936
20.887852
20.371675
17.808676
17.071962
16.553998
15.382767
13.763905
12.226701
12.916923
13.302565
12.126565
13.315678
12.982488
12.287498
12.672544
12.028813
12.411475
10.185838
##ZVALUE=235
26.879907
31.203628
63.886642
137.324929
212.542415
316.399932
390.150547
470.090508
483.592749
466.419458
392.674804
306.138992
202.812552
148.089528
103.962421
79.344511
72.701573
79.645514
85.896850
85.255504
81.602931
69.998503
53.792000
39.014816
25.902987
15.327930
11.107922
7.319450
6.288886
7.132888
5.730987
6.956458
6.652474
8.307695
7.340908
7.466674
7.689595
6.618500
7.230639
7.101893
8.235574
7.940531
8.088946
7.093549
6.406903
8.151531
8.081794
8.121729
9.283423
10.218620
9.801984
9.837747
10.439754
10.865927
10.348558
11.606812
11.060834
11.885762
12.295842
13.997555
15.372634
14.098883
14.936924
13.407469
13.950467
14.388561
14.901757
17.431974
17.733574
18.807650
19.162893
20.707846
23.638606
23.235679
24.444461
24.874806
23.858547
25.132895
24.147630
23.895502
22.903681
21.446943
20.625591
18.643737
15.537739
16.720891
17.690659
16.977787
15.994906
15.436411
17.723441
15.473962
16.275644
16.785860
16.390681
15.759468
##ZVALUE=240
2.405643
2.838969
11.423826
31.898618
88.223815
153.393745
277.497768
406.829715
564.223528
635.448694
679.202676
650.774837
583.242774
449.204445
343.822837
212.132931
152.390003
110.245943
96.971989
98.990798
107.407570
117.538571
110.709667
104.291439
79.387426
65.506697
44.350624
30.666590
19.213557
12.117624
8.623600
6.797910
6.470680
6.298423
6.848574
7.703900
7.623434
7.428527
7.689595
7.156730
7.936954
6.552935
7.341504
7.172823
7.674694
7.220507
7.431507
8.283854
8.709431
8.866787
9.407997
9.317994
10.402799
11.542439
11.696815
12.531877
12.119412
13.020635
14.643669
14.117956
14.965534
14.518499
16.308427
14.659762
15.714765
15.869737
16.733408
17.260909
18.795729
19.566417
20.460486
22.586584
24.048686
27.235746
26.579499
27.255416
27.499795
25.680661
25.809407
25.335550
23.237467
23.405552
22.476912
21.492839
20.218492
20.665526
18.878579
18.921494
19.228458
18.866658
18.246770
18.374920
18.659830
18.504858
16.407967
17.638803
##ZVALUE=245
1.845956
1.938939
2.011657
1.889467
6.809831
23.580790
72.287917
145.710707
291.091800
418.615937
613.883734
729.807019
809.551477
821.842551
760.856867
625.966787
478.879809
315.447450
216.078758
131.908655
104.774833
102.117658
113.480687
122.331977
129.122734
120.815635
106.883645
88.344812
67.951679
51.068664
37.014484
21.039844
13.667941
8.137822
7.479787
6.463528
7.026792
6.513596
6.604791
6.663799
5.997419
6.913543
6.260872
6.736517
6.876588
6.640553
6.836653
6.257892
7.682443
8.497834
8.660555
8.852482
9.620786
9.399652
10.061860
10.977983
11.534691
11.725426
11.283755
12.315512
12.795925
12.532473
14.414787
14.359951
15.118718
15.265942
15.046597
15.679598
17.038584
19.992590
21.154881
21.224618
23.217797
23.389459
25.506616
25.195479
26.094913
24.593472
23.989677
22.753477
21.314621
21.320581
20.560622
19.956827
20.830631
19.299984
19.540787
19.326806
18.301606
19.652843
18.527508
18.066764
18.496513
18.764734
17.281771
18.693805
##ZVALUE=250
1.566410
1.420975
1.789927
1.855493
2.009869
2.396703
3.562570
13.122559
55.228472
118.721724
258.575678
405.438542
559.966564
762.963891
867.256522
935.408473
884.037614
769.577622
626.942515
415.220857
267.889500
173.986554
107.293725
89.820623
106.914639
115.821958
129.084587
135.817528
126.110911
120.414495
101.996660
74.367523
57.466626
31.929612
20.961761
12.396574
10.020733
7.218719
6.201863
6.952882
7.079840
6.485581
6.594658
6.430745
6.642938
6.446838
6.742477
6.959438
6.951690
7.661581
8.208752
8.025765
8.468628
8.552670
9.159446
9.609461
9.040833
9.747744
10.025501
10.484457
10.575652
11.185408
11.190772
11.715889
12.109876
12.582541
13.008714
13.783574
14.369488
15.609860
16.874671
18.126965
18.979907
20.689964
21.725893
20.794868
20.945668
21.302700
21.035671
19.968748
19.965768
19.244552
18.484592
19.102693
17.892718
18.716455
17.010570
17.865896
17.154813
18.024445
17.523766
17.997622
16.920567
17.526746
16.984940
18.135905
##ZVALUE=255
1.417994
1.410842
1.525879
1.516938
1.648664
1.695752
1.691580
2.045631
2.438426
6.339550
33.395886
82.989931
165.638924
339.054465
499.148965
734.418035
873.560905
995.903015
1012.969613
907.274485
759.344697
576.979518
346.983671
220.410824
121.146441
91.283917
87.322593
101.618767
120.600462
135.837793
141.917467
136.118531
127.187967
98.692775
77.687502
51.962733
35.781860
22.245646
14.064908
8.476973
7.593632
7.340908
6.345510
7.262826
6.527901
6.710887
6.563663
6.375909
6.804466
6.641746
7.010698
7.107854
8.045435
8.029938
7.855892
7.712841
7.748604
8.162856
8.572936
9.322762
8.697510
9.565949
9.518862
9.822845
10.773540
9.963512
10.405779
11.877418
12.551546
13.001561
14.309883
15.708804
16.271472
17.698407
17.385483
17.086864
18.122792
18.303990
17.158985
17.951727
17.272830
17.234683
16.807914
16.068816
15.955567
16.563535
16.363859
16.166568
15.397668
15.365481
16.415715
17.206669
16.691685
16.866922
16.418695
15.823841
##ZVALUE=260
1.484752
1.337528
1.327991
1.667738
1.374483
1.616478
1.735687
1.730919
1.752973
1.811981
2.238750
3.543496
16.349554
48.349500
127.534866
248.502493
476.314425
655.516982
839.226842
1016.140580
1016.140580
1016.140580
920.780897
680.899024
479.998589
278.734565
178.387761
100.589991
80.214739
83.721876
104.169846
127.968788
140.793920
148.511529
144.981742
126.399994
107.084513
77.612996
56.670904
35.786629
22.986531
12.897849
9.361506
6.989837
6.469488
6.163716
6.731749
6.731749
6.750822
7.363558
6.743670
6.694794
7.181764
7.152557
7.301569
8.033514
7.543564
7.923841
8.282661
8.793473
8.475780
9.171963
9.132624
9.147525
9.532571
9.935498
9.859800
10.709763
11.541843
11.912584
11.815429
13.794899
14.343858
15.194416
15.444756
15.945435
16.323924
15.611649
15.560985
16.037822
16.058683
15.251637
15.454888
14.972687
14.591813
15.520453
15.857816
16.120672
15.174747
16.387701
15.115738
15.800595
15.145540
15.570521
15.424490
16.255975
##ZVALUE=265
1.055598
1.072884
1.298785
1.316667
1.434684
1.457930
1.552701
1.501441
1.845956
1.616478
1.991987
2.106428
1.961589
2.994537
6.977916
35.173893
88.455677
219.429731
371.295810
649.901628
859.276652
1015.149951
1016.140580
1016.140580
1009.680629
853.424668
607.589483
425.343513
226.873755
137.973428
80.287457
69.605708
78.759789
108.717680
128.488541
146.626830
151.254535
141.943693
127.560496
101.091862
81.134439
54.708719
37.045479
21.226406
13.665557
8.434653
7.665753
7.182956
6.794930
6.827712
7.408857
7.959604
7.495880
7.683635
7.558465
7.796884
8.283854
8.329749
8.542538
8.632541
8.594990
9.105802
9.036660
9.276867
9.231567
9.855628
9.860992
10.887980
10.714531
12.024641
12.687445
12.971759
13.965964
14.306903
14.471412
14.939904
14.359951
14.257431
14.277697
14.380813
13.699532
14.054775
13.910532
14.126897
14.340878
13.209581
13.814569
13.320446
14.941692
13.914704
14.007688
13.979673
13.696551
14.546514
14.466643
14.975667
##ZVALUE=270
1.168847
1.260638
1.148582
1.299977
1.112819
1.179576
1.289845
1.441836
1.417994
1.350641
1.524687
1.621842
1.480579
1.833439
1.982450
2.293587
3.531575
15.049577
48.751831
155.372620
295.230746
486.951470
802.908540
1001.717448
1016.140580
1016.140580
1016.140580
1015.616655
784.060955
568.145514
378.086567
197.100639
109.067559
60.626864
60.846806
83.380938
104.018450
131.899714
145.513415
151.580572
145.388842
127.704740
106.232762
78.015924
55.498481
34.095645
22.456646
13.826489
9.823442
7.506609
7.521510
7.265806
7.907748
8.214712
8.065701
8.285642
8.530617
8.501410
8.684993
9.150505
9.635687
9.737611
9.390712
8.733869
9.097457
9.846687
10.632873
10.521412
11.359453
11.732578
11.977553
12.361407
12.721419
14.134645
13.883710
13.259649
14.437437
13.409853
13.766885
13.313890
13.503432
13.684630
12.526512
13.303757
13.147593
13.539791
13.168454
13.005733
13.300776
12.403727
12.973547
13.272762
13.664961
13.381839
13.397932
13.861656
##ZVALUE=275
1.005530
1.010895
1.207590
1.240969
1.068711
1.163483
1.550913
1.203418
1.238585
1.310706
1.477599
1.351833
1.543760
1.640916
1.646876
1.935959
2.090931
1.916885
2.524853
7.422566
27.166605
81.013441
232.686996
417.679548
723.404884
941.940546
1016.140580
1016.140580
1016.140580
1016.140580
1006.531715
735.089779
510.982871
261.890888
149.251819
67.835450
49.285889
58.296919
76.877475
105.792880
127.125978
144.248605
147.616863
142.975450
129.643679
101.102591
80.284476
55.542588
39.275885
23.270845
15.969872
10.668635
9.041429
7.945895
8.611679
8.363724
8.728504
9.192824
9.743571
10.323524
9.789467
10.328889
10.055900
10.113716
10.465980
10.562539
10.854602
11.010766
11.567473
12.264848
12.543797
13.101697
13.636947
13.520718
14.596581
14.396906
13.925433
13.532639
13.852715
13.375878
13.606548
12.921691
13.051629
12.520552
13.047457
12.642741
12.757778
12.285709
12.772679
12.383461
12.632608
12.515783
12.576580
12.305975
12.765527
12.428761
##ZVALUE=280
0.867844
0.889897
0.927448
1.164675
1.136661
1.128912
1.188517
1.054406
1.241565
1.222491
1.235604
1.370907
1.244545
1.487732
1.340508
1.539588
1.701713
1.621842
1.966953
2.200603
2.374649
3.082752
17.718673
58.945417
177.291632
315.168500
561.063886
790.826678
1016.140580
1016.140580
1016.140580
1016.140580
1016.140580
885.045528
648.510456
360.692739
211.492777
91.543794
50.784945
41.288733
53.053498
79.113841
99.765658
123.961568
138.244629
144.480467
138.459802
123.107433
105.765462
76.255798
57.884455
37.602782
26.216507
15.647411
12.249947
10.804534
10.043979
9.919405
10.375977
10.614991
11.030436
11.361837
11.199713
11.052489
11.405945
11.691451
11.616945
12.430549
12.309551
12.610555
13.342500
13.534427
13.806820
14.604926
14.444590
14.351606
14.405847
13.735890
13.835430
13.853908
13.206601
13.183951
12.845993
13.459921
12.797713
12.601614
12.712479
12.412667
12.615919
12.766719
12.624860
12.097955
12.099743
12.439489
12.309551
12.713671
##ZVALUE=285
0.998974
0.792742
1.040697
1.025796
1.023412
1.073480
1.190901
0.999570
1.040697
1.147985
0.960827
1.186728
1.138449
1.135468
1.163483
1.327991
1.559854
1.702905
1.538992
1.500845
1.817942
1.859665
2.180934
2.629757
8.271933
30.345917
99.004507
199.518800
408.789515
627.406836
859.628916
1016.140580
1016.140580
1016.140580
1016.140580
1016.140580
817.790627
507.101417
313.210487
145.804882
73.781610
34.081936
33.278465
50.988793
72.485805
100.384951
117.787719
136.774778
141.686797
137.204528
126.082897
102.968812
83.049536
59.134960
42.574406
26.589632
19.024611
14.765859
12.955666
12.173653
12.034774
12.227893
13.031960
12.696981
12.566447
12.755990
12.986660
12.640953
12.997985
13.297796
14.541745
14.651418
14.780760
15.120506
15.085936
14.971495
14.844537
14.416575
14.435649
13.954639
12.943745
12.999773
13.247728
13.006926
12.785792
12.846589
12.838840
12.760758
12.482405
12.159944
12.075901
11.997819
12.327433
12.140870
11.572838
11.724830
##ZVALUE=290
0.811815
1.020432
0.863671
0.996590
0.936985
0.895858
1.086593
1.016855
1.067519
0.998974
1.051426
0.957847
1.321435
1.236796
1.163483
1.211762
1.354814
1.560450
1.371503
1.620650
1.720786
1.608729
1.853704
2.012849
2.114773
2.346635
3.615618
12.505651
59.203506
135.661960
258.872509
514.180660
766.705871
1016.140580
1016.140580
1016.140580
1016.140580
1016.140580
969.979763
642.602444
424.380898
205.491781
104.399920
41.395426
26.217699
34.008622
47.441721
69.999695
91.064572
116.167665
130.066872
138.523579
137.769580
123.938918
106.265545
79.725981
60.797930
42.205453
30.988455
21.234751
18.029809
14.992952
14.300942
14.100671
13.527870
13.567805
13.371706
13.954639
14.589429
15.053749
15.129447
15.346408
15.041828
15.426874
15.780926
15.299916
14.918447
15.053749
14.595985
14.595985
13.766885
13.380647
13.414621
13.644695
13.415813
13.186932
13.603568
12.877584
12.951493
12.443662
12.414455
12.410879
12.019873
12.059808
12.269616
12.047887
##ZVALUE=295
0.906587
0.828505
0.882745
1.047850
0.865459
0.970960
0.863671
0.812411
0.954866
1.074672
1.129508
1.116991
1.099706
1.075864
1.085997
1.139641
1.022816
1.146793
1.085997
1.250505
1.308918
1.374483
1.486540
1.569986
1.725554
1.796484
2.187490
2.227426
2.724528
5.448461
20.845532
86.060762
185.618997
416.531563
660.649538
998.549461
1016.140580
1016.140580
1016.140580
1016.140580
1016.140580
791.345835
537.194014
282.062888
154.226422
57.353973
28.470755
22.545457
29.809475
47.906637
64.384937
92.182755
108.886957
127.899647
135.358572
132.002831
122.039914
101.174712
84.057450
59.799552
45.968890
31.193495
24.438500
19.055605
16.251802
15.259981
15.360713
15.628934
15.789866
15.866756
16.076565
16.364455
16.145706
16.296506
15.924573
16.655922
16.249418
15.489459
14.947653
14.939904
15.094876
14.355779
14.484525
14.301538
13.573766
13.579726
14.208555
13.129711
13.549924
13.527870
12.764931
12.624860
12.874603
12.453794
12.304783
12.309551
##ZVALUE=300
0.964999
0.998974
0.866652
0.903606
0.890493
0.775456
0.984669
0.807643
0.787973
0.986457
0.914931
0.840425
1.047850
1.078844
1.052618
0.940561
1.020432
1.071692
1.166463
1.266599
1.186728
1.317859
1.397729
1.283884
1.577735
1.596808
1.732707
1.967549
2.157688
1.984835
2.243519
2.850890
13.439655
47.248006
153.669715
292.142034
578.716993
863.733888
1016.140580
1016.140580
1016.140580
1016.140580
1016.140580
1001.812816
658.109784
417.580605
200.761557
104.990602
38.527846
21.435618
21.929741
28.736591
45.720935
61.542988
84.975958
104.216933
123.599768
128.803849
129.256845
121.219754
101.445913
85.326433
63.419938
47.850609
32.295585
25.063753
19.638538
17.840862
16.753674
16.377568
16.485453
16.375780
16.608834
16.705990
16.776919
16.294718
15.750527
15.726686
15.549660
15.149713
14.849901
14.886856
14.464855
14.166832
13.836622
14.470816
13.646483
13.976693
13.602972
13.311505
13.208985
12.694597
12.416840
12.290478
12.249947
12.409687
##ZVALUE=305
0.781417
0.959635
0.786781
0.882745
0.817776
0.930429
0.985861
0.981688
0.976920
0.767708
0.877976
0.783801
1.126528
1.019835
0.949502
0.946522
1.108646
0.978708
1.017451
1.329780
1.295805
1.183748
1.204610
1.198649
1.421571
1.436472
1.467466
1.517534
1.689792
1.918674
1.895428
1.802444
2.290606
2.472997
6.833673
26.168823
104.832649
220.206380
467.328429
715.659857
1016.140580
1016.140580
1016.140580
1016.140580
1016.140580
1016.140580
848.189592
566.133857
277.941823
151.699781
61.210990
29.143691
17.970800
21.062493
30.506849
42.047501
64.506531
81.285834
101.691484
115.035772
124.296546
124.441981
114.005804
99.732876
77.768564
62.496662
44.159889
33.553839
23.403764
20.069480
17.862916
16.879439
16.373992
16.021729
15.740991
16.067624
15.854836
15.425682
15.632510
14.964938
15.489459
14.973879
14.775991
14.181733
14.266968
14.046431
13.884902
13.640523
13.688803
12.956858
12.992620
13.170838
12.636781
12.706518
12.666583
12.283921
##ZVALUE=310
0.757575
0.858903
0.995994
0.880957
0.903606
0.734925
0.886917
0.774860
0.760555
0.890493
0.867844
0.868440
0.957847
0.990629
0.896454
1.114607
0.889897
1.153946
0.904799
0.954866
1.059771
1.110435
1.139641
1.188517
1.403689
1.305938
1.326799
1.393557
1.306534
1.386404
1.505613
1.570582
1.791716
1.915693
2.143979
2.294779
2.940893
13.445616
46.140552
152.732730
294.766426
579.778552
848.648548
1016.141772
1016.141772
1016.141772
1016.141772
1016.141772
1012.486815
696.094036
462.039709
233.066678
123.912692
45.757890
15.989542
16.452670
20.703673
26.873946
40.473938
53.538680
75.259805
89.904666
107.956529
114.583969
117.052794
110.187531
93.530416
78.565478
57.103634
44.233799
31.044483
24.382472
18.746853
17.171502
15.779734
14.713407
15.144944
14.391541
14.308691
14.011860
14.330745
14.360547
13.847947
13.814569
13.713837
13.635755
13.685822
13.677478
13.260841
13.283491
13.110638
12.726784
12.837648
12.503862
12.265444
12.063980
##ZVALUE=315
1.020432
0.807643
0.645518
0.768900
0.637770
0.722408
0.549555
0.783801
0.883937
0.865459
0.881553
0.820756
0.904799
0.914931
0.921488
0.924468
0.944734
1.071692
0.858903
1.033545
0.985861
0.852942
1.130700
1.029968
1.129508
1.091957
1.269579
1.089573
1.250505
1.229644
1.460910
1.524687
1.502633
1.647472
1.709461
1.901984
2.028942
2.335906
2.587438
6.301999
25.236607
104.166865
224.599838
486.723781
763.126612
1016.131639
1016.131639
1016.131639
1016.131639
1016.131639
1016.131639
807.648897
563.975573
304.350853
168.375969
64.216852
28.962493
15.240908
15.517473
19.388795
24.818778
37.088990
49.454570
66.745877
84.461570
101.182461
107.911825
109.554529
103.627443
89.153647
74.850917
56.872964
43.808818
29.614568
23.071766
17.837882
15.481710
14.194846
13.693571
13.363957
13.146996
13.452768
13.444424
13.259649
13.585687
12.892485
12.954473
12.991428
13.098717
13.040900
12.696981
12.928843
12.517571
12.445450
12.213588
11.629462
##ZVALUE=320
0.792742
0.799894
0.616908
0.697970
0.813603
0.843406
0.841618
0.752807
0.856519
0.866652
0.847578
0.864863
0.905991
0.734925
0.790954
0.867844
0.865459
0.906587
1.030564
0.767708
0.866652
1.014471
1.002550
1.083612
1.140833
1.130700
1.156926
0.974536
1.022816
1.334548
1.033545
1.339912
1.476407
1.385808
1.489520
1.582503
1.720786
1.752973
1.895428
2.119541
2.275705
3.418922
10.697842
61.179996
153.796673
386.461616
622.996688
976.840854
1016.130447
1016.130447
1016.130447
1016.130447
1016.130447
976.547003
697.627664
381.018519
217.271447
92.873573
42.476654
16.384721
12.694001
13.196468
15.965700
21.790862
30.250549
46.381950
60.061812
78.337789
91.953874
101.324916
103.290677
96.319914
87.240934
67.820549
53.683519
38.701892
29.206872
21.141768
16.426444
14.012456
13.200641
13.010502
12.917519
12.837648
12.739897
12.671947
12.554526
12.411475
12.058616
12.182593
12.381673
12.042522
12.209415
11.887550
11.727810
12.159944
##ZVALUE=325
0.761747
0.765920
0.631809
0.725985
0.744462
0.709891
0.593662
0.686646
0.673532
0.751615
0.647902
0.838637
0.702739
0.852942
0.794530
0.786781
0.821948
0.934601
0.888705
0.857711
1.006722
0.826716
0.996590
0.898838
0.940561
0.975728
1.015663
1.062751
1.094937
1.304746
1.282692
1.072884
1.130700
1.029968
1.217723
1.249909
1.368523
1.498461
1.565814
1.741648
1.849532
1.950860
2.009869
2.444983
5.616546
37.700534
100.128651
264.528990
472.248793
853.611827
1016.134024
1016.134024
1016.134024
1016.134024
1016.134024
1016.134024
852.630734
508.082509
304.164886
132.773519
63.614845
21.170974
11.756420
10.656714
11.641979
14.140606
19.070506
29.170513
40.990710
59.194565
73.347688
87.834001
94.960928
95.961690
90.854764
78.211427
64.462423
48.626661
36.545992
24.945736
19.654632
15.227795
13.749599
12.767911
12.556911
11.871457
12.084842
11.995435
11.915565
11.963844
11.986494
11.485815
11.617541
11.668801
11.518598
11.446476
##ZVALUE=330
0.710487
0.658631
0.734925
0.659823
0.631809
0.762939
0.668764
0.722408
0.662804
0.732541
0.780821
0.876784
0.884533
0.726581
0.720620
0.688434
0.786781
0.797510
0.899434
0.828505
0.952482
1.005530
0.869632
0.910759
0.916719
1.017451
0.952482
0.897646
1.051426
1.080632
0.929832
1.007915
1.059771
1.159906
1.145601
1.212955
1.292825
1.384616
1.446605
1.435876
1.469851
1.445413
1.619458
1.936555
2.011657
2.357960
3.213882
16.308427
55.135489
184.836984
354.346633
705.418587
990.598798
1016.140580
1016.140580
1016.140580
1016.140580
1016.140580
975.182652
607.607961
381.913781
173.603892
87.171793
31.054616
13.997555
9.146929
9.304881
10.436773
13.030767
19.201636
27.231574
41.027665
53.349733
70.468783
80.984831
89.393854
89.647770
84.260702
74.732900
58.949590
47.006607
33.465624
26.326776
18.894672
15.787482
13.422966
12.515783
11.844635
11.534691
11.408925
11.523962
11.579990
11.153817
11.447668
11.329651
11.376739
##ZVALUE=335
0.936985
0.720620
0.808835
0.698566
0.659823
0.661612
0.869632
0.701547
0.553727
0.725985
0.598431
0.796914
0.722408
0.761747
0.550747
0.750422
0.690818
0.586510
0.898838
0.683665
0.641942
0.791550
0.795722
0.868440
1.005530
1.050830
0.966787
0.972748
0.951886
0.884533
0.949502
0.987649
0.910759
1.011491
1.029968
1.097918
1.161695
1.172423
1.298785
1.202822
1.352429
1.493692
1.557469
1.545548
1.607537
1.837611
1.777411
2.262592
2.531409
7.936954
30.502677
120.168924
247.139931
530.907512
817.359686
1016.140580
1016.140580
1016.140580
1016.140580
1016.140580
1016.140580
723.878741
476.323962
239.063501
122.498870
41.896701
18.415451
9.795427
9.248853
9.586811
10.613799
13.396740
18.037558
27.297735
37.134886
52.359700
64.175725
76.778531
83.029866
82.980990
79.162717
68.368912
57.549477
45.124888
35.731792
25.753975
19.966960
15.161633
12.981892
12.029409
11.745691
11.300445
11.224747
10.934472
11.042953
10.792613
##ZVALUE=340
0.665784
0.833869
0.683665
0.864863
0.649691
0.840425
0.589490
0.602603
0.772476
0.810623
0.795722
0.740886
0.625849
0.857711
0.682473
0.768900
0.811815
0.784993
0.741482
0.744462
0.769496
0.736713
0.711679
0.716448
0.879765
0.879765
0.960827
0.970960
0.972748
0.795722
0.889897
0.938773
0.958443
0.905991
1.036525
1.030564
1.012683
1.129508
1.170635
1.245737
1.066923
1.235604
1.463890
1.428723
1.486540
1.538992
1.796484
1.919866
2.039671
2.235770
2.535582
4.948974
21.731853
105.784535
240.570903
529.993773
817.434788
1016.140580
1016.140580
1016.140580
1016.140580
1016.140580
1016.140580
869.199634
588.080883
295.032859
157.359838
62.015653
25.894642
10.964870
9.478927
9.420514
9.498596
10.842681
12.826920
18.215775
25.074482
36.621690
47.636628
62.893629
71.556568
80.111623
79.394579
75.034499
67.868829
54.525733
45.700669
33.270717
26.275516
18.869638
15.298724
12.352467
11.568666
10.619760
10.853410
10.617971
##ZVALUE=345
0.641942
0.799894
0.560880
0.758767
0.680685
0.615716
0.808835
0.609756
0.674725
0.709891
0.859499
0.759959
0.705719
0.719428
0.698566
0.743866
0.712872
0.757575
0.737906
0.756979
0.804663
0.864863
0.807643
0.752807
0.791550
0.724792
0.796914
0.940561
0.791550
0.818968
0.903606
0.857711
0.882745
0.954866
0.951886
0.910759
1.097918
1.079440
0.999570
0.969768
0.998974
1.050830
1.320839
1.161695
1.253486
1.530647
1.274943
1.477599
1.463890
1.552701
1.794696
1.924634
2.088547
2.646446
6.440878
42.859912
116.156936
300.119519
523.888469
899.607539
1016.140580
1016.140580
1016.140580
1016.140580
1016.140580
1002.976894
750.026703
426.757932
234.786868
92.983842
42.555928
15.443563
9.973645
8.994937
8.915663
9.367466
9.969473
12.141466
16.183853
24.321675
32.937527
45.947433
55.456758
65.422654
71.322918
73.587894
71.414709
62.617660
55.050850
42.350888
33.781528
23.979545
18.648505
14.602542
12.585521
11.080503
##ZVALUE=350
0.725985
0.768900
0.662804
0.649691
0.679493
0.615716
0.700951
0.688434
0.843406
0.830889
0.747442
0.762939
0.712872
0.848770
0.828505
0.759959
0.753999
0.916719
0.676513
0.849962
0.837445
0.870824
0.827909
0.887513
0.876784
0.873804
0.815988
0.938773
0.897646
0.885725
0.929832
0.812411
0.936985
0.930429
0.993609
0.845790
1.044869
0.833869
0.844598
1.027584
1.023412
1.060963
1.103878
1.211762
1.155734
1.237988
1.291633
1.406670
1.410842
1.513958
1.548529
1.747608
1.686811
1.910925
1.994967
2.371669
3.689528
20.960569
68.944693
214.763880
400.952697
762.689710
1016.140580
1016.140580
1016.140580
1016.140580
1016.140580
1016.140580
903.109908
508.242846
297.959447
130.635500
58.668852
18.021464
10.324717
8.485913
8.705854
8.194447
8.456707
9.758472
11.308789
16.172528
21.151900
30.339956
38.789511
50.239563
57.875514
65.116882
67.690611
65.104961
60.151815
50.681829
42.100549
32.261610
24.992824
18.560886
##ZVALUE=355
0.678897
0.788569
0.669956
0.591874
0.764728
0.691414
0.807643
0.770688
0.809431
0.665784
0.834465
0.730753
0.765920
0.755787
0.706911
0.902414
0.640750
0.750422
0.821948
0.878572
0.896454
0.858903
0.937581
0.802875
0.888705
0.901818
0.810623
0.793934
0.762939
0.891685
0.974536
0.971556
0.944734
0.985861
0.899434
0.743866
1.089573
0.862479
0.980496
1.044869
1.075864
1.240969
0.945926
1.275539
1.262426
1.225471
1.252890
1.088977
1.165867
1.330972
1.274943
1.330972
1.514554
1.474619
1.724958
1.914501
1.896620
2.265573
2.527833
9.346604
36.582947
142.486691
290.168524
585.950613
885.658860
1016.138792
1016.138792
1016.138792
1016.138792
1016.138792
963.124037
615.581870
379.120708
160.894990
77.057481
24.346709
11.602640
8.538961
8.460879
8.198619
8.048415
8.372664
9.091496
10.672808
13.595819
19.014478
25.355816
34.761429
42.551756
52.543879
58.436990
62.022805
60.180426
54.392815
47.408938
38.797855
##ZVALUE=360
0.759959
0.862479
0.727773
0.614524
0.702739
0.822544
0.613928
0.786781
0.580549
0.732541
0.760555
0.844598
0.697970
0.739694
0.624657
0.924468
0.729561
0.813603
0.925660
0.805855
0.880957
0.862479
0.787973
0.835657
0.797510
0.916719
0.758767
0.867844
0.823736
0.792742
0.813603
0.613928
0.869632
0.992417
0.912547
0.957847
1.194477
1.039505
0.920892
1.045465
0.990629
1.041889
1.216531
0.968575
1.149774
1.062751
1.209974
1.255870
1.163483
1.248717
1.303554
1.403689
1.285672
1.568794
1.563430
1.770854
1.660585
1.916885
2.136827
2.404451
2.538562
4.683733
15.903711
77.359676
192.317963
468.365550
747.683644
1016.140580
1016.140580
1016.140580
1016.140580
1016.140580
1016.140580
720.883012
461.243987
210.200548
103.979707
37.526488
16.039610
8.719563
7.902980
7.821918
7.660985
7.692575
7.598996
8.238554
9.057522
11.764765
15.250444
21.499991
28.514862
38.678646
45.182705
51.900744
55.926442
55.851936
##ZVALUE=365
0.637770
0.778437
0.763535
0.710487
0.842810
0.657439
0.637770
0.750422
0.767708
0.665784
0.768900
0.803471
0.714660
0.804663
0.720620
0.724792
0.711679
0.627637
0.817776
0.714660
0.738502
0.642538
0.673532
0.782609
0.815988
0.843406
0.767708
0.916719
0.912547
0.868440
0.787973
0.837445
0.867844
0.780821
1.020432
0.816584
0.817776
1.088977
0.828505
1.007915
0.964999
0.966787
0.950694
1.202822
1.053810
0.940561
1.012683
1.195669
1.090765
1.207590
1.076460
1.278520
1.268983
1.464486
1.387596
1.515746
1.471639
1.598597
1.772642
1.693964
1.995564
2.278686
2.478957
2.980828
6.707907
40.596724
112.133026
298.249722
542.368889
954.206586
1016.140580
1016.140580
1016.140580
1016.140580
1016.140580
795.261860
533.176661
278.887749
144.792795
50.507784
21.149516
8.958578
7.436872
7.377863
6.899834
6.731749
6.950498
6.834865
7.114410
8.051991
9.737611
13.289452
17.640591
25.068521
31.624436
40.279627
##ZVALUE=370
0.634789
0.686646
0.725985
0.638962
0.713468
0.649691
0.684857
0.699759
0.714660
0.805855
0.653863
0.711679
0.469685
0.642538
0.656843
0.655651
0.730753
0.839829
0.811815
0.593662
0.719428
0.872612
0.721812
0.912547
0.778437
0.814795
0.926852
0.908971
0.860691
0.789762
0.788569
0.843406
0.789762
1.038909
0.725985
0.784993
0.850558
0.832677
0.912547
0.839829
1.000762
0.770688
0.901818
0.944734
0.968575
0.915527
0.997782
0.997782
1.021624
1.092553
1.047850
1.010895
0.913739
1.300573
1.244545
1.089573
1.063943
1.201630
1.436472
1.449585
1.438856
1.649857
1.731515
1.874566
2.145767
2.539754
3.542900
19.094944
66.912770
222.853422
417.200923
773.455501
1016.139984
1016.139984
1016.139984
1016.139984
1016.139984
978.184938
692.785978
360.844731
193.416476
71.684718
32.343864
12.154579
7.648468
6.838441
6.771684
6.350875
6.352663
6.372929
6.468892
6.724596
7.172823
9.228587
11.354685
16.045570
##ZVALUE=375
0.679493
0.543594
0.665784
0.653863
0.742674
0.815988
0.819564
0.626445
0.644922
0.724792
0.728965
0.638962
0.639558
0.781417
0.682473
0.594854
0.712872
0.784993
0.595450
0.537634
0.854731
0.441670
0.690818
0.778437
0.722408
0.792742
0.712872
0.774860
0.705719
0.775456
0.780821
0.887513
0.877976
0.727773
0.762939
0.724792
0.803471
0.784993
0.863671
0.793934
0.870824
0.791550
0.854731
0.715852
0.772476
0.742674
0.982881
0.924468
0.897646
0.913739
0.835657
0.800490
1.044869
1.029968
1.018643
1.067519
1.093745
1.139641
1.143813
1.193881
1.313686
1.171827
1.445413
1.435876
1.618862
1.810789
1.992583
2.167821
2.595782
10.169744
37.567616
133.924484
288.672447
632.954836
953.385830
1016.140580
1016.140580
1016.140580
1016.140580
1016.140580
930.101871
567.618012
340.017676
141.285658
64.397454
19.452572
9.012818
6.558895
6.238818
5.917549
6.026626
5.878806
5.962849
5.761981
6.024837
6.630421
##ZVALUE=380
0.792742
0.795722
0.670552
0.853539
0.896454
0.954866
0.992417
0.868440
0.986457
0.969768
0.872612
0.924468
0.914931
0.845790
0.902414
0.897646
0.804663
0.693798
0.951886
0.880957
0.953674
0.876784
0.839829
0.900626
0.995994
0.861883
0.904799
0.934601
0.937581
0.979900
0.753999
1.044869
0.822544
0.771880
0.891685
0.994802
0.867844
0.892878
0.960827
0.855923
0.953674
0.894666
0.955462
1.028776
0.978708
1.054406
1.093745
1.163483
1.140833
1.138449
1.025796
1.053810
1.235604
1.159906
1.169443
1.097918
1.244545
1.336932
1.228452
1.246929
1.365542
1.376867
1.443624
1.639724
1.589656
1.574755
1.969934
2.110600
2.386570
2.641678
3.009439
5.794764
23.839474
109.775662
241.280794
528.015494
854.908824
1016.355753
1016.355753
1016.355753
1016.355753
1016.355753
1016.355753
725.585818
459.051728
206.153989
98.908544
32.447577
13.617873
6.914735
6.472468
6.015897
5.506873
5.785823
5.675554
5.726814
##ZVALUE=385
0.555515
0.518560
0.609756
0.612736
0.899434
0.491738
0.630617
0.560880
0.540614
0.560880
0.664592
0.510812
0.545979
0.761747
0.684857
0.701547
0.701547
0.676513
0.650883
0.599623
0.662804
0.755787
0.572801
0.701547
0.794530
0.626445
0.540614
0.765920
0.660419
0.565648
0.689626
0.724792
0.737906
0.756979
0.584722
0.821948
0.706911
0.768900
0.784993
0.948906
0.646710
0.904799
0.802875
0.836849
0.802875
0.883937
0.875592
0.705719
0.863671
0.822544
0.959635
0.814795
0.910759
0.768900
0.778437
0.896454
1.088977
1.075864
1.105666
1.033545
1.061559
0.946522
1.148582
1.239777
1.320839
1.217723
1.450777
1.786947
1.784563
1.798868
2.200603
2.492666
2.698898
3.158450
8.697510
52.957535
144.490600
390.723944
709.241629
1016.140580
1016.140580
1016.140580
1016.140580
1016.140580
1016.140580
985.966921
682.764649
348.454714
184.692740
67.151785
25.263429
8.105636
5.926490
5.501509
5.308986
4.970431
##ZVALUE=390
0.648499
0.754595
0.572801
0.631809
0.633597
0.676513
0.641942
0.785589
0.589490
0.654459
0.777841
0.821948
0.597835
0.652671
0.745654
0.721812
0.804663
0.749826
0.636578
0.641942
0.775456
0.657439
0.690818
0.777841
0.799894
0.670552
0.641942
0.711679
0.661612
0.595450
0.817776
0.748634
0.740886
0.805855
0.808835
0.775456
0.767708
0.864863
0.686646
0.905991
0.708699
0.911951
0.873804
0.777841
0.828505
0.894666
0.940561
0.781417
1.047850
0.895858
0.854731
0.943542
0.894666
0.832677
0.775456
1.017451
1.063943
0.804663
0.985861
1.102686
1.149774
1.100898
1.123548
1.237988
1.277924
1.343489
1.219511
1.585484
1.631975
1.723766
1.803637
2.078414
2.235770
2.137423
2.157688
2.560616
4.688501
28.954744
92.996955
281.860828
523.871779
960.249901
1016.186476
1016.186476
1016.186476
1016.186476
1016.186476
1016.186476
871.434808
497.554541
272.466540
102.930665
43.194890
11.575818
6.007552
5.369782
##ZVALUE=395
0.571609
0.465512
0.588894
0.495911
0.614524
0.558496
0.608563
0.628829
0.562668
0.608563
0.580549
0.573993
0.513792
0.624657
0.700951
0.650883
0.537634
0.634789
0.594854
0.568628
0.613928
0.627637
0.728965
0.662804
0.705719
0.635982
0.694990
0.579953
0.524521
0.622869
0.708699
0.680685
0.704527
0.748634
0.668764
0.658631
0.797510
0.614524
0.694990
0.837445
0.745654
0.594854
0.818968
0.800490
0.823736
0.865459
0.770688
0.894666
0.715852
0.764728
0.769496
0.743866
0.647902
0.880957
0.873804
0.895858
0.856519
0.915527
1.016855
0.993609
1.089573
0.998974
1.065731
1.055598
1.224875
1.249909
1.304746
1.308918
1.458526
1.762509
1.768470
2.028942
1.849532
1.701713
1.830459
1.994967
2.000928
2.291799
2.930760
15.004873
56.246519
191.930532
365.744829
704.694986
990.073681
1016.140580
1016.140580
1016.140580
1016.140580
1016.140580
983.821750
601.570010
369.424820
166.867971
78.451633
24.271607
##ZVALUE=400
0.569820
0.537634
0.550747
0.626445
0.531673
0.436902
0.624657
0.669956
0.636578
0.639558
0.463724
0.560880
0.646710
0.596642
0.526905
0.609756
0.582933
0.770688
0.651479
0.622869
0.565648
0.600815
0.707507
0.611544
0.634789
0.642538
0.677705
0.633597
0.592470
0.678897
0.708699
0.668764
0.690818
0.463724
0.686646
0.670552
0.701547
0.817776
0.705719
0.700951
0.777841
0.783801
0.816584
0.809431
0.680685
0.801682
0.880957
0.788569
0.842810
0.786781
0.700951
0.797510
0.806451
0.781417
0.978708
0.877976
0.815988
0.806451
0.829697
0.856519
0.934601
1.079440
0.938773
1.091957
1.161695
1.219511
1.219511
1.201630
1.315475
1.495481
1.587868
1.658797
1.606941
1.613498
1.497865
1.544952
1.576543
1.812577
1.836419
2.136827
2.490878
7.865429
31.177998
117.837787
253.201723
533.006787
809.862614
1016.140580
1016.140580
1016.140580
1016.140580
1016.140580
969.933867
601.580739
378.915668
179.008842
##END
