##TITLE=QP00652
##FORMAT=SPECTACLE-ASCII V-1.2
##DATA TYPE=ULTRAVIOLET SPECTRUM
##SECOND TYPE=ULTRAVIOLET SPECTRUM
##DATE=03/05/18
##TIME=12:40:28
##SPECTROMETER/DATA SYSTEM=SPECTACLE
##XUNITS=NM EM
##YUNITS=ENERGY
##YFACTOR=1
##FIRSTX=220
##LASTX=410
##NPOINTS=96
##3DDATA=Equidistant
##ZUNITS=NM EX
##FIRSTZ=210
##LASTZ=400
##ZPOINTS=39
##XYDATA=(Y..Y)
##ZVALUE=210
1.919866
2.176762
2.257824
2.178550
2.437830
2.535582
2.310872
2.695918
2.409816
2.980828
2.409816
2.678633
2.404451
2.229810
2.544522
3.358722
2.812743
3.163815
2.992749
3.376603
3.907681
3.829598
3.877878
4.107952
4.110932
4.099607
4.460812
4.376769
4.051924
5.392432
4.816651
5.759597
5.463958
6.168485
5.410910
5.848408
6.217957
6.341934
6.750822
6.992817
7.122755
6.908774
7.652640
7.207990
7.722974
7.436872
7.747412
8.260608
7.775426
9.425879
8.540750
9.134412
9.007454
8.351803
8.377433
8.016825
9.796619
9.070635
8.606911
10.166764
11.030436
10.106564
10.089874
9.818673
9.732842
10.208488
12.740493
12.335777
15.117526
17.415881
19.193888
23.599863
26.389956
31.631589
32.519698
35.680532
38.792491
37.067533
38.526654
32.913685
30.549765
24.148822
23.199916
19.200444
17.542839
14.756918
13.202429
12.010932
10.761619
10.463595
10.367632
8.294582
10.054708
11.839867
9.412766
10.833740
##ZVALUE=215
7.906556
6.704926
6.944537
5.468726
5.046725
5.075932
4.199743
5.027652
4.565716
4.969835
5.259514
4.219413
3.701448
3.826618
3.005862
2.879500
2.819896
2.904534
3.546476
3.373623
3.756881
4.548430
4.303455
4.501939
5.059838
4.472733
4.665852
5.330443
6.009936
5.749464
5.752444
5.918741
5.356669
6.358624
6.459951
6.504655
6.081462
7.512569
6.270409
5.976558
6.879568
7.275939
6.117821
7.822514
8.330941
7.820725
7.416606
7.846951
8.858442
8.478761
8.202791
9.345412
8.793473
9.817481
10.355711
9.353757
10.156631
9.432435
10.126829
10.473728
10.730624
9.853840
10.507703
11.067986
10.558963
11.252761
12.114644
12.552738
13.431907
18.150806
19.400716
23.911595
26.196837
27.021766
32.151937
35.460591
32.825470
35.763979
32.517910
30.724406
27.035475
25.134683
22.593737
18.077493
17.055869
14.746785
12.784600
11.102557
11.497736
10.339618
10.692477
10.387897
9.393692
10.199547
9.397864
10.414720
##ZVALUE=220
29.140711
29.689670
30.004978
28.554797
26.489496
21.948814
16.195774
12.512803
11.868477
11.329651
11.455417
12.533665
13.388991
10.918975
9.576678
7.505417
6.021857
5.903840
4.334450
4.023910
4.761815
4.506707
4.527569
4.724860
4.955530
5.716681
5.561709
5.425811
6.115437
6.688833
6.819963
6.111860
6.266832
6.362796
6.766915
6.649494
7.519722
6.235838
7.022619
7.924438
7.953644
7.714629
8.117557
8.549690
8.391738
8.156896
9.171963
8.606911
9.210706
10.119677
9.259582
8.971691
10.346770
9.743571
9.970665
10.291934
10.106564
11.436939
11.320710
11.031628
11.507869
11.227727
12.011528
11.772513
12.009740
12.021661
12.044907
14.485717
15.623569
18.630624
20.903945
24.588704
29.377937
32.153726
35.078526
34.567714
37.128925
38.645864
34.759641
32.719970
31.222701
28.717518
23.930669
22.538900
17.888546
15.669465
13.495684
12.404919
11.641979
10.715723
11.958480
10.486841
10.733604
10.727644
10.749698
10.079741
##ZVALUE=225
51.623583
52.890778
69.049597
87.716579
96.693635
90.973973
83.382726
62.490702
47.629476
36.241412
27.708411
25.354624
24.537444
25.878549
27.724504
26.122928
20.646453
16.384721
14.754534
10.662675
7.865429
5.637407
5.495548
5.814433
5.756617
5.503893
5.957484
6.204844
6.328821
6.503463
7.236600
6.765723
8.038878
7.792711
8.072853
8.715987
7.770658
8.554459
10.003448
8.457899
9.071827
9.084940
9.126663
9.535551
10.044575
10.637641
10.115504
9.936690
9.756684
12.050867
11.720657
11.598468
11.164546
13.014674
12.107491
12.274981
12.371540
13.409853
14.072657
12.266636
15.549660
15.412569
14.811754
15.644431
14.948845
14.157891
14.695525
18.521547
17.712712
22.447705
24.515986
27.938485
30.785799
35.507679
36.438704
39.216876
39.258599
36.957860
37.014484
34.244657
31.363964
28.766990
25.931001
22.523999
19.871593
18.310547
17.298460
15.112758
15.232563
14.252663
12.950897
13.160706
13.028979
12.789965
13.646483
12.749434
##ZVALUE=230
48.073530
50.689578
77.078938
133.782625
174.670815
210.825801
232.471824
226.360559
199.858546
158.372521
116.510987
81.886649
56.425929
46.506524
46.209693
51.356554
52.910447
50.993562
43.577552
38.473606
27.889609
20.979643
11.895895
9.231567
8.111000
6.199479
6.837845
6.829500
6.697774
8.379817
7.919669
8.114576
8.492470
8.916855
8.588433
9.758472
9.293556
8.658767
9.056926
8.860826
10.175705
9.530783
9.525418
10.710955
10.952950
10.057688
10.444522
11.776686
9.940863
11.439919
11.596680
11.505485
12.120605
12.265444
13.693571
13.573766
14.391541
14.356971
16.036630
13.800859
14.332533
15.826821
15.018582
14.640689
14.532804
16.045570
15.957952
18.009543
19.477606
21.968484
25.776625
26.457906
31.605959
33.820868
35.258532
36.795735
34.614801
32.990575
31.517744
29.315948
29.004812
25.934577
23.856759
21.348000
20.135641
18.444657
18.945932
17.539859
16.133785
15.113950
16.064644
15.132427
17.120838
17.021894
15.194416
14.282465
##ZVALUE=235
13.656616
16.208887
36.519766
97.125769
156.540871
257.555842
345.102549
456.740856
499.375463
512.213707
465.756655
392.674804
274.725556
207.890868
134.131908
99.144578
82.337856
84.455609
90.524554
83.089471
79.597831
65.872669
53.652525
40.117502
27.714968
15.221834
11.920929
9.471774
8.476973
8.197427
8.755922
7.970929
9.078979
8.364916
9.097457
8.120537
10.051727
9.389520
9.312630
9.219646
10.292530
8.576512
9.114742
9.062886
10.283589
10.351539
10.621548
11.219978
11.821985
13.314486
12.849569
13.532639
14.480948
14.699697
13.606548
14.688969
15.325546
15.392900
16.089678
17.009974
18.179417
17.993450
18.534660
18.542409
19.111633
20.046830
20.368695
22.213459
22.999644
28.565526
28.527975
31.728745
35.496950
38.088560
40.185452
42.158961
40.275455
36.189556
34.095645
33.575892
35.837889
30.369759
29.114485
28.044581
24.763942
22.281408
23.478866
21.385550
21.938682
21.479726
21.593571
21.803975
21.427870
19.861460
19.692779
19.832850
##ZVALUE=240
1.868606
2.286434
5.194545
19.265413
44.573545
109.301805
190.397501
354.355574
507.022738
675.974488
761.363506
770.218968
685.209036
566.809773
389.449596
276.594758
158.042908
119.521618
98.890662
98.538995
107.868910
115.420818
114.324689
98.417997
79.501867
62.847733
43.989420
30.415654
21.255612
13.588667
10.079741
8.050799
8.880496
8.786917
8.963943
8.987784
8.304715
8.668900
9.490848
8.353591
8.806586
8.807778
9.952784
10.095835
10.446906
11.114478
10.791421
11.023879
11.846423
11.039972
12.720823
13.519526
13.902783
15.591979
15.033484
14.693737
15.667677
16.194582
17.181635
16.745925
17.721653
18.177629
19.150972
19.099712
20.396709
20.551682
21.449924
24.071932
24.568439
28.098822
29.853582
33.442974
33.182502
39.302707
39.647818
38.927794
39.311647
34.932494
36.365986
34.004450
33.107996
28.618574
28.454661
25.170445
24.174452
25.335550
22.878647
23.927689
22.449493
21.961927
21.494627
22.812486
22.248626
20.827651
22.591949
20.175576
##ZVALUE=245
1.892447
1.566410
1.852512
2.007484
3.723502
10.543466
38.482547
81.818700
202.532411
317.566991
532.090664
684.684515
801.236033
843.947530
814.383030
667.915940
524.391532
351.584554
231.736898
143.038630
109.355450
100.198984
112.648606
122.299790
127.853751
121.806860
108.308792
92.218518
67.339540
49.858689
32.807589
22.552609
13.486743
8.488894
8.497834
7.685423
7.702708
7.760525
7.949471
8.989573
8.004904
9.416938
8.914471
8.137822
8.567572
8.604527
8.247495
9.407997
10.139942
10.712743
10.934472
12.398958
11.630654
11.993647
13.022423
13.692975
13.550520
13.759732
15.026927
15.820861
16.311407
15.545487
16.003847
16.029477
16.603470
18.700957
19.041896
21.213889
21.268725
22.740960
24.281740
26.944876
30.001998
29.735565
31.041503
30.557513
32.893419
32.270551
30.729771
28.588772
26.019812
26.816726
26.392937
23.511648
23.866892
21.618605
22.195578
20.626783
21.723509
22.776723
21.597743
22.246838
22.390485
19.981861
20.440817
22.070408
##ZVALUE=250
1.593828
1.388788
1.517534
1.296997
1.696944
1.822710
2.331734
7.271767
28.661489
62.999725
166.236758
288.846493
435.537696
648.157001
783.372521
903.073549
905.587673
787.148476
664.191842
465.040803
315.997601
204.834938
121.028423
96.567869
104.715824
119.608641
130.913854
135.882497
132.041574
118.976831
101.005435
75.918436
55.613518
33.911467
21.751523
13.124943
9.255409
7.624626
6.970763
6.940961
6.973743
7.361770
6.728768
6.841421
7.801652
7.078648
8.162856
7.610917
8.150935
8.562803
9.438992
9.775758
9.876490
10.033846
10.353923
10.563731
11.130571
12.234449
12.344718
12.465715
12.206435
12.329817
13.531446
13.656616
15.177727
16.381741
15.674829
14.899969
17.829537
18.455982
22.282600
23.255944
25.002956
25.278926
27.074814
29.175878
28.499961
26.432872
24.824739
24.529696
24.586916
23.376942
23.368597
22.593737
21.882653
20.240545
19.579530
21.288991
21.562576
19.369721
20.439625
20.553470
21.476746
20.375848
19.663572
19.836426
##ZVALUE=255
1.424551
1.490712
1.497865
1.612902
1.559854
1.576543
1.880527
1.883507
2.450943
4.421473
20.796657
51.553845
105.438828
238.479972
386.136770
624.307990
796.067715
956.131816
1005.961895
951.115489
823.518634
654.695630
415.778756
265.896916
135.867000
98.393559
86.761713
100.959539
122.647882
135.785937
144.624710
141.163468
125.658512
101.936460
79.252720
54.126978
35.657883
20.903945
13.340712
8.426905
7.408857
6.809831
7.026792
6.802678
6.710887
6.319880
6.796718
7.297993
7.591844
7.958412
7.852912
8.943677
8.279681
8.604527
8.524656
8.832812
9.505749
9.834766
10.924935
10.403991
10.996461
10.608435
11.031628
11.118650
11.645555
12.485981
12.646914
13.629794
14.781952
16.721487
18.132925
19.258857
20.535588
22.197962
22.594929
23.748875
22.831559
22.424459
23.540854
21.510720
20.477772
20.811558
20.479560
19.932985
19.189715
20.369887
18.503666
19.146800
18.728971
19.403696
18.940568
19.067526
18.048882
18.966794
18.868446
18.862486
##ZVALUE=260
1.323819
1.254678
1.224875
1.455545
1.401901
1.539588
1.499653
1.713634
1.570582
1.773834
1.777411
2.920628
7.987618
33.446550
76.018572
192.621946
331.159830
552.609563
745.119452
970.878005
1016.203761
1016.203761
949.984789
772.250891
510.509014
350.303650
199.465752
123.978853
82.027912
79.950690
99.834800
121.720433
140.142441
145.049691
140.308738
125.368834
107.699633
78.256726
57.427883
35.737753
22.439957
13.626814
9.166598
6.598830
6.630421
6.691813
6.951690
6.703734
6.386638
7.362962
7.006526
7.544756
7.597804
8.412600
8.504987
8.081794
8.530617
8.287430
9.629726
10.358691
10.568500
9.841919
10.670424
10.716915
11.467934
11.334419
11.412501
11.920929
12.520552
14.704466
15.560985
16.231537
18.593669
18.636584
18.960834
19.405484
20.619631
19.556880
19.689798
18.579960
17.746687
18.525720
17.311573
18.299818
17.244816
16.426444
16.882420
18.253922
16.977787
17.478466
17.338991
17.105937
16.804934
16.744733
17.037988
17.982721
##ZVALUE=265
1.243949
1.140833
1.513958
1.231432
1.047850
1.194477
1.138449
1.365542
1.310706
1.499653
1.347661
1.681447
1.697540
2.132654
5.080700
23.528934
57.635903
151.645541
271.261930
519.204736
742.070675
942.931771
1016.140580
1016.140580
1016.140580
937.618017
700.289607
507.204533
287.211537
173.741579
104.998946
72.523952
78.319907
105.738640
128.023624
147.087574
150.374770
143.826604
129.086971
102.188587
80.081820
52.478909
36.681890
20.507574
13.438463
8.454919
7.029772
6.572604
6.785989
7.363558
7.539988
8.100867
8.223653
7.992983
8.634925
8.731484
9.147525
9.460449
9.569526
10.092854
9.834766
9.666681
10.629892
10.961890
10.508895
11.507869
11.239648
12.280941
12.047887
13.510585
14.636517
15.839934
16.783476
17.935634
18.067956
17.839670
18.617511
17.457604
16.852617
16.031861
16.864538
16.768575
16.057491
16.107559
15.788674
15.129447
15.426874
15.546679
16.171932
16.263723
15.732646
15.483499
16.099811
16.200542
15.657544
16.511679
##ZVALUE=270
1.101494
1.128912
1.116991
1.118779
1.215935
1.166463
1.424551
1.367927
1.316667
1.362562
1.405478
1.723766
1.622438
1.578927
1.930594
2.101660
2.878904
13.516545
38.588643
120.435953
245.022774
433.463454
752.589703
985.365510
1016.147733
1016.147733
1016.147733
1016.147733
895.288587
686.612725
471.050739
251.397491
141.927004
69.849491
61.333776
82.758665
103.761554
130.214691
144.420862
150.371790
145.947933
127.846599
109.007955
79.301596
57.117939
34.334660
23.746490
14.276505
10.172725
7.939935
7.616878
8.015633
8.163452
8.357763
9.038448
9.014606
9.621978
9.767413
10.562539
10.749698
10.495782
10.404587
11.165738
10.830760
10.813475
11.398792
11.641979
12.287498
12.523532
13.844967
14.610887
15.923977
16.428828
17.707944
16.883612
16.952753
17.402768
17.682910
17.065406
16.223788
16.181469
15.014410
14.286637
14.777780
14.462471
14.842749
14.386773
15.057921
14.422536
14.572740
14.776587
14.668703
14.500618
14.129877
15.039444
15.230775
##ZVALUE=275
1.274943
1.198649
1.191497
1.497865
1.329780
1.211762
1.438856
1.350641
1.434684
1.418591
1.451969
1.446605
1.663566
1.702905
1.891851
1.951456
1.693964
2.407432
2.506971
5.249977
21.640658
64.315796
190.911889
361.974835
664.495826
899.998546
1016.376615
1016.376615
1016.376615
1016.376615
1016.376615
874.414444
629.950762
359.008908
209.200978
93.011856
56.769848
58.042407
77.597499
104.790926
124.427676
143.224001
150.119662
141.839981
128.286481
101.641417
80.211759
56.811571
39.826632
23.279786
16.539693
11.142492
10.320544
9.486675
9.400845
9.347796
9.749532
10.133982
10.899901
10.574460
10.926723
11.821985
10.952950
11.936426
11.861920
12.391806
12.171865
12.529492
13.587475
14.112592
15.296936
15.820861
16.086698
16.766787
16.522408
16.938448
17.023683
16.832948
15.796423
15.639663
15.869737
15.235543
15.215874
14.825463
14.472604
14.450550
14.767647
13.661981
13.736486
13.673902
13.607740
13.894439
13.947487
14.071465
14.260411
14.296770
##ZVALUE=280
1.006722
0.987649
0.887513
1.179576
1.044869
1.141429
1.164675
1.127720
1.024604
1.190901
1.223683
1.332760
1.236796
1.252890
1.145601
1.374483
1.530647
1.474619
1.626611
1.869798
1.980662
2.647638
14.323592
49.026608
156.258941
290.975571
538.801551
791.944861
1016.130447
1016.130447
1016.130447
1016.130447
1016.130447
978.502631
661.038756
440.022945
222.657919
124.510527
57.604909
43.959618
57.128668
75.023770
103.316903
121.190548
142.520666
146.908760
139.208436
127.410889
102.874637
81.525445
54.672956
39.568543
25.297999
17.932653
13.261437
11.461973
10.739565
11.260509
11.106730
11.319518
12.343526
11.253953
11.865497
11.968613
12.538433
12.434721
12.620687
13.912916
13.881922
14.112592
14.907718
14.956594
15.647411
16.517639
16.802549
16.867518
16.451478
15.684962
15.152693
14.978647
14.459491
13.947487
13.970733
13.545752
13.651848
12.876987
14.089942
13.299584
13.498664
13.505816
13.341904
13.153553
12.876987
13.467669
12.720823
13.107657
##ZVALUE=285
1.013875
0.933409
1.048446
1.142621
1.001954
1.111627
1.126528
1.155734
1.076460
1.010895
0.965595
1.111627
1.174808
1.063943
1.166463
1.115799
1.266599
1.307726
1.607537
1.540780
1.755953
1.766682
2.119541
2.375841
7.532835
26.415586
89.911819
189.473629
417.400002
659.047961
930.060744
1016.137600
1016.137600
1016.137600
1016.137600
1016.137600
868.399739
523.619652
324.354768
147.651434
74.439645
36.361814
35.365820
52.696466
71.756840
100.239515
120.019913
134.846568
143.286586
137.636662
127.667785
105.238557
85.786581
59.500933
43.197870
26.965737
20.198822
15.755892
13.727546
13.194680
13.659596
13.733506
13.238788
14.025569
14.075637
14.093518
13.974905
14.082789
15.293956
15.103817
15.764832
15.935898
16.620755
16.626716
17.530918
16.156435
15.936494
15.574694
15.584826
15.713573
14.697909
15.131831
14.126897
13.910532
13.847947
14.007688
13.699532
13.605952
13.518929
12.971759
12.933612
13.122559
12.971759
12.811422
12.622476
12.751818
##ZVALUE=290
0.799894
0.972748
0.991821
0.941753
0.842810
0.992417
1.008511
1.008511
1.012683
1.101494
1.180768
1.133680
1.034737
1.220703
1.171827
1.416802
1.401901
1.373887
1.348853
1.441836
1.703501
1.749992
1.825690
1.984835
2.317429
2.477765
3.546476
11.740923
55.694580
130.562782
314.355493
542.226434
948.787928
1016.140580
1016.140580
1016.140580
1016.140580
1016.140580
1002.401710
759.438872
431.444645
247.759819
103.665590
48.245788
27.537942
32.098889
50.939918
67.717433
94.022751
114.152431
133.111477
141.896605
137.624741
128.615499
105.381608
85.876584
59.880614
45.722723
31.230450
23.531914
18.647909
16.567707
15.251637
15.193820
15.305877
15.237927
15.437603
15.759468
15.747547
16.473532
17.066598
16.829967
17.786622
17.134547
17.620921
16.988516
17.217994
16.460419
15.731454
15.664697
15.047789
14.838576
14.162660
14.257431
14.129877
14.129877
14.131665
13.597608
13.518929
13.690591
13.300776
12.978911
12.655854
13.342500
12.738705
12.522936
##ZVALUE=295
0.774860
0.749826
0.958443
0.860691
0.844598
0.801682
0.914931
1.066923
1.004934
0.943542
1.062751
1.133680
0.977516
1.092553
1.095533
1.057982
1.287460
1.152754
1.147985
1.247525
1.256466
1.475811
1.626611
1.500845
1.637936
2.004504
1.985431
2.165437
2.613664
4.516840
24.815798
76.246858
225.350857
418.502688
784.588456
1016.140580
1016.140580
1016.140580
1016.140580
1016.140580
1016.140580
914.655924
540.372729
326.874852
141.893625
67.385435
28.125644
22.069812
32.243729
46.285987
70.560575
90.573430
112.250447
127.758980
136.526823
134.717822
122.756958
106.721520
83.768964
67.020655
46.238899
34.999847
24.618506
20.277500
17.479658
17.290711
16.399622
16.402602
17.297864
17.300844
17.983913
17.758608
18.355846
17.643571
17.801523
17.439723
17.556548
17.536879
16.524792
16.006827
15.595555
14.976859
15.165806
14.955997
14.853477
14.280677
14.507771
14.232993
13.663769
13.647676
13.647676
13.434887
13.561845
12.819767
13.117790
12.722611
##ZVALUE=300
0.828505
0.784993
0.956655
0.840425
0.784993
1.014471
0.923872
1.005530
0.934601
1.019835
1.077652
0.988841
1.063943
1.082420
1.153946
1.166463
1.329780
1.279712
1.306534
1.432896
1.255870
1.399517
1.390576
1.476407
1.584888
1.589656
1.721978
1.851916
1.906753
2.387762
2.216697
3.144741
11.988878
43.684840
159.487724
324.063897
663.191676
971.955657
1016.140580
1016.140580
1016.140580
1016.140580
1016.140580
1016.140580
803.781748
504.644513
234.404802
121.484995
45.900941
23.479462
22.861958
30.646920
46.510696
61.939955
85.242987
105.525851
124.102831
132.818818
131.886601
123.132467
104.426742
87.421536
63.527822
49.875975
34.002662
26.435852
21.317601
18.746853
18.041730
18.000603
17.777681
18.391609
18.871427
18.528700
18.549562
18.085837
17.323494
17.334819
16.480684
16.644597
16.215444
15.635490
15.712976
15.269518
14.955997
14.890432
14.640689
14.451742
14.227629
13.835430
13.449788
13.469458
12.904406
12.915730
12.742877
12.944937
##ZVALUE=305
0.893474
0.835657
0.811815
0.906587
1.048446
0.972748
0.880957
0.867844
0.943542
0.899434
0.910759
0.917912
0.947714
0.891685
0.745654
1.132488
1.079440
1.040697
1.189709
1.101494
1.221895
1.231432
1.349449
1.353621
1.398921
1.466870
1.576543
1.612902
1.764894
1.838803
1.885891
1.977682
2.291799
2.716780
4.933476
30.284524
87.889433
265.637636
495.116711
918.809772
1016.129851
1016.129851
1016.129851
1016.129851
1016.129851
1016.129851
1016.129851
651.592016
386.541486
163.005590
75.899959
29.052496
19.491911
23.110509
30.632615
45.972466
62.000751
84.618926
103.041530
119.846463
126.489997
124.819875
118.386745
100.239515
83.086491
61.447620
46.845675
33.426881
26.077628
21.237731
19.247532
18.381476
18.457770
17.954707
17.886758
17.738938
17.557740
16.773939
16.680956
15.670657
15.823841
15.894771
15.344620
15.276670
15.428662
15.439987
14.730692
14.231801
14.517903
14.565587
13.883710
13.605952
13.207793
13.452768
12.714863
13.004541
##ZVALUE=310
0.860691
0.907779
0.804663
0.829697
0.962615
0.899434
0.804663
0.860691
0.853539
0.843406
0.863671
0.948906
0.821948
0.932813
1.027584
1.020432
1.029968
1.266599
1.067519
1.160502
1.122952
1.290441
1.317859
1.323819
1.385808
1.251698
1.354814
1.512766
1.499653
1.770854
1.650453
1.680851
2.079606
2.158880
2.363920
2.746582
3.204942
13.944507
50.218701
171.262622
347.597599
739.308596
1016.140580
1016.140580
1016.140580
1016.140580
1016.140580
1016.140580
1016.140580
1005.514860
687.820911
320.979953
151.858926
51.677823
24.663806
18.385649
21.393895
29.682517
39.467812
57.608485
73.612928
96.057653
107.336640
116.838813
118.860602
110.225677
98.229647
79.528689
63.727498
45.088530
34.973621
26.598573
21.916628
18.832684
17.968416
17.205477
16.566515
16.260743
15.922785
16.081929
15.860796
15.148520
15.615821
15.020967
14.829636
15.083551
15.244484
14.465451
14.446974
14.221668
13.981462
13.423562
13.670921
13.191700
13.533831
13.319850
##ZVALUE=315
0.866652
0.917912
0.966787
0.876784
0.844598
0.924468
0.884533
0.817776
0.698566
0.881553
0.938773
0.816584
0.885725
0.859499
1.056790
0.976920
1.056790
1.074672
1.125932
1.047850
1.135468
1.139641
1.189709
1.063943
1.364946
1.299977
1.240969
1.288652
1.295805
1.558661
1.748800
1.772642
1.515746
1.643896
1.992583
2.089739
2.254844
2.688766
2.776980
6.972551
27.312636
113.422871
248.864889
564.065576
927.431583
1016.140580
1016.140580
1016.140580
1016.140580
1016.140580
1016.140580
1016.140580
796.066523
400.838852
207.823515
71.957707
31.786561
16.703606
16.677976
20.798445
26.477575
38.440824
50.977468
69.991946
86.044669
102.314949
109.537840
112.020969
104.774833
90.775490
77.599883
57.999492
45.724511
31.684637
24.647713
19.328594
17.101765
15.760660
15.332699
15.564561
15.147924
14.853477
14.931560
14.499426
14.572740
14.390945
14.000535
14.396906
14.101863
13.587475
13.628602
13.764501
13.674498
13.606548
13.102889
13.269782
##ZVALUE=320
0.878572
0.758767
0.816584
0.827909
0.882745
0.882745
0.882745
0.905991
0.902414
0.970960
0.935793
0.751615
0.823736
0.837445
0.796914
0.781417
0.982881
0.932813
0.871420
0.926852
1.056790
1.035929
1.115799
1.106858
1.183748
1.132488
1.195669
1.364946
1.267791
1.120567
1.383424
1.287460
1.477599
1.748800
1.805425
1.944900
1.623631
2.086759
2.261996
2.661943
2.614856
3.809929
12.566447
73.116422
186.334848
483.723879
786.786675
1016.140580
1016.140580
1016.140580
1016.140580
1016.140580
1016.140580
1016.140580
954.452753
494.809747
269.606709
110.467672
49.407482
18.053651
13.811588
14.686584
16.760826
22.595525
31.383634
47.280788
60.442686
78.780651
92.438459
104.228854
104.378462
98.842978
88.856816
69.523454
56.290627
40.260553
30.281544
22.130609
18.124580
15.422702
14.660954
14.065504
13.736486
14.052987
13.877749
13.636947
13.791919
13.613701
13.556480
13.327599
13.315678
13.081431
13.417602
13.183951
13.345480
13.161898
##ZVALUE=325
0.806451
0.820756
0.845790
0.752807
0.941753
0.733733
0.843406
0.847578
0.925660
0.727773
0.678897
0.822544
0.961423
0.877976
1.068711
1.018643
0.947714
0.949502
1.016855
1.075864
0.872612
0.948906
0.903606
0.936985
0.964999
0.885725
1.129508
1.202822
0.995994
1.115799
1.146793
1.379848
1.459718
1.425743
1.375675
1.602769
1.723766
1.682639
1.870990
2.071857
2.111793
2.427697
2.685785
3.111959
6.618500
47.653913
132.856965
362.891555
657.720566
1016.137600
1016.137600
1016.137600
1016.137600
1016.137600
1016.137600
1016.137600
1016.137600
649.194717
375.784636
155.740976
72.112679
23.203492
13.149977
11.473894
12.059808
15.829802
20.471811
30.855536
42.274594
61.312914
75.009465
89.696646
96.274614
98.190904
93.225837
79.799891
66.512823
49.983859
38.685799
26.794672
20.959973
16.152859
15.034676
13.700724
13.556480
13.657808
13.299584
13.445616
13.283491
13.218522
13.523698
13.190508
13.254881
13.695955
13.465881
13.857484
##ZVALUE=330
0.822544
0.861883
0.821948
0.781417
0.828505
0.794530
0.841618
0.827909
0.869632
0.831485
0.917912
0.876784
0.855923
0.848770
0.801682
0.934601
0.884533
0.919700
0.975728
0.907779
0.927448
0.970960
1.022816
1.051426
1.016855
1.136661
1.108646
1.114607
1.252890
1.174808
1.296997
1.110435
1.278520
1.338720
1.477599
1.361966
1.575947
1.614690
1.536608
1.923442
1.719594
2.179742
2.143979
2.409816
2.498627
3.159642
3.989935
17.725825
61.855912
230.807066
471.159816
957.715511
1016.140580
1016.140580
1016.140580
1016.140580
1016.140580
1016.140580
1016.140580
873.032808
540.494919
234.100819
114.390850
38.502812
16.386509
11.035800
10.790825
11.741519
14.265776
20.749569
28.537512
42.190552
54.692626
72.613955
83.544850
90.193748
91.928840
84.530711
74.971914
60.967803
48.347712
34.343600
27.477741
20.909905
17.199516
14.860630
13.709664
13.649464
13.169646
12.694597
13.107657
13.077855
13.501644
13.601780
13.706684
14.210939
##ZVALUE=335
0.805855
0.876784
0.930429
0.793934
0.877976
0.906587
0.915527
0.915527
0.927448
0.900626
0.830889
0.915527
0.972748
0.779629
0.881553
0.930429
0.966787
0.871420
1.101494
1.152754
1.160502
0.994802
1.182556
1.121759
1.151562
1.171827
1.035929
1.220703
1.058578
1.312494
1.351833
1.147985
1.293421
1.205802
1.243949
1.414418
1.476407
1.561642
1.592636
1.557469
1.963973
1.653433
2.034903
2.071857
2.356768
2.612472
2.668500
3.077984
3.552437
8.885860
32.897592
140.864849
326.244831
797.805786
1016.250849
1016.250849
1016.250849
1016.250849
1016.250849
1016.250849
1016.250849
1016.250849
743.912458
354.783535
173.490644
55.967569
22.973418
12.389421
11.522770
11.462569
12.854934
15.982985
20.199418
29.741526
39.303899
55.243969
66.018701
78.456998
85.122585
85.723996
81.989765
70.255995
59.998631
46.243668
37.150979
26.901960
21.861792
17.510653
14.947653
13.844967
13.306737
13.554692
13.789535
13.850927
14.679432
15.233755
##ZVALUE=340
0.754595
0.636578
0.863671
0.727773
0.999570
0.809431
0.859499
0.675917
0.852942
0.647902
0.749826
0.761747
0.800490
0.857711
0.771880
0.981688
0.837445
1.008511
0.973940
0.959635
0.819564
0.975728
0.984669
0.929832
0.966787
0.917912
0.951886
1.056790
1.081824
0.963807
1.205802
1.135468
1.091957
1.149774
1.244545
1.285672
1.338720
1.288652
1.300573
1.553893
1.321435
1.666546
1.665950
1.744628
1.794696
2.226830
2.012849
2.347827
2.674460
2.866983
3.400445
4.947782
15.131831
90.793967
240.063667
633.840561
1004.571915
1016.140580
1016.140580
1016.140580
1016.140580
1016.140580
1016.140580
1016.140580
965.339541
481.346846
245.102644
82.596540
33.162832
13.717413
11.470914
11.788607
12.148619
12.871623
15.032887
20.274520
26.875734
38.022995
49.950480
64.266920
73.762536
80.825686
81.276894
76.112747
69.105625
57.136416
47.637820
36.047697
28.665662
20.929575
17.545819
14.947653
14.747977
14.472604
15.103817
15.552640
##ZVALUE=345
0.834465
0.970960
0.937581
0.829697
0.952482
0.815988
0.869632
0.935793
0.916719
0.922680
0.789762
0.980496
0.905991
0.861883
0.831485
0.940561
0.889897
0.897646
1.008511
0.939965
0.993609
0.882745
0.903606
0.931621
1.010895
0.970960
0.967979
1.053810
1.055598
1.077652
1.042485
1.031756
1.066923
1.021624
0.937581
1.120567
1.097918
1.193881
1.300573
1.414418
1.522899
1.488924
1.710653
1.689792
1.599789
1.767874
1.888871
1.891851
2.185702
2.265573
2.559423
2.741814
2.927780
3.603697
7.791519
43.462515
125.922561
366.581082
700.948834
1016.179919
1016.179919
1016.179919
1016.179919
1016.179919
1016.179919
1016.179919
1016.179919
694.296956
362.241864
130.842924
55.833459
19.770861
13.009906
11.803508
11.577606
11.261702
11.945963
14.052987
17.622709
25.918484
34.567714
47.665834
56.842566
67.048669
72.447658
74.892640
72.237849
65.393448
56.764483
45.896769
36.568642
27.233958
22.595525
18.278956
16.820431
16.203523
##ZVALUE=350
0.776649
0.761747
0.662804
0.939965
0.771880
0.768900
0.733733
0.792742
0.887513
0.937581
0.757575
0.877976
0.748634
0.775456
0.925660
0.819564
0.862479
0.750422
0.901818
0.954866
0.946522
0.985861
0.822544
0.945926
0.875592
0.823736
0.855923
0.892878
1.157522
1.033545
1.015663
1.131892
1.051426
1.124740
1.000762
1.261830
0.977516
1.107454
1.177788
1.214743
1.201630
1.431704
1.264811
1.218915
1.493692
1.359582
1.557469
1.404881
1.758933
1.833439
1.874566
2.002716
2.196431
2.436638
2.551675
2.890825
4.542470
26.031733
78.345537
235.505700
449.893475
905.894637
1016.137004
1016.137004
1016.137004
1016.137004
1016.137004
1016.137004
1016.137004
841.686726
487.559438
195.630789
82.574487
22.411942
12.525916
10.658503
9.986758
9.409785
9.886622
10.889769
12.340546
16.872883
22.345781
31.235814
39.901733
50.778985
59.327483
66.550970
68.499446
66.892505
62.190890
53.373575
45.127869
36.247969
29.919744
24.001598
##ZVALUE=355
0.880957
0.760555
0.795722
0.849962
0.816584
0.824928
0.809431
0.739694
0.811815
0.822544
0.687838
0.651479
0.808835
0.779629
0.815988
0.833869
0.851750
0.966787
0.874996
0.827909
1.053810
0.876784
0.820756
0.755787
0.947714
0.877976
0.845790
0.845790
0.984669
0.826716
0.922680
1.081824
1.079440
1.075864
0.970960
1.098514
1.072884
1.080632
1.115799
1.209974
1.254678
1.215935
1.289845
1.364946
1.412630
1.220703
1.416802
1.476407
1.594424
1.596808
1.810789
1.719594
1.883507
1.917481
2.202988
2.353787
2.580881
2.883673
3.181696
11.286736
44.028759
167.456865
330.553651
692.487955
1015.612483
1016.135812
1016.135812
1016.135812
1016.135812
1016.135812
1016.135812
1016.135812
719.067454
315.289497
143.164992
37.808418
14.691949
10.425448
9.996891
9.340644
9.434819
9.446740
10.043979
11.985898
14.505982
20.207763
26.113987
36.278963
44.067502
53.389668
59.996843
63.242912
62.896609
58.209896
51.608682
42.749643
##ZVALUE=360
0.691414
0.699759
0.916719
0.800490
0.803471
0.732541
0.707507
0.792742
0.782609
0.703931
0.728965
0.627637
0.722408
0.788569
0.605583
0.745654
0.728965
0.812411
0.941753
0.991821
0.860691
0.807643
0.966787
0.847578
0.739694
0.832677
0.810623
0.871420
0.996590
0.987649
1.026988
1.016855
0.983477
0.986457
1.144409
0.984669
1.132488
0.921488
1.085997
1.165867
1.088977
1.156926
1.161695
1.079440
1.264811
1.337528
1.341701
1.372695
1.379848
1.400709
1.449585
1.755953
1.599789
1.753569
1.939535
2.137423
2.266765
2.286434
2.632737
2.864599
3.141761
5.102754
17.039776
83.875656
207.908750
510.857701
849.756598
1016.106606
1016.106606
1016.106606
1016.106606
1016.106606
1016.106606
1016.106606
727.252960
347.215533
175.192952
59.380531
22.749901
9.913445
9.097457
8.638501
8.697510
8.299947
8.373857
8.988976
9.770989
12.301803
15.687943
21.805763
28.600693
38.981438
45.728683
53.379536
56.559443
56.510568
##ZVALUE=365
0.702739
0.736713
0.788569
0.803471
0.770688
0.694990
0.888705
0.852942
0.877976
0.871420
0.691414
0.830889
0.893474
0.841618
0.846982
0.899434
0.978708
0.777841
0.917912
0.972748
0.742674
0.965595
0.762939
0.882745
0.724792
0.962615
0.971556
1.086593
0.947714
0.931621
1.054406
0.904799
0.815988
0.828505
0.927448
0.963807
0.927448
1.039505
1.072884
1.052618
1.171827
1.204610
1.209974
1.245737
1.195669
1.305938
1.294613
1.121759
1.423955
1.400709
1.410842
1.562834
1.687407
1.662970
1.625419
1.770854
1.624823
1.846552
1.958609
2.254844
2.564788
2.862811
3.015995
3.807545
7.309914
46.388507
136.258006
377.295613
673.463941
1016.140580
1016.140580
1016.140580
1016.140580
1016.140580
1016.140580
1016.140580
884.552002
477.303863
255.489945
92.434883
35.995841
11.066794
8.662939
8.014441
8.002520
7.877946
7.635951
7.671714
7.873774
8.754730
10.492802
13.693571
18.317699
25.211573
31.803846
40.207505
##ZVALUE=370
0.738502
0.819564
0.787973
0.868440
0.715852
0.800490
0.689626
0.730753
0.820756
0.789762
0.618696
0.779629
0.685453
0.748634
0.889897
0.746846
0.783801
0.852942
0.896454
0.696778
0.924468
0.870824
0.921488
0.747442
0.903606
0.907779
0.933409
0.954866
0.885725
0.910759
0.855923
0.629425
0.771880
0.875592
0.882745
0.966787
0.959635
1.020432
0.840425
0.944734
1.043677
1.025796
1.284480
1.096725
0.948906
1.163483
1.174808
1.206994
1.219511
1.196861
1.274943
1.450777
1.460910
1.347661
1.465678
1.377463
1.468658
1.570582
1.634955
1.765490
1.864433
2.175570
2.376437
2.646446
2.786517
3.164411
4.487634
26.477575
89.842677
286.386609
535.663962
970.006585
1016.140580
1016.140580
1016.140580
1016.140580
1016.140580
1016.140580
991.197824
558.515787
307.833552
115.289688
50.055981
16.274452
8.927584
7.963777
7.422566
7.297993
7.188916
6.937981
6.908774
7.225871
7.714629
9.534955
11.850595
16.552806
##ZVALUE=375
0.542998
0.568628
0.729561
0.786781
0.855923
0.740886
0.790954
0.763535
0.784993
0.666976
0.770688
0.655651
0.786781
0.798702
0.783801
0.828505
0.792742
0.896454
0.714660
0.694990
0.738502
0.736713
0.751615
0.812411
0.830889
0.791550
0.756979
0.702739
0.825524
0.748634
0.789762
0.681877
0.906587
0.828505
0.900626
0.830889
0.813603
0.814795
0.919700
0.886917
0.956655
0.922680
0.955462
1.134872
1.007915
1.027584
1.150966
1.073480
1.084805
1.164675
1.252890
1.143813
1.139641
1.212955
1.303554
1.186728
1.263618
1.392961
1.522899
1.533628
1.737475
1.673698
1.855493
2.108812
2.098680
2.358556
2.591610
3.074408
3.532767
11.394620
43.993592
173.114538
387.259722
854.502916
1016.140580
1016.140580
1016.140580
1016.140580
1016.140580
1016.140580
1016.140580
776.489377
478.977561
227.692723
110.409856
31.499863
12.363791
7.655621
7.154942
6.823540
6.784797
6.625652
6.599426
6.554723
6.813407
7.025599
##ZVALUE=380
0.706911
0.784993
0.600815
0.551939
0.443459
0.797510
0.691414
0.754595
0.751615
0.783801
0.695586
0.675917
0.646710
0.668764
0.649691
0.661612
0.718832
0.713468
0.649691
0.827909
0.636578
0.508428
0.713468
0.689626
0.837445
0.888705
0.865459
0.869632
0.725985
0.800490
0.764728
0.836849
0.889897
0.674725
0.800490
0.795722
0.761747
0.815988
0.849962
0.957847
0.840425
0.955462
0.939965
0.957847
0.803471
1.045465
0.995994
1.002550
1.086593
1.057982
1.080632
1.050830
1.053810
1.099706
1.107454
1.397729
1.287460
1.334548
1.269579
1.650453
1.692772
1.613498
1.606941
1.744628
1.915693
2.138615
2.247691
2.642870
2.884865
3.419518
3.963709
6.440878
24.196506
132.547617
325.599909
783.673525
1016.140580
1016.140580
1016.140580
1016.140580
1016.140580
1016.140580
1016.140580
994.496942
673.083663
317.934752
158.780813
52.210689
20.516515
8.397698
7.317662
6.742477
6.655455
6.501675
6.158948
6.165504
##ZVALUE=385
0.653863
0.549555
0.692606
0.660419
0.715852
0.747442
0.622869
0.740886
0.650883
0.779629
0.748634
0.667572
0.762939
0.650883
0.789762
0.591874
0.657439
0.581741
0.713468
0.707507
0.741482
0.522733
0.750422
0.686646
0.739694
0.699759
0.711679
0.768900
0.673532
0.655651
0.656843
0.750422
0.738502
0.704527
0.902414
0.855923
0.812411
0.824928
0.983477
0.860691
0.818968
0.869632
0.918508
0.937581
0.933409
1.025796
0.989437
1.094937
0.924468
0.888705
1.017451
0.997782
0.897646
1.012683
1.265407
1.110435
1.172423
1.309514
1.365542
1.395941
1.319647
1.410842
1.574755
1.592636
1.665950
1.782775
1.838803
2.217889
2.424717
2.687573
2.865791
3.346801
3.546476
4.529953
12.335777
67.440867
186.808705
514.189601
924.133658
1016.140580
1016.140580
1016.140580
1016.140580
1016.140580
1016.140580
1016.140580
923.172832
478.525758
260.736942
99.009871
36.303997
10.150671
6.967783
6.324649
6.238818
6.079674
##ZVALUE=390
0.624657
0.640750
0.713468
0.791550
0.655651
0.594854
0.607967
0.721812
0.613928
0.668764
0.663996
0.706911
0.638962
0.604987
0.749826
0.555515
0.657439
0.865459
0.686646
0.682473
0.707507
0.730753
0.780821
0.873804
0.812411
0.769496
0.752807
0.693798
0.734925
0.728965
0.843406
0.733733
0.678897
0.633597
0.786781
0.764728
0.728965
1.091957
0.770688
0.887513
0.871420
0.923872
0.838637
0.817776
0.852942
0.887513
0.825524
0.913739
1.118779
0.954866
1.125932
0.993609
1.117587
1.018643
1.037717
1.037717
1.037717
1.093745
1.222491
1.300573
1.234412
1.280904
1.320839
1.407862
1.470447
1.726747
1.855493
2.028942
2.251863
2.400875
2.657771
2.865791
2.802610
3.005862
3.102422
3.562570
5.988479
33.743978
109.071732
351.497531
686.720014
1016.140580
1016.140580
1016.140580
1016.140580
1016.140580
1016.140580
1016.140580
1016.140580
764.004588
428.828001
165.025592
68.669915
16.356707
7.743835
6.253719
##ZVALUE=395
0.630617
0.639558
0.589490
0.638962
0.609756
0.810623
0.630617
0.778437
0.872612
0.643730
0.671744
0.757575
0.600815
0.748634
0.839829
0.772476
0.783801
0.683665
0.627637
0.643730
0.716448
0.844598
0.746846
0.738502
0.662804
0.819564
0.646710
0.743866
0.717640
0.803471
0.676513
0.857711
0.828505
0.881553
0.816584
0.891685
0.731945
0.915527
0.919700
0.821948
0.914931
0.918508
0.914931
0.924468
0.795722
0.808835
0.949502
1.127720
1.035929
1.022816
0.891685
1.132488
0.998974
1.174808
1.010895
1.141429
1.134872
1.213551
1.218915
1.034737
1.247525
1.274943
1.438856
1.422763
1.455545
1.677871
1.611710
1.954436
1.906753
2.282858
2.339482
2.339482
2.555847
2.536774
2.642870
2.839565
2.677441
3.350973
3.991723
18.108487
68.542957
241.918564
468.889475
911.969543
1016.189456
1016.189456
1016.189456
1016.189456
1016.189456
1016.189456
1016.189456
923.059583
542.476773
217.858553
96.807480
28.865933
##ZVALUE=400
0.674725
0.584722
0.581741
0.571609
0.599623
0.635982
0.559688
0.689626
0.716448
0.747442
0.656843
0.589490
0.704527
0.644922
0.808835
0.645518
0.674725
0.771880
0.778437
0.717640
0.772476
0.678897
0.633597
0.541806
0.756979
0.675917
0.730753
0.814795
0.878572
0.823736
0.797510
0.746846
0.804663
0.727773
0.875592
0.729561
0.691414
0.867844
0.772476
0.747442
0.629425
0.867844
0.841618
0.746846
0.908971
0.996590
0.944734
0.921488
0.853539
0.987649
0.862479
0.876784
0.997782
0.940561
0.983477
1.012683
1.091957
1.043677
1.077652
1.137853
1.101494
1.258850
1.313686
1.309514
1.515746
1.643896
1.601577
1.866817
1.943707
2.112985
2.250671
2.166629
2.426505
2.342463
2.257824
2.327561
2.413988
2.484918
2.793670
3.100634
3.621578
9.163618
34.937859
130.340457
288.164616
670.750737
1016.140580
1016.140580
1016.140580
1016.140580
1016.140580
1016.140580
1016.140580
1016.140580
773.307681
361.274481
##END
